760.39
861.62
758.39
700.09
744.38
766.93
724.37
690.13
695.36
692.74
663.34
636.13
623.32
605.77
578.3
552.42
532.28
510.49
485.25
458.86
434.22
412.43
396.2
381.43
368.19
354.65
344.18
335.03
328.17
320.7
315.16
309.49
305.16
299.04
294.15
288.3
283.15
275.04
267.14
258.08
251.13
243.86
239.12
234.32
232.12
232.52
243.13
265.89
303.16
349.02
402.21
458.57
518.27
575.31
627.32
670.02
706.37
736.66
763.39
783.37
797.41
805.38
811.42
814.5
814.42
809.01
801.41
792.2
782.4
769.56
755.39
739.7
724.37
707.44
690.36
670.65
649.34
625.08
602.31
579.92
558.29
533.57
509.26
485.63
465.24
444.51
425.22
406.66
392.2
379.17
368.19
356.3
346.18
336.09
328.17
319.12
311.16
302.06
295.15
287.77
282.15
274.59
267.14
256.79
247.13
237.56
233.12
232.46
239.12
253.34
281.15
320.26
369.19
422.37
481.25
540.82
597.31
645.37
689.36
728.43
760.39
780.15
793.41
804.14
814.42
819.66
821.42
820.28
817.42
809.45
798.41
786.32
776.4
765.41
752.39
736.03
720.37
704.21
687.36
666.27
644.33
621.06
598.31
573.44
550.28
527.89
507.26
484.65
463.24
442.63
425.22
408.44
395.2
383.66
374.19
362.65
352.18
342.51
336.17
328.1
319.17
307.71
299.15
291.91
287.15
279.49
271.14
261.37
255.13
250
248.13
248.71
259.13
281.61
319.17
365.46
418.22
472.99
531.27
587.79
639.33
680.36
714.37
742.75
768.4
787.68
801.41
809.37
815.42
818.34
818.42
813.27
805.42
795.84
787.41
777.77
766.4
751.52
736.38
720.36
704.36
685.57
666.34
645.13
623.32
598.51
574.3
550.14
528.27
505.9
485.25
463.71
442.23
419.11
399.21
382.06
368.19
353.92
342.18
331.7
323.17
312.6
303.16
293.73
286.15
276.8
269.14
261.47
255.13
245.41
235.12
223.93
216.11
209.21
206.11
206.92
218.11
240.06
275.14
319.44
372.19
426.54
480.25
530.84
582.3
630.77
671.35
698.53
718.37
735.4
751.39
760.82
764.4
764.29
764.4
762.08
756.39
746.66
736.38
725.03
712.37
696.21
679.35
661.53
643.33
621.48
598.31
573.73
550.28
525.42
501.26
476.62
454.23
432.51
414.21
397.69
384.2
370.42
358.19
347.03
340.18
334.15
328.17
318.93
310.16
300.38
291.15
279.8
271.14
264.06
259.13
250.31
240.12
229.15
222.11
215.21
210.11
208.07
218.11
240.63
275.14
315.83
365.19
421.77
484.25
543.78
598.31
645.87
689.36
725.58
754.39
773.95
788.41
798.75
807.42
812.05
813.42
810.49
805.42
797.22
787.41
775.39
763.39
750.13
736.38
719.88
702.36
682.53
662.34
639.28
615.32
589.71
566.29
542.9
520.27
495.78
473.24
452.02
434.22
417.43
404.21
391.84
380.2
366.23
354.18
343.72
336.17
327.16
319.17
310.19
302.16
291.82
283.15
274.42
267.14
256.94
247.13
236.92
230.12
224.9
226.12
234.8
256.13
288.17
332.17
383.59
441.23
497.99
552.29
601.55
649.34
692.4
728.38
752.79
770.4
784.25
797.41
805.76
809.42
808.66
807.42
803.87
797.41
786.89
776.4
765.73
754.39
739.52
724.37
708.36
691.36
670
648.34
626.47
605.31
581.29
558.29
535.96
515.27
492.71
472.24
453.54
437.23
419.06
402.21
386.95
375.19
362.95
352.18
341.87
334.17
324.8
315.16
303.85
295.15
286.52
279.14
269.23
260.13
250.55
243.13
233.75
225.12
218.58
222.11
235.4
259.13
289.47
330.17
380.08
438.23
495.95
550.28
597.6
640.33
676.72
708.37
733.08
752.39
764.6
772.4
776.52
780.4
782.02
780.4
773.32
764.4
755.04
746.39
734.7
720.37
703.43
687.36
670.52
653.34
632.83
611.32
588.21
566.29
542.54
518.27
493.32
473.24
456.5
442.23
426.39
412.21
398.15
384.2
367.75
354.18
343.79
336.17
325.61
315.16
305.19
298.15
289.64
282.15
274
267.14
257.21
247.13
236.63
230.12
224.7
222.11
221.19
228.12
244.07
273.14
313.05
364.19
419.38
475.25
528.26
582.3
633.14
675.35
703.34
724.37
743.61
762.39
774.38
780.4
782.56
784.41
783.27
779.4
772.33
764.4
753.82
741.38
726.58
712.37
696.75
679.35
657.86
636.33
614.49
593.31
569.44
546.28
523.54
503.26
482.71
465.24
449.77
437.23
423.66
411.21
398.49
387.2
374.64
364.19
354.81
348.18
339.97
332.17
322.83
315.16
306.37
299.15
290.59
283.15
274.24
267.14
259.1
253.13
249.56
256.13
273.43
303.16
340.77
388.2
442.18
501.26
557.93
611.32
658.52
701.36
736.82
766.4
788.42
805.42
816.15
823.43
826.99
829.43
828.75
825.43
817.98
809.42
799.82
790.41
778.27
764.4
748.13
732.38
715.17
697.36
676.47
655.34
632.83
611.32
588.1
565.29
541.12
518.27
494.3
471.24
447.69
427.22
408.15
392.2
377.21
366.19
356.43
348.18
337.59
328.17
318.59
311.16
302.31
295.15
286.9
279.14
268.46
259.13
249.83
243.13
236.45
235.12
240.17
256.13
281.07
318.16
365.09
421.22
478.43
534.28
585.82
636.33
682.01
720.37
747.15
767.4
783.95
799.41
809.19
813.42
812.65
811.42
808.48
803.42
794.32
784.41
773.83
763.39
750.33
736.38
720.57
704.36
685.2
665.34
643.38
621.32
597.15
574.3
551.52
530.27
507.05
484.25
461.21
441.23
422.26
406.21
391.17
379.2
367.22
356.18
344.06
334.17
324.21
315.16
304.14
295.15
286.43
279.14
269.19
260.13
250.74
243.13
233.23
224.12
215.67
213.11
216.32
230.12
253.71
289.15
332.31
383.2
437.18
493.26
545.81
594.31
636.09
673.35
703.91
728.38
744.75
756.39
764.12
770.4
773.01
772.4
767.4
760.39
751.18
741.38
729.49
716.37
700.43
683.35
664.27
645.33
624.35
602.31
577.75
554.29
530.66
508.26
485.23
465.24
446.5
429.22
411
396.2
383.56
372.19
358.26
346.18
336.12
328.17
317.39
307.16
297.45
290.15
280.98
273.14
265.38
259.13
249.42
239.12
228.48
222.11
216.82
214.11
213.04
220.11
236.27
265.14
304.62
356.18
413.33
472.24
528.41
585.3
638.72
683.35
713.73
737.38
759.34
780.4
793.93
801.41
805.57
809.42
808.82
803.42
793.85
784.41
774.25
763.39
749.98
736.38
721.15
704.36
683.28
661.34
638.69
617.32
593.83
570.29
545.71
523.27
501.51
483.25
465.7
449.23
430.86
414.21
399
387.2
375.02
364.19
353.6
346.18
337.59
328.17
316.05
307.16
300.06
295.15
287.07
279.14
270.34
263.14
253.44
245.13
239.58
243.13
254.18
275.14
304.43
346.18
397.62
457.24
516.91
574.3
625.1
671.35
711.43
747.39
775.97
797.41
809.75
817.42
822.25
827.43
829.98
829.43
824.23
817.42
808.52
798.41
785.48
772.4
758.46
744.38
727.21
709.37
690.12
671.35
649.79
627.32
602.46
578.3
553.36
530.27
505.85
481.25
455.79
435.23
418.29
404.21
388.54
375.19
364.1
356.18
346.14
336.17
325.95
319.17
312.08
306.16
298.33
291.15
281.11
271.14
260.78
255.13
250.63
247.13
243.04
247.13
262.12
290.15
326.32
372.19
423.9
479.25
532.66
586.3
636.46
679.35
709.39
732.38
752.11
770.4
781.97
788.41
791.46
794.41
794.37
791.41
784.58
776.4
766.13
755.39
742.96
730.38
715.81
700.36
681.82
662.34
641.21
621.32
600.06
578.3
553.86
530.27
506.43
484.25
461.47
441.23
422.3
406.21
390.06
376.19
363.08
352.18
340.47
330.17
319.61
311.16
302.2
295.15
286.95
279.14
268.92
260.13
250.93
243.13
233.07
224.12
215.98
213.11
213.95
222.11
237.55
265.14
303.2
352.18
406.71
465.24
521.1
572.3
615.85
655.34
689.08
716.37
734.23
747.39
758.14
768.4
774.33
776.4
774.33
770.4
763.24
754.39
743.49
732.38
719.08
704.36
686.9
669.35
650.42
631.33
609.19
586.3
562.19
540.28
518.17
497.26
476
458.24
442.37
429.22
415.52
404.21
394.57
388.2
380.54
372.19
361.39
352.18
342.97
336.17
328.45
322.17
314.28
307.16
297.1
287.15
276.76
271.14
266.59
263.14
259.29
264.14
280.26
310.16
349.45
400.21
457.56
518.27
576.63
636.33
693.97
744.38
779.92
806.42
828.74
849.44
862.6
869.45
871.8
873.45
871.27
865.45
855.63
845.44
833.85
821.42
806.35
791.41
775.79
760.39
741.69
721.37
698.28
675.35
650.69
627.32
603.82
582.3
559.27
536.28
511.67
489.25
467.76
449.23
430.71
414.21
397.9
384.2
370.12
357.18
342.78
330.17
317.42
307.16
295.93
286.15
275.4
267.14
258.45
251.13
241.56
233.12
225.66
225.12
231.14
247.13
271.06
306.16
350.03
403.21
459.96
518.27
571.67
619.32
658.96
694.36
724.17
748.39
763.4
772.4
777.65
783.41
787.28
788.41
784.5
778.4
770.47
762.39
751.98
740.38
726.75
713.37
698.48
683.35
665.72
647.33
626.03
604.31
581.52
561.29
541.34
522.27
501.04
481.25
463.13
449.23
435.32
421.22
405.11
391.2
378.81
369.19
358.49
348.18
336.4
326.17
315.48
307.16
298.49
291.15
281.2
271.14
260.03
252.13
243.73
235.12
224.96
221.11
225.25
240.12
263.39
299.15
344.06
395.2
447.12
503.26
560.01
611.32
648.99
678.35
704.34
729.38
747.77
760.39
768.31
774.4
776.56
776.4
773.42
768.4
759.02
747.39
734.34
722.37
709.38
695.36
677.48
657.34
634.68
613.32
591.65
570.29
546.19
522.27
498
476.25
455.14
437.23
420.49
406.21
391.66
379.2
366.93
356.18
344.35
334.17
323.83
315.16
305.78
299.15
292.7
287.15
278.72
271.14
262.71
255.13
244.91
236.12
228.42
225.12
224.01
230.12
244.99
273.14
310.74
357.18
408.37
465.24
522.45
577.3
624.53
666.34
701.89
732.38
754.69
771.4
783.29
793.41
799.31
801.41
798.76
794.41
787.4
778.4
766.84
756.39
745.44
732.38
714.78
697.36
679.2
659.34
636.18
616.32
596.83
573.3
545.06
526.27
517.69
507.26
481.83
453.23
434.06
425.22
413.5
399.21
386.77
380.2
372.51
364.19
354.91
348.18
340.29
334.17
327.88
323.17
315.31
307.16
297.75
291.15
284.23
279.14
274.42
276.14
285.19
306.16
337.2
380.2
429.52
483.25
537
593.31
647.45
695.36
730.78
758.39
780.97
801.41
815.7
825.43
830.67
834.43
835.07
834.43
831.05
825.43
815.3
803.42
790.63
779.4
766.73
752.39
733.92
714.37
693.57
674.35
653.37
631.33
606.27
582.3
557.87
534.28
508.74
485.25
463.41
445.23
426.92
410.21
393.66
380.2
367.63
358.19
349.12
342.18
334.29
328.17
321.12
315.16
306.84
299.15
290.17
283.15
275.03
268.14
260.14
255.13
252.94
259.13
274.2
302.16
339.7
386.2
436.09
489.25
541.48
592.31
636.79
675.35
706.26
732.38
751.9
766.4
775.28
782.4
786.8
788.41
784.63
778.4
770.47
762.39
751.91
740.38
726.78
712.37
695.67
679.35
661.78
643.33
621.63
600.31
578.27
556.29
531.86
509.26
487.67
467.24
444.38
423.22
404.09
388.2
371.93
358.19
346.39
337.17
326.1
315.16
303.6
294.15
284.39
277.14
269.8
263.14
253.14
243.13
232.41
224.12
214.65
206.11
197.67
194.1
193.87
200.1
214.2
243.13
284.36
334.17
385.99
442.23
499.87
554.29
597.67
633.33
664.4
693.36
715.78
732.38
743.16
750.39
752.69
752.39
749.32
744.38
735.96
726.38
715.91
705.36
691.65
675.35
656.19
637.33
617.35
597.31
575.36
554.29
531.97
509.26
484.24
461.24
439.77
421.22
402.6
387.2
374.33
365.19
355.82
348.18
341.3
337.17
331.71
326.17
319.21
315.16
311.67
309.16
302.75
295.15
285.73
279.14
272.86
268.14
261.02
255.13
252.11
259.13
275.27
302.16
337.88
386.2
441.65
497.26
542.76
582.3
623.55
674.35
726.19
768.4
793.12
807.42
817.24
826.43
831.35
833.43
832.4
829.43
821.41
810.42
798.24
788.41
777.67
764.4
746.86
729.38
710.74
691.36
670.66
653.34
633.64
607.31
576.86
558.29
549.78
535.28
501.71
465.24
441.39
429.22
412.59
392.2
374.93
365.19
354.84
344.18
334.11
328.17
321.02
314.16
305.95
299.15
289.36
279.14
267.76
260.13
253.02
247.13
239.7
237.12
241.05
256.13
280.96
319.17
366.98
422.22
478.88
538.28
595.7
647.33
687.3
720.37
748.84
774.4
792.59
805.42
813.25
818.42
819.2
818.42
815.26
809.42
798.73
787.41
776.53
766.4
753.65
740.38
724.62
706.37
684.99
666.34
646.84
623.32
596.69
580.3
572.14
558.29
526
489.25
463.14
450.23
436.85
421.22
406.24
396.2
385.6
375.19
364.42
356.18
347.11
340.18
333.72
329.17
321.55
313.16
302.94
295.15
286.71
279.14
269.77
263.14
258.41
259.13
264.74
281.15
307.64
345.18
389.36
441.23
495.28
548.28
595.37
640.33
681.41
716.37
740.29
758.39
773.62
787.41
794.82
797.41
796.37
794.41
788.82
780.4
769.77
760.39
749.99
737.38
721.18
705.36
687.81
667.35
643.81
624.32
605.26
581.3
552.72
534.28
525
509.26
473.67
434.22
408.1
396.2
382.48
365.19
349.01
338.17
326.45
315.16
305.25
299.15
291.32
283.15
273.93
267.14
258.92
251.13
242.45
237.12
231.62
226.12
218.21
214.11
213.99
220.11
231.49
255.13
290.84
337.17
387.99
445.23
505.1
562.29
607.97
645.33
678.35
710.37
735.42
752.39
762.35
771.4
778.5
782.4
780.53
776.4
770.5
763.39
752.7
741.38
730.43
720.37
705.59
686.35
665.27
648.34
630.26
607.31
581.09
564.29
555.18
542.28
514.94
485.25
464.65
454.23
441.82
427.22
413.47
404.21
393.74
383.2
372.36
364.19
355.15
348.18
341.39
336.17
327.74
319.17
309.66
303.16
295.8
289.15
280.66
275.14
271.84
275.14
284.96
307.16
339.84
383.2
432.41
489.25
548.9
608.31
660.76
708.37
749.45
784.41
809.63
829.43
844.48
856.44
862.23
865.45
866.96
868.45
865.97
860.45
851.29
841.44
829.98
819.42
807.68
795.41
779.95
764.4
747.32
730.38
710.31
690.36
669.63
651.34
632.52
615.32
597.1
580.3
562.42
546.28
529.73
515.27
500.52
488.25
475.87
465.24
453.3
443.23
432.95
425.22
416.25
408.21
397.56
387.2
374.91
365.19
355.51
348.18
340.26
336.17
334.2
338.17
348.5
372.19
406.44
449.23
495.24
548.28
603.73
655.34
694.07
725.38
753.87
782.4
803.68
817.42
824.54
830.43
833.2
833.43
829.72
825.43
819.13
811.42
800.66
790.41
779.74
768.4
752.8
736.38
719.62
704.36
686.43
667.35
645.88
625.32
604.16
585.3
565.78
546.28
524.59
505.26
487.39
471.24
452.18
433.22
415.68
403.21
391.31
379.2
364.46
352.18
341.69
334.17
324.07
313.16
300.7
291.15
280.26
268.14
252.88
241.12
231.92
226.12
221.45
226.12
243.27
275.14
315.51
364.19
417.22
473.24
526.14
576.3
620.71
659.34
689.31
714.37
734.48
750.39
759.28
764.4
766.62
767.4
763.66
756.39
746.2
736.38
725.78
714.37
700.29
685.35
667.37
647.33
626.12
608.31
588.35
562.29
532.71
514.27
505.7
493.26
464.95
434.22
414.06
404.21
391.06
375.19
361.53
353.18
343.1
332.17
321.77
315.16
308.06
302.16
295.93
291.15
283.42
275.14
265.77
259.13
251.4
243.13
232.48
225.12
220.33
220.11
223.87
239.12
266.63
306.16
352.13
406.21
464.53
522.27
570.65
611.32
646.18
678.35
704.22
724.37
737.92
747.39
752.24
755.39
755.57
752.39
744.08
734.38
724
713.37
700.4
687.36
672.27
654.34
632.84
613.32
593.38
570.29
544.39
527.27
518.01
505.26
477.34
445.23
421.75
410.21
399.14
386.2
373.04
364.19
355.83
348.18
338.77
329.17
317.2
307.16
298.11
291.15
281.59
272.14
262.18
255.13
247.09
239.12
229.16
222.11
217.39
218.11
223.02
237.12
260.06
294.15
336.36
388.2
444.79
503.26
557.43
608.31
653.17
691.36
719.48
741.38
758.07
771.4
779.22
784.41
786.87
787.41
783.35
776.4
766.77
756.39
743.67
730.38
716.74
704.36
688.26
667.35
643.52
624.32
605.4
581.3
552.73
534.28
525.26
511.26
479.19
443.23
419.12
408.21
395.33
378.2
361.34
350.18
339.27
328.17
316.07
306.16
295.68
287.15
278.47
271.14
261.13
251.13
240.22
232.12
223.1
214.11
203.55
197.1
193.41
194.1
199.38
218.11
250.72
295.15
345.09
403.21
465.77
526.27
575.2
616.32
653.7
689.36
716.89
736.38
749.13
759.39
766.02
770.4
771.08
768.4
760.86
751.39
740.51
729.38
716.79
704.36
689.09
670.35
649.35
632.33
614.52
590.31
561.14
542.28
533.13
518.27
484.09
445.23
418.13
404.21
388.43
369.19
351.51
340.18
329.17
318.16
307.21
299.15
290.64
283.15
274.76
267.14
257.25
248.13
238.32
230.12
219.94
210.11
199.52
192.1
184.63
178.09
172.08
174.09
184.46
204.11
230.99
271.14
323.26
383.2
441.8
499.26
553.31
602.31
641.62
675.35
704.66
729.38
745.35
756.39
765.05
772.4
774.01
770.4
762.23
752.39
740.95
730.38
719.2
706.37
689.28
671.35
653.35
636.33
615.9
593.31
568.7
546.28
523.6
501.26
477.12
455.24
434.46
416.22
397.88
383.2
371.49
364.19
357.2
352.18
347.47
345.18
341.25
337.17
331.36
328.17
324.76
322.17
317.23
314.16
310.46
307.16
301.37
298.15
295.62
295.15
296.94
311.16
339.01
378.2
421.42
472.24
528.76
586.3
634.96
677.35
715.87
752.39
780.57
801.41
816.26
829.43
838.31
843.44
843.55
841.44
835.6
827.43
816.52
806.42
795.86
784.41
768.93
752.39
734.72
717.37
696.8
675.35
652.81
632.33
610.77
589.3
565.52
542.28
517.87
495.26
473.03
454.23
436.55
421.22
404.99
390.2
375.89
365.19
354.44
344.18
332.08
323.17
315.61
310.16
302.21
295.15
286.83
279.14
269.51
263.14
258.13
255.13
251.79
256.13
270.55
297.15
331.38
376.19
429.05
487.25
542.34
594.31
641.19
683.35
716.27
742.38
762.66
780.4
792.95
801.41
805.19
807.42
806.46
802.42
793.86
784.41
774.13
763.39
749.95
736.38
721.09
704.36
685.86
670.35
652.79
629.33
602.3
586.3
578.35
562.29
526.14
487.25
461.89
449.23
432.69
412.21
394.22
383.2
371.75
360.19
349.39
342.18
333.86
326.17
317.87
311.16
302.52
295.15
287.64
282.15
274.52
267.14
258.52
252.13
244.92
239.12
234.78
239.12
253.14
279.14
313.35
357.18
406.99
461.24
513.2
562.29
605.85
645.33
677.68
704.36
724.62
741.38
752.93
760.39
763.01
764.4
764.16
762.39
755.91
746.39
734.83
724.37
713.21
701.36
686.71
671.35
653.79
635.33
613.9
592.31
569.64
548.28
526.1
505.26
483.65
463.24
442.84
426.22
411.89
400.21
387.3
375.19
363.07
353.18
342.43
332.17
320.65
311.16
301.41
293.15
283.49
275.14
265.03
255.13
243.92
236.12
228.86
222.11
213.5
210.11
213.45
226.12
246.08
279.14
324.44
379.2
434.22
489.25
542.6
594.31
638.43
675.35
704.57
729.38
748.66
764.4
774.66
780.4
781.08
780.4
777.65
772.4
762.5
751.39
740.07
729.38
715.78
700.36
682.84
665.34
644.48
621.32
596.2
574.3
553.03
531.27
506.59
485.25
467.61
453.23
437.14
423.22
412.03
404.21
394.26
384.2
373.96
366.19
357.44
350.18
342.46
336.17
327.45
319.17
309.43
301.16
291.32
283.15
274.57
268.14
260.43
255.13
253.61
263.14
282.85
314.16
354.23
406.21
465.13
526.27
581.4
632.33
678.6
721.37
756.08
784.41
805.56
821.42
829.87
834.43
836.24
837.43
834.4
827.43
816.7
806.42
795.83
784.41
768.79
751.39
733
716.37
698.36
679.35
657.3
635.33
611.98
589.3
564.92
542.28
521.53
505.26
487.38
465.24
437.28
412.21
393.12
380.2
365.78
350.18
334.21
323.17
314.16
307.16
297.92
289.15
279.18
271.14
261.2
251.13
239.7
232.12
224.99
218.11
209.96
209.11
216.52
233.12
256.84
295.15
346.84
406.21
463.06
519.27
573.63
623.32
662.16
695.36
725.1
750.39
765.84
776.4
785.53
793.41
794.33
790.41
783.82
776.4
765.97
755.39
744.7
733.38
718.82
704.36
688.38
669.35
646
625.32
605.47
582.3
554.43
534.28
522.75
509.26
481.34
449.23
425.22
412.21
398.72
383.2
367.83
356.18
343.03
329.17
315.17
305.16
295.7
287.15
276.51
267.14
257.76
251.13
243.22
235.12
224.65
216.11
207.82
202.1
197.13
198.1
206.03
225.12
252.69
290.15
334.94
388.2
444.21
500.26
551.7
600.31
643.16
679.35
706.29
728.38
746.24
760.39
768.04
772.4
774.32
774.4
769.23
760.39
749.72
740.38
729.64
716.37
699.73
683.35
664.82
643.33
619.59
600.31
580.61
554.29
522.31
501.26
492.18
480.25
451.06
418.22
397.05
388.2
376.76
362.19
350
344.18
337.05
328.17
318.25
311.16
302.41
293.15
282.6
275.14
267.19
259.13
248.41
240.12
232.49
226.12
217.99
214.11
214.77
222.11
235.49
263.14
305.23
358.19
412.55
469.24
526.53
582.3
629.34
669.35
702.5
730.38
750.89
768.4
782.95
793.41
795.59
793.41
789.25
784.41
776.25
767.4
757.65
746.39
731.33
716.37
700.52
682.35
660.48
641.33
622.14
598.31
569.68
550.28
540.23
526.27
495.53
461.24
437.47
425.22
411.11
395.2
381.5
372.19
359.61
345.18
331.56
323.17
315.02
307.16
296.82
287.15
276.34
268.14
259.44
251.13
239.89
230.12
220.6
214.11
208.77
210.11
219.1
240.12
271.27
315.16
368.37
429.22
489.54
547.28
599.65
649.34
692.58
728.38
754.64
776.4
793.69
806.42
811.57
813.42
814.01
814.42
810.04
801.41
790.17
780.4
770.1
758.39
743.4
728.38
712.25
695.36
674.66
653.34
630.94
609.32
585.31
562.29
540.51
522.27
502
479.25
453.86
433.22
417.58
406.21
392.83
379.2
365.71
356.18
347.37
340.18
331.29
323.17
313.94
307.16
299.29
291.15
280.27
272.14
264.94
259.13
251.27
247.13
246.65
252.13
262.87
287.15
325.19
374.19
425.26
479.25
533.64
586.3
630.86
670.35
704.79
734.38
755.4
772.4
786.7
798.41
803.01
803.42
801.02
797.41
790.82
784.41
776.9
766.4
750.89
736.38
723.06
708.37
688.84
670.35
650.99
627.32
599.78
582.3
573.52
558.29
523.61
485.25
459.61
447.23
431.93
412.21
393.3
380.2
366.87
354.18
343.05
336.17
328.1
319.17
308.12
299.15
290.16
283.15
274.68
267.14
258.28
251.13
242.65
235.12
226.7
222.11
222.22
232.12
249.39
275.14
307.94
352.18
403.96
459.24
511.32
562.29
609.65
651.34
683.27
710.37
733.42
751.39
760.03
764.4
768.07
772.4
772.08
767.4
759.77
752.39
742.37
729.38
713.91
700.36
685.68
667.35
644.52
624.32
604.5
581.3
554.85
538.28
530.51
518.27
489.56
458.24
438.06
429.22
417.62
403.21
390.36
382.2
371.63
360.19
349.87
344.18
336.9
328.17
317.67
311.16
305.21
299.15
289.34
281.15
273.41
267.14
259.05
255.13
255.05
260.13
269.11
291.15
327.64
376.19
427.97
484.25
542.19
598.31
645.17
686.35
722.76
754.39
776.5
793.41
807.09
818.42
822.94
823.43
821.17
817.42
809.23
799.41
788.81
778.4
765.58
752.39
737.18
720.37
701.53
685.35
667.14
643.33
615.72
598.31
589.26
574.3
540.42
501.26
471.65
454.23
436.08
416.22
397.67
384.2
370.44
358.19
347.5
340.18
331.31
323.17
314.36
307.16
298.27
291.15
283.06
275.14
264.41
256.13
248.81
243.13
234.88
230.12
232.57
248.13
272.95
307.16
348.47
400.21
457.96
518.27
573.39
623.32
666.21
704.36
735.7
762.39
782.59
797.41
805.15
809.42
810.81
811.42
808.63
803.42
795.74
788.41
778.83
766.4
751.07
738.38
726.48
712.37
692.73
673.35
652.82
629.33
603.13
586.3
577.45
564.29
534.27
499.26
472.55
457.24
441.81
425.22
408.8
395.2
380.45
368.19
358.18
350.18
339.15
329.17
319.55
311.16
300.97
295.15
291.7
287.15
273.97
259.13
247.65
243.13
237.75
232.12
229.23
239.12
261.95
297.15
338.38
386.2
437.8
493.26
546.57
596.31
638.41
674.35
703.17
728.38
748.58
764.4
773.9
780.4
783.72
784.41
779.77
772.4
763.27
754.39
743.71
732.38
718.95
704.36
686.98
669.35
649.16
627.32
603.98
584.3
563.49
538.28
510.31
493.26
485.96
476.25
452.65
427.22
411.19
404.21
393.22
379.2
367.41
362.19
355.98
348.18
338.68
332.17
324.94
318.16
309.63
303.16
295.76
289.15
280.93
275.14
268.73
263.14
258.54
264.14
280.09
305.16
334.95
376.19
428.74
488.25
543.96
596.31
644.24
687.36
720.68
748.39
771.79
791.41
802.75
809.42
813.68
817.42
816.41
811.42
802.78
793.41
782.31
771.4
759.48
747.39
732.52
716.37
697.3
677.35
654.97
633.33
611.09
590.31
568.29
547.28
525.22
504.26
482.01
461.24
440.74
423.22
406.07
391.2
377.38
368.19
361.1
356.18
348.48
340.18
330.38
323.17
315
307.16
297.56
291.15
284.98
279.14
270.3
264.14
259.84
259.13
261.14
275.14
303.35
345.18
392.45
445.23
499.85
554.29
602.8
648.34
689.33
724.37
749
768.4
784.89
799.41
807.16
810.42
810.46
809.42
804.5
797.41
788.19
778.4
765.82
752.39
738.16
725.38
711.06
695.36
675.81
655.34
633.2
612.32
590.46
569.29
545.89
522.27
497.33
475.25
454.74
437.23
419.53
404.21
390.04
379.2
368.67
360.19
351.35
344.18
335.67
328.17
319.1
311.16
302.05
295.15
287.58
281.15
273.1
267.14
260.49
255.13
250.8
255.13
268.03
290.15
318.96
360.19
411.31
467.24
519.13
569.29
616.63
659.34
692.24
720.37
745.37
766.4
778.04
784.41
788.43
791.41
789.02
783.41
775.89
768.4
758.4
747.39
734.95
722.37
707.25
691.36
674.16
657.34
636.69
613.32
589.29
570.29
549.71
523.27
495.53
483.25
482.53
473.24
440.58
402.21
377.18
366.19
352.82
336.17
322.3
315.16
306.77
297.15
286.96
279.14
268.95
259.13
249.61
243.13
234.73
226.12
216.5
210.11
203.34
197.1
191.07
194.1
208.64
236.12
270.9
314.16
364.18
421.22
478.93
535.28
585.43
629.33
664.83
695.36
720.56
741.38
755
763.39
766.98
768.4
766.42
762.39
755.76
748.39
739.02
728.38
714.95
700.36
683.36
665.34
644.52
623.32
601.1
580.3
557.77
534.28
508.54
485.25
463.68
445.23
427.08
412.21
399.02
388.2
376.25
366.19
357.76
353.18
348.36
344.18
338.17
333.17
326.14
319.17
310.15
303.16
295.58
289.15
281.05
275.14
268.64
263.14
257.98
261.14
272.89
294.15
322.4
364.19
418.08
479.25
537.13
592.31
643.73
691.36
729.93
762.39
788.89
810.42
823.86
833.43
840.35
845.44
844.73
840.43
833.33
825.43
814.71
803.42
791.3
779.4
764.68
748.39
729.2
709.37
687.39
666.34
644.53
623.32
599.64
576.3
552.28
530.27
507.31
485.25
462.5
442.23
422.24
404.21
386.35
372.19
359.83
350.18
339.14
329.17
318.8
311.16
302.66
295.15
286.13
279.14
270.88
263.14
253.7
247.13
240.68
236.12
233.73
243.13
265.68
301.16
343.48
395.2
453.38
514.27
569.15
619.32
664.42
705.36
737.84
764.4
785.05
801.41
811.09
817.42
820.61
821.42
816.88
809.42
799.99
790.41
778.08
764.4
749.85
737.38
723.91
708.37
688.19
667.35
645.53
624.32
600.83
578.3
555.66
534.28
510.54
487.25
463.8
443.23
423.76
408.21
394.15
382.2
369.73
360.19
351.69
344.18
333.39
323.17
313.6
307.16
299.06
291.15
282.2
276.14
269.57
263.14
252.95
243.13
235.24
235.12
239.33
248.13
262.12
291.15
335.68
391.2
446.15
499.26
549.47
598.31
641.03
678.35
708.91
734.38
752.13
764.4
771.43
776.4
778.48
779.4
777.29
772.4
762.92
751.39
738.4
726.38
713.58
700.36
684.12
666.34
645.83
625.32
603.53
582.3
558.84
535.28
511.61
492.25
474.46
457.24
437.38
419.22
402.33
387.2
370.51
356.18
344.45
336.17
326.49
317.16
307.29
299.15
288.93
279.14
269.26
263.14
256.99
251.13
241.96
233.12
223.72
217.11
211.15
210.11
215.2
232.12
259.17
297.15
342.43
396.2
453.53
511.26
562.6
608.31
647.77
683.35
712.05
734.38
749.01
759.39
766.28
772.4
775.29
774.4
768.29
760.39
750.86
740.38
727.06
713.37
698.7
683.35
664.1
643.33
621.22
600.31
577.47
554.29
530.16
509.26
489.92
473.24
456.16
441.23
427.2
416.22
405.1
395.2
384.65
376.19
367.52
360.19
351.48
344.18
335.74
328.17
318.74
311.16
303.28
297.15
289.47
283.15
274.99
267.14
259.43
259.13
264.9
277.14
295.06
328.17
376.63
435.23
492.27
548.28
602.81
655.34
698.46
733.38
760.94
784.41
801.15
813.42
820.8
825.43
825.98
825.43
822.65
817.42
807.26
795.41
782.91
771.4
758.24
744.38
727.74
709.37
687.65
666.34
644.56
623.32
598.97
574.3
549.14
526.27
501.91
477.25
451.78
430.22
410.42
392.2
372.62
356.18
343.01
334.17
324.41
315.16
305.6
299.15
291.45
283.15
272.26
264.14
256.81
251.13
242.72
235.12
226.99
221.11
215.9
218.11
230.17
256.13
291.8
337.17
388.23
445.23
503.29
561.29
613.24
658.34
695.14
728.38
756.56
778.4
790.46
797.41
801.69
805.42
805.33
802.42
796.16
788.41
778.28
768.4
757.75
746.39
731.69
716.37
699.95
683.35
662.76
640.33
616.24
594.31
571.92
550.28
527.81
508.26
489.31
471.24
451.19
433.22
417.11
404.21
390.6
378.2
365.97
356.18
345.59
336.17
325.88
317.16
307.28
299.15
290.38
283.15
274.51
267.14
257.36
247.13
236.49
232.12
230.98
232.12
235.94
255.13
292.26
342.18
392.83
445.23
499.41
554.29
602.34
645.33
683.34
716.37
739.58
756.39
768.92
779.4
784.86
787.41
787.02
784.41
777
767.4
756.63
746.39
734.05
720.37
704.18
687.36
668.36
649.34
628.54
607.31
583.06
558.29
532.44
509.26
487.46
469.24
452.1
437.23
420.9
404.21
386.37
372.19
360.69
352.18
342.32
333.17
323.41
315.16
304.84
295.15
285.32
279.14
272.87
267.14
258.62
251.13
243.18
237.12
229.94
226.12
227.68
241.12
264.52
298.15
338.44
388.2
444.52
505.26
562.11
613.32
656.7
695.36
727.07
752.39
769.6
782.4
791.04
797.41
799.67
799.41
795.27
788.41
778.34
768.4
757.83
746.39
731.6
716.37
700.17
683.35
662.45
640.33
616.87
594.31
569.79
546.28
523.5
504.26
485.12
467.24
448.9
433.22
417.92
404.21
389.85
378.2
367.83
360.19
351.57
344.18
335.67
328.17
318.78
311.16
303.24
297.15
289.47
283.15
275
267.14
258.99
257.13
259.2
265.14
274.7
299.15
340.43
394.2
448.74
504.26
559.96
615.32
663.33
705.36
740.76
770.4
790.73
805.42
815.31
822.43
825.19
827.43
828.12
825.43
815.65
803.42
791.84
782.4
770.48
756.39
740.03
724.37
707.14
689.36
668.69
647.33
623.52
600.31
576.49
554.29
530.07
505.26
479.55
458.24
439.13
421.22
401.14
384.2
371.01
362.19
352.53
344.18
335.65
328.17
317.41
307.16
297.4
291.15
283.28
275.14
265
257.13
248.61
241.12
232.84
230.12
234.75
251.13
275.84
310.16
352.07
404.21
461.95
522.27
577.55
627.32
669.97
708.37
739.48
763.39
778.78
790.41
798.85
805.42
807.64
807.42
803.75
797.41
787.16
776.4
765.37
754.39
740.11
724.37
707.38
691.36
673.1
653.34
630.4
607.31
582.47
558.29
533.49
511.26
489.25
468.24
445.66
425.22
406.72
392.2
378.05
365.19
351.72
340.18
328.6
319.17
309.43
301.16
291.47
283.15
274.18
267.14
258.86
251.13
240.55
230.12
219.78
214.11
208.93
204.11
200.68
210.11
234.95
273.14
316.08
365.19
419.44
477.25
530.3
578.3
620.74
659.34
689.65
712.37
728.11
741.38
751.33
758.39
760.67
760.39
757.26
752.39
743.92
733.38
720.84
708.37
694.25
679.35
662.13
644.33
623.87
602.31
578.36
555.29
531.78
509.26
484.81
461.24
438.81
421.22
405.39
391.2
376.17
364.19
354.56
348.18
340.79
334.17
327.4
323.17
317.45
311.16
302.23
295.15
288.26
283.15
275.31
267.14
257.71
251.13
244.23
239.12
236.23
243.13
259.56
286.15
319.47
364.19
419.1
481.25
539.77
592.31
638.57
683.35
722.86
754.39
774.44
788.41
799.15
809.42
815.49
817.42
814.43
809.42
801.87
793.41
782.58
770.4
755.54
740.38
724.23
708.37
689.71
669.35
646.01
623.32
600.18
578.3
554.38
530.27
504.74
481.25
458.07
437.23
416.89
400.21
385.55
374.19
362.58
352.18
341.09
332.17
322.9
315.16
306.25
299.15
290.81
283.15
273.9
267.14
259.33
251.13
240.89
235.12
231.37
229.12
228.69
243.13
275.42
321.17
369.57
423.22
481.83
542.28
595.6
644.33
689
728.38
756.16
776.4
792.1
805.42
813.11
818.42
821.46
821.42
814.72
805.42
795.72
786.41
773.91
760.39
746.22
732.38
715.38
697.36
677.99
659.34
638.13
616.32
592.79
570.29
546.01
522.27
498.72
479.25
460.26
441.23
420.49
404.21
391.88
382.2
369.4
357.18
346.7
340.18
331.88
323.17
313.44
307.16
300.75
295.15
286.8
279.14
270.34
263.14
254.2
247.13
243.13
249.13
263.53
287.15
317.61
360.19
413.09
473.24
530.77
584.3
632.83
679.35
719.37
751.39
772.85
788.41
799.62
809.42
815.15
817.42
815.24
811.42
805.14
797.41
786.6
774.4
759.75
744.38
727.74
712.37
695.69
677.35
655.11
633.33
611.53
590.31
565.6
540.28
513.97
489.25
463.87
441.23
420.5
403.21
385.77
370.19
355.57
344.18
332.9
323.17
313.12
305.16
296.03
287.15
276.43
268.14
260.68
255.13
245.93
235.12
223.78
218.11
213.74
208.11
199.28
198.1
209.82
236.12
269.82
311.16
358.45
412.21
466.98
522.27
573.68
619.32
654.79
683.35
706.46
726.38
739.91
748.39
752.73
756.39
757.23
754.39
746.54
737.38
727.27
716.37
702.24
687.36
671.52
655.34
635.78
615.32
593.54
572.3
548.97
526.27
503.01
481.25
459.38
441.23
425.1
411.21
396.32
384.2
374.53
368.19
360.74
354.18
347.86
344.18
338.9
333.17
325.23
319.17
312.55
307.16
299.64
293.15
285.56
279.14
270.48
263.14
257.72
260.13
269.08
287.15
313.23
352.18
401.54
459.24
516.91
573.3
625.62
675.35
717.73
752.39
777.77
798.41
813.91
825.43
830.79
833.43
833.81
833.43
829.04
821.42
810.55
799.41
786.47
772.4
756.07
740.38
723.44
705.36
683.73
662.34
640.48
619.32
595.53
572.3
548.7
526.27
501.44
477.25
453.76
434.22
415.64
399.21
382.6
368.19
353.9
342.18
330.61
321.17
311.04
303.16
295.08
289.15
281.84
275.14
265.26
255.13
244.64
239.12
233.99
228.12
221.38
226.12
246.34
281.15
321.69
369.19
422.53
481.25
538.47
594.31
645.2
689.36
722.17
748.39
770.53
790.41
803
809.42
811.42
813.42
813.1
809.42
800.64
790.41
779.34
768.4
755.08
741.38
726.78
712.37
694.71
675.35
653.54
632.33
609.42
586.3
560.29
534.28
508.43
487.25
467.75
449.23
429.06
412.21
397.99
386.2
372.67
361.19
351.52
344.18
333.76
323.17
313.03
307.16
301
295.15
286.67
279.14
270.41
263.14
254.31
247.13
240.84
240.12
243.14
253.13
270.86
303.16
348.07
402.21
456.17
509.26
560.22
611.32
657.78
698.36
729.97
755.39
774.06
788.41
797.04
802.42
804.41
805.42
803.13
797.41
787.03
775.4
763.05
751.39
738.17
724.37
707.82
689.36
667.32
645.33
623.15
602.31
578.86
554.29
528.33
505.26
482.76
461.24
438.39
418.22
399.58
383.2
366.25
352.18
339.99
330.17
318.97
309.16
299.49
291.15
280.52
271.14
262.12
255.13
245.32
235.12
224.35
217.11
209.31
201.1
190.97
186.1
188.59
202.1
223.79
256.13
297.31
348.18
403.87
463.24
520.24
572.3
615.09
651.34
680.85
705.36
723.16
737.38
748.15
756.39
759.33
758.39
753.71
747.39
738.35
728.38
717.04
705.36
691.16
675.35
656.17
635.33
612.76
592.31
571.05
548.28
523.1
501.26
479.18
454.23
428.14
414.21
410.68
404.21
383.07
360.19
348
346.18
340.84
332.17
324.56
322.17
318.29
314.16
309.57
307.16
301.65
295.15
286.53
279.14
270.12
263.14
257.37
256.13
257
264.14
278.68
307.16
348.85
403.21
461.24
519.27
573.52
627.32
677.07
720.37
752.94
779.4
800.62
817.42
826.11
830.43
832.7
835.43
834.44
829.43
820.44
811.42
801.41
790.41
775.99
760.39
743.16
726.38
707.85
689.36
668.68
647.33
622.81
598.31
573.24
550.28
525.85
501.26
475.8
454.23
434.43
416.22
396.59
380.2
367.04
358.19
348.69
340.18
330.88
323.17
313.53
305.16
296.74
291.15
283.5
275.14
264.66
257.13
249.18
241.12
231.69
230.12
239.27
261.14
290.3
329.17
376.64
433.22
492.25
552.29
608.1
658.34
698.79
732.38
758.86
780.4
795.42
807.42
815.87
821.42
821.42
818.42
812.6
805.42
795.17
784.41
773.17
762.39
748.54
732.38
713.47
695.36
676.34
657.34
635.49
613.32
589.42
566.29
541.73
518.27
494.21
472.24
450.88
433.22
417.33
404.21
390.49
378.2
366
356.18
345.7
336.17
325.56
317.16
309.04
303.16
295.12
286.15
274.3
264.14
253.22
243.13
232.27
226.12
222.32
221.11
221.95
235.12
263.36
305.16
351.29
402.21
456.73
514.27
566.85
613.32
652.21
686.35
713.76
736.38
753.24
766.4
774.39
779.4
780.93
780.4
775.55
767.4
756.44
746.39
736.09
724.37
708.17
690.36
671.52
653.34
632.69
611.32
588.39
566.29
542.33
518.27
492.82
469.24
446.45
427.22
409.65
395.2
380.97
368.19
354.5
342.18
330.18
321.17
311.98
303.16
292.21
283.15
274.41
267.14
257.02
247.13
237.01
230.12
222.23
214.11
204.14
198.1
196.28
202.1
214.18
237.12
270.27
315.16
367.29
426.22
486.17
544.28
594.87
639.33
676.6
708.37
732.42
751.39
765.3
776.4
782.91
786.41
786.07
783.41
776.95
768.4
757.81
747.39
734.99
720.37
702
683.35
663.91
644.33
621.49
598.31
574.81
554.29
534.94
518.27
499.35
477.25
451.15
429.22
413.32
403.21
392.37
382.2
372.19
364.19
354.02
344.18
334.42
328.17
321.41
315.16
306.55
299.15
290.62
283.15
272.98
263.14
252.91
247.13
243.38
244.13
249.38
267.14
298.56
344.18
395.77
451.23
507.35
566.29
622.88
674.35
715.8
750.39
778.18
801.41
817.65
829.43
836.34
840.43
840.06
837.43
831.49
823.43
812.57
802.42
791.96
780.4
764.77
748.39
731.03
713.37
692.33
671.35
649.41
627.32
602.1
578.3
555.5
534.28
510.3
487.25
465.27
446.23
426.28
408.21
391.71
379.2
367.1
357.18
347.43
340.18
332.01
325.17
317.28
311.16
303.13
295.15
285.05
277.14
268.71
261.14
251.96
247.13
247.07
255.13
269.52
295.15
330.63
376.19
427.3
485.25
543.9
598.31
642.96
683.35
719.99
751.39
772.45
788.41
801.93
813.42
817.66
817.42
814.78
811.42
803.7
793.41
781.81
771.4
759.73
747.39
732.48
716.37
697.4
678.35
657.81
637.33
614.88
594.31
575.12
558.29
537.6
512.26
481.66
453.23
429.09
411.21
394.51
379.2
363.96
352.18
341.37
332.17
321.72
313.16
305.04
299.15
291.02
282.15
271.29
263.14
254.85
247.13
237.04
229.12
221.65
216.11
211.07
214.11
227.5
253.13
285.57
326.17
373.76
429.22
485.8
540.28
587.21
627.32
659.54
687.36
709.83
728.38
741.6
752.39
759.81
764.4
763.45
758.39
749.89
741.38
731.54
720.37
707.29
695.36
680.8
661.34
638.04
619.32
600.98
576.3
547.23
532.28
530.76
522.27
489.69
451.23
428.35
422.22
413.84
400.21
387.23
380.2
372.87
366.19
360.26
356.18
348.67
341.18
333.87
328.17
318.35
307.16
295
286.15
276.57
267.14
255.55
247.13
242.05
244.13
251.48
268.14
293.81
332.17
380.2
437.23
495.69
552.29
601.99
647.33
686.8
721.37
748.2
770.4
787.69
801.41
808.3
810.42
808.9
807.42
803.8
797.41
786.74
775.4
763.48
751.39
736.25
720.37
703.3
686.35
666.3
645.33
622.81
602.31
582.89
566.29
546.19
520.27
488.34
461.24
442.08
429.22
414.27
399.21
385.61
376.19
365.94
356.18
346.42
340.18
333.81
328.17
319.41
310.16
299.19
291.15
282.92
275.14
264.82
257.13
250.7
247.13
244.64
251.13
269.23
301.16
340.46
387.2
439.14
497.26
554.69
608.31
653.03
691.36
723.43
752.39
774.75
790.41
798.98
806.42
812.83
817.42
815.69
809.42
799.87
790.41
779.54
768.4
756.64
746.39
733.19
716.37
697.62
683.35
666.41
640.33
609.57
594.31
592.66
582.3
545.17
500.26
470.16
457.24
443.13
425.22
408.84
398.21
386.19
374.19
363.58
356.18
346.45
337.17
328.68
323.17
315.33
307.16
297.63
290.15
280.77
271.14
259.6
251.13
243.98
240.12
238.36
245.13
260.67
287.15
322.15
369.19
423.64
480.25
530.92
578.3
622.43
663.34
695.83
722.37
743.41
760.39
770.25
776.4
780.49
784.41
784.34
780.4
772.41
763.39
752.71
741.38
727.46
712.37
695.31
678.35
658.74
637.33
613.95
594.31
577.61
562.29
541.39
516.27
488.74
465.24
444.66
427.22
409
392.2
376.32
364.19
352.67
342.18
330.46
321.17
312.99
307.16
299.02
290.15
279.41
271.14
262.67
255.13
245.38
237.12
228.4
221.11
213.1
210.11
213.98
229.12
252.59
286.15
328.05
380.2
437.1
495.26
547.61
594.31
634.49
671.35
702.03
726.38
743.05
756.39
766.1
772.4
773.32
772.4
769.51
764.4
754.87
744.38
733.05
720.37
703.77
687.36
671.43
655.34
634.46
612.32
589.94
569.29
546.89
526.27
507.88
493.26
476.63
458.24
437.85
421.22
408.15
400.21
393.13
387.2
379.39
372.19
363.8
357.18
349.95
344.18
336.14
328.17
318.5
311.16
302.94
295.15
285.42
279.14
275.11
275.14
276.73
286.15
304.77
336.17
377.17
429.22
486.25
544.28
596.91
647.33
694.17
736.38
768.36
793.41
812.95
829.43
839.2
844.44
846.08
847.44
845.85
841.44
832.89
823.43
812.8
802.42
789.84
776.4
760.59
744.38
725.66
706.37
684.65
663.34
641.04
620.32
597.82
574.3
547.51
522.27
498.95
480.25
462.1
445.23
427.58
412.21
396.56
382.2
367.55
357.18
349.26
344.18
336.39
328.17
318.44
311.16
302.76
295.15
286
279.14
271.53
265.14
258.7
259.13
267.6
287.15
313.65
349.18
392.39
445.23
501.58
558.29
609.25
655.34
694.48
728.38
754.28
774.4
788.88
801.41
809.61
813.42
811.45
807.42
801.41
794.41
784.05
772.4
760.45
750.39
737.4
720.37
701.53
687.36
670.5
644.33
614.38
601.31
601.64
590.31
549.28
500.26
467.41
451.23
431.78
408.21
388.94
378.2
366.36
353.18
340.88
332.17
321.57
311.16
301.52
295.15
287.16
279.14
270.01
263.14
255
247.13
237.42
230.12
223.24
218.11
212.1
210.11
213.26
226.12
247.87
282.15
326.46
379.2
432.71
485.25
533.92
580.3
620.81
655.34
682.1
704.36
721.15
733.38
739.85
744.38
747.22
748.39
743.77
734.38
722.64
713.37
703.91
691.36
674.52
659.34
644.63
627.32
605.43
586.3
567.31
543.28
515.32
500.26
497.67
489.25
458.94
423.22
401.27
394.2
385
372.19
361.57
357.18
351.2
344.18
337.92
336.17
333.35
329.17
321.65
315.16
307
299.15
290.81
287.15
282.25
273.14
260.9
259.13
265.98
275.14
288.15
323.17
372.98
412.21
432.91
471.24
547.92
637.33
695.75
724.37
749.64
783.41
807.83
815.42
815.28
821.42
830.39
835.43
832.64
827.43
820
809.42
795.03
784.41
777.77
768.4
747.17
720.37
696.02
677.35
656.42
633.33
609.64
590.31
571.94
554.29
532.82
508.26
479.62
453.23
430.16
412.21
395.15
380.2
365.19
352.18
339.02
329.17
320.8
315.16
307.29
299.15
289.69
283.15
275.48
267.14
255.71
247.13
240.04
235.12
228.4
226.12
231.72
251.13
281.87
325.17
376.77
435.23
493.53
550.28
601.49
648.34
688.58
724.37
753.38
776.4
791.58
802.42
809.08
813.42
813.06
809.42
801.52
791.41
779.79
770.4
760.77
748.39
731.63
716.37
701.23
683.35
661.35
643.33
625.34
600.31
570
554.29
552.47
542.28
505.78
463.24
436.97
426.22
411.23
392.2
377.53
370.19
360.23
349.18
340.47
336.17
328.51
319.17
309.44
303.16
295.22
287.15
277.83
271.14
263.21
255.13
245.15
239.12
236.89
241.12
249.75
268.14
297.43
340.18
390.24
445.23
500.24
555.29
604.59
647.33
683.25
717.37
744.78
760.39
763.76
768.4
780.36
794.41
797.89
791.41
781.07
772.4
762.46
751.39
738.87
726.38
711.26
695.36
678.28
661.34
640.6
617.32
592
570.29
551.28
534.28
513.02
488.25
460.87
437.23
416.82
400.21
383.43
368.19
353
340.18
328.03
319.17
310.79
303.16
292.74
283.15
273.78
267.14
258.99
251.13
241.91
235.12
228.03
222.11
214.5
209.11
206.02
210.11
221.09
243.13
274.91
318.16
368.67
425.22
481.32
535.28
583.87
629.33
668.56
700.36
721.75
737.38
750.04
762.39
770.05
772.4
769.85
766.4
760.1
750.39
737.77
728.38
722.08
714.37
696.52
671.35
647.06
631.33
614.35
588.3
558.38
544.28
543.3
534.28
501.31
463.24
440.59
434.22
425.59
412.21
400.02
394.2
387.54
380.2
372.8
368.19
361.08
353.18
344.66
340.18
334.78
328.17
319.29
315.16
310.77
302.16
288.55
283.15
284.47
286.15
288.45
310.16
347.81
380.2
398.35
434.22
507.87
598.31
663.52
700.36
731.56
771.4
803.72
817.42
818.55
825.43
839.32
851.44
852.65
848.44
842.12
833.43
820.4
811.42
807.8
801.41
781.63
756.39
735.92
722.37
704.8
682.35
658.34
639.33
621.23
602.31
578.16
551.29
521.11
493.26
468.99
451.23
434.02
416.22
398.26
388.2
382.95
376.19
360.34
344.18
334.18
332.17
326.27
315.16
302.65
299.15
299
295.15
281.19
267.14
258.05
256.13
254.87
259.13
273.33
303.16
343.2
392.2
446.19
505.26
562.36
615.32
660.61
701.36
735.87
764.4
782.6
793.41
800.75
811.42
821.27
825.43
820.97
814.42
807.22
798.41
786.03
776.4
770.48
763.39
745.78
722.37
702.51
691.36
675.65
648.34
617.91
605.31
605.48
594.31
554.22
505.26
472.13
459.24
445.95
425.22
404.14
394.2
388.93
380.2
363.6
348.18
337.59
332.17
324.18
315.16
305.52
299.15
292.44
287.15
278.83
268.14
254.96
247.13
240.63
232.12
223.23
229.12
247.91
267.14
280.57
310.16
369.8
447.23
510.96
554.29
591.65
637.33
678.63
700.36
704.1
712.37
733.46
756.39
765.3
764.4
761.21
756.39
745.16
734.38
729.01
724.37
709.33
687.36
667.64
654.34
637.37
613.32
587.43
570.29
555.62
534.28
506.3
488.25
479.94
465.24
431.52
396.2
376
369.19
359.52
348.18
341.15
338.17
327.54
311.16
296.73
291.15
285.28
275.14
263.26
261.14
263.2
259.13
243.37
230.12
223.13
217.11
206.79
206.11
216.42
226.12
229.21
251.13
307.82
384.2
447.82
496.26
543.81
598.31
647.07
683.35
706.94
724.37
738.33
754.39
769.94
780.4
781.42
778.4
773.73
767.4
757.28
748.39
741.89
734.38
717.6
694.36
672.79
659.34
643.15
616.32
585.23
570.29
568.67
558.29
522.27
479.25
451.39
441.23
429.53
412.21
396.66
391.2
387.6
380.2
367.21
356.18
347.16
340.18
330.79
323.17
316.27
311.16
303.96
299.15
293.61
286.15
274.55
267.14
261.01
253.13
245.89
256.13
280.6
303.16
317.27
350.18
418.17
504.26
571.58
615.32
654.17
702.36
744.05
764.4
767.47
776.4
797.52
819.42
827.09
825.43
821.81
817.42
807.84
799.41
794.9
788.41
770.51
748.39
731.31
720.37
704.42
682.35
658.15
639.33
623.02
607.31
586.47
561.29
530.83
501.26
474.66
454.23
434.32
414.21
394.82
384.2
379.47
374.19
360.17
344.18
332.36
328.17
321.7
311.16
299.79
298.15
299.62
295.15
279.89
267.14
259.5
253.13
243.54
243.13
251.57
259.13
261.53
283.15
337.97
412.21
475.74
526.27
575.88
631.33
680.14
716.37
739.57
756.39
770.4
788.41
806.39
817.42
817.37
814.42
810.17
801.41
787.93
780.4
777.57
767.4
744.44
726.38
723.04
720.37
693.39
648.34
612.62
605.31
608.08
594.31
554.09
508.26
475.21
457.24
437.75
412.21
387.73
376.19
370.72
360.19
339.04
319.17
307.23
302.16
293.69
283.15
272.92
267.14
260.83
255.13
247.93
241.12
231.32
222.11
212.13
204.11
197.17
196.1
197.82
202.1
209.36
232.12
276.76
340.18
402.32
453.23
498.94
554.29
608.63
640.33
646.84
659.34
694.45
734.38
751.59
751.39
751.72
756.39
754.3
747.39
742.01
736.38
721.11
700.36
682.9
671.35
656.55
636.33
613.25
594.31
577.96
562.29
540.84
514.27
483.81
457.24
436.03
421.22
406.37
391.2
376.32
368.19
364.15
360.19
349.83
338.17
329.55
328.17
326.5
322.17
315.23
314.16
314.7
311.16
298.57
287.15
279.09
273.14
264.97
263.14
266.41
269.14
268.36
283.15
324.29
384.2
440.66
491.25
542.92
601.31
656.04
700.36
730.43
752.39
771.11
793.41
814.73
829.43
833.41
833.43
831.63
827.43
818.05
809.42
803.82
798.41
784.2
763.39
743.93
732.38
718.1
693.36
663.83
649.34
647.96
639.33
605.6
562.29
530.3
514.27
495.74
469.24
442.73
429.22
422.4
412.21
392.19
372.19
358.35
352.18
344.82
336.17
326.13
319.17
312.06
307.16
300.9
294.15
283.9
275.14
265.41
256.13
247.54
248.13
254.73
263.14
271.33
295.15
343.52
411.21
474.95
526.27
573.2
629.33
681.61
710.37
715.74
728.38
761.82
798.41
812.76
811.42
810.75
813.42
808.51
799.41
793.21
788.41
774.99
756.39
740.09
728.38
712.93
693.36
672.31
655.34
639.45
623.32
601.49
574.3
541.13
509.26
481.94
462.24
443.06
422.22
400.82
388.2
382.14
375.19
358.68
340.18
327.32
323.17
317.29
307.16
295.29
291.15
290.4
287.15
275.41
263.14
252.45
244.13
233.58
226.12
220.65
216.11
210.88
218.11
244.42
287.15
332.66
380.2
432.28
491.25
547.4
594.31
627.07
651.34
673.77
702.36
731.4
752.39
760.34
763.39
765.82
766.4
760.33
752.39
746.75
742.38
730.23
710.37
690.72
679.35
667.01
644.33
615.82
601.31
599.88
590.31
554.66
509.26
475.95
458.24
438.09
412.21
390.19
382.2
378.45
368.19
347.66
328.17
315.92
311.16
304.64
295.15
283.43
275.14
268.18
263.14
255.7
247.13
235.7
226.12
217.09
210.11
200.99
192.1
183.84
182.09
185.42
197.1
220.98
264.14
315.76
364.19
411.18
473.24
538.88
578.3
585.66
602.31
653.51
714.37
744.2
747.39
750.27
760.39
763.07
758.39
754.87
752.39
741.07
724.37
710.54
701.36
688.49
671.35
652.26
635.33
618.34
602.31
583.38
560.29
530.59
501.26
476.18
458.24
440.33
421.22
402.4
392.2
388.06
384.2
372.98
360.19
350.83
348.18
344.31
338.17
330.96
330.17
330.81
328.17
317.51
307.16
298.29
291.15
281.36
275.14
271.03
267.14
261.23
267.14
291.64
332.17
375.32
422.22
476.57
540.28
601.03
651.34
687.21
716.37
744.78
778.4
810.25
833.43
843.66
848.44
850.82
851.44
846.94
841.44
836.55
831.43
818.57
799.41
781.5
772.4
761.3
738.38
710.03
698.36
699.21
687.36
649.15
611.32
594.39
586.3
557.69
514.27
481.07
471.24
465.78
449.23
421.03
396.2
379.62
370.19
358.93
346.18
332.4
323.17
315.74
311.16
304.87
298.15
288.09
279.14
269.95
263.14
254.62
247.13
240.08
239.12
243.15
257.13
285.06
333.17
389.12
441.23
490.91
554.29
619.3
657.34
663.53
679.35
728.62
786.41
813.25
815.42
818.79
829.43
831.55
826.43
823.18
821.42
810.21
793.41
779.55
770.4
757.2
740.38
722.93
708.37
692.37
675.35
654.94
632.33
605.1
578.3
553.86
534.28
511.89
485.25
457.7
441.23
433.64
425.22
405.25
382.2
365.9
360.19
354.02
344.18
332.66
328.17
326.57
323.17
311.81
299.15
287.95
281.15
272.4
263.14
253.37
248.13
244.09
243.13
245.69
259.13
283.15
319.17
364.03
419.22
477.22
530.27
569.81
602.31
636.3
678.35
719.81
752.39
770.62
780.4
786.02
791.41
793.8
793.41
789.67
784.41
773.85
758.39
742.22
732.38
722.48
704.36
679.96
666.34
664.05
655.34
622.9
580.3
547.97
531.27
512.47
485.25
457.5
443.23
436.5
425.22
401.42
376.19
358.52
350.18
340.98
329.17
315.96
307.16
300.05
295.15
288.7
282.15
272.47
263.14
253.5
247.13
239.25
230.12
220.25
218.11
219.7
221.11
224.34
245.13
280.64
319.17
360.18
422.22
492.75
535.28
541.75
562.29
627.96
706.37
745.91
752.39
760.69
780.4
790.59
788.41
786.17
788.41
783.98
772.4
760.19
751.39
739.78
724.37
706.62
691.36
677.12
663.34
644.51
620.32
590.54
562.29
537.98
520.27
502.99
485.25
467.54
457.24
451.13
443.23
425.92
406.21
390.93
384.2
377.39
368.19
357.62
354.18
354.08
352.18
341.23
328.17
316.95
311.16
303.63
295.15
286.07
282.15
279.53
279.14
281.33
295.15
321.26
360.19
406.66
462.24
521.52
578.3
621.74
655.34
688.04
730.38
774.69
809.42
826.24
833.43
838.31
844.44
846.6
845.44
841.84
837.43
826.72
810.42
793.91
784.41
774.49
756.39
732.96
721.37
720.71
712.37
679.03
635.33
602.54
586.3
567.43
538.28
506.93
489.25
479.75
465.24
437.21
408.21
387.73
376.19
362.28
346.18
331.29
323.17
316.55
311.16
304.21
298.15
289
279.14
267.65
259.13
249.79
240.12
229.58
226.12
226.74
229.12
234.37
256.13
291.71
332.17
377.32
442.23
511.95
552.29
557.99
578.3
641.99
717.37
754.93
760.39
766.9
784.41
794.04
793.41
792.41
793.41
786.07
772.4
759.87
751.39
740.16
726.38
712.18
700.36
686.8
671.35
652.23
631.33
605.88
578.3
550.17
527.27
505.93
484.25
462.34
449.23
442.04
431.22
407.27
380.2
360.98
352.18
341.58
326.17
310.76
305.16
303.97
299.15
283.99
267.14
254.39
248.13
238.94
226.12
212.15
205.11
200.4
194.1
183.38
178.09
182.65
200.1
227.16
267.14
316.37
368.19
411.31
449.23
491.35
546.28
604.08
651.34
679.74
697.36
711.9
726.38
734.72
736.38
734.31
733.38
729.59
720.37
708.27
700.36
691.95
675.35
652.7
640.33
639.14
631.33
600.01
558.29
526.44
509.26
489.41
461.24
433.33
419.22
412.26
400.21
376.21
352.18
336.72
330.17
321.92
311.16
300.49
295.15
290.84
287.15
282.1
279.14
275.21
271.14
264.64
260.13
254.36
247.13
237.92
235.12
234.41
230.12
223.05
230.12
250.62
275.14
306.63
366.19
438.22
480.25
484.51
509.26
589.74
686.35
737.45
748.39
761
788.41
805.74
806.42
804.6
809.42
809.89
801.41
788.72
779.4
770.33
758.39
742.52
728.38
715.17
700.36
680.23
659.34
635.55
607.31
578.03
562.29
554.99
538.28
503.49
473.24
461.09
455.24
433.54
404.21
385.01
380.2
372.61
358.19
343.98
340.18
339.74
336.17
324.21
311.16
300.26
295.15
288.34
279.14
268.06
263.14
260.03
255.13
245.68
243.13
252.3
275.14
306.47
350.18
403.84
461.24
509.27
550.28
593.59
649.34
708.08
756.39
784.8
801.41
814.2
827.43
835.3
837.43
835.39
833.43
827.7
817.42
805.2
797.41
788.59
772.4
751.19
740.38
739.56
732.38
703.29
665.34
636.64
621.32
602.17
574.3
545.81
530.27
520.8
505.26
476.06
445.23
421.92
408.21
394.23
379.2
364.74
356.18
349.45
344.18
336.96
330.17
320.65
311.16
301.06
295.15
288.33
279.14
267.29
263.14
262.78
259.13
250.43
253.13
267.84
287.15
314.27
370.19
439.71
481.25
485.83
509.26
585.73
678.35
728.62
742.38
758.72
788.41
806.12
806.42
804.26
809.42
811.32
805.42
795.33
787.41
778.35
766.4
751.91
740.38
729.67
716.37
697.51
678.35
655.89
627.32
597.25
582.3
576.55
558.29
517.71
481.25
466.24
459.24
434.05
398.21
372.79
364.19
354.55
338.17
322.76
319.17
319.74
315.16
299.81
283.15
271.29
267.14
261.16
251.13
237.87
230.12
225.77
222.11
212.71
202.1
194.08
196.1
207.06
228.12
256.03
291.15
328.06
368.19
415.12
476.25
543.43
602.31
640.57
665.34
687.02
710.37
726.61
732.38
731.71
734.38
738.34
737.38
728.91
720.37
711.78
698.36
680.55
671.35
670.71
663.34
636.73
604.31
579.62
561.29
537.45
514.27
499.81
492.25
475.86
449.23
420.34
400.21
386.13
375.19
363.16
353.18
344.84
340.18
335.65
332.17
327.24
323.17
317.14
311.16
303.82
299.15
292.5
283.15
271.41
267.14
265.99
261.14
251.18
251.13
259.17
267.14
280.88
325.17
386.39
422.22
423.76
449.23
534.31
639.33
700.29
720.37
740.88
776.4
802.03
809.42
810.88
817.42
821.91
821.42
816.94
811.42
801.97
790.41
778.23
768.4
757.44
744.38
728.26
712.37
691.39
663.34
634.12
619.32
612.34
594.31
557.69
526.27
512.19
501.26
471.39
434.22
410.56
404.21
395.44
379.2
363.82
360.19
360.32
356.18
342.89
329.17
319.04
315.16
308.78
299.15
287.72
283.15
280.56
275.14
262.11
251.13
246.66
252.13
263.91
287.15
321.47
364.19
404.65
445.23
493.53
558.29
628.16
687.36
724.92
750.39
773.66
798.41
815.14
821.42
821.08
823.43
826.52
826.43
820.37
813.42
804.39
791.41
775.59
767.4
766.11
760.39
737.52
706.37
680.8
666.34
649.06
623.32
595.43
580.3
572.65
558.29
527.19
493.26
468.78
455.24
439.78
421.22
403.24
392.2
383.46
376.19
367.62
360.19
350.3
340.18
329.39
323.17
316.34
307.16
295.19
291.15
290.66
285.15
270.7
263.14
263.84
267.14
277.02
315.16
367.69
396.2
394.85
421.22
508.44
616.32
681.08
705.36
729.49
768.4
797.12
806.42
808.78
817.42
825.95
829.43
826.63
821.42
812.75
802.42
790.59
780.4
770.48
760.39
746.58
730.38
710.03
687.36
663.45
644.33
625.12
601.31
573.17
554.29
544.23
530.27
498.16
459.24
429.93
416.22
403.23
384.2
363.63
354.18
352.29
348.18
332.88
315.16
302.9
299.15
293.19
283.15
271.54
267.14
264.79
259.13
244.75
230.12
219.76
217.11
216.55
220.11
228.88
247.13
271.09
303.16
346.24
406.21
474.41
538.28
585.67
621.32
653.16
686.35
711.88
724.37
727.07
733.38
745.08
755.39
756.47
752.39
745.16
734.38
720.53
713.37
713.18
708.37
685.92
654.34
628.33
613.32
595.86
570.29
542.78
527.27
519.09
505.26
476.39
445.23
423.99
415.21
406.42
394.2
380.46
372.19
367.05
364.19
359.14
353.18
344.31
336.17
328.08
323.17
316.2
307.16
297.08
295.15
295.3
289.15
274.58
267.14
266.04
263.14
261.94
286.15
326.46
348.18
344.43
368.19
450.99
556.29
623.77
654.34
684.51
728.38
762.19
776.4
782.21
793.41
805.32
813.42
815.49
814.42
808.31
798.41
785.99
776.4
768.8
760.39
745.99
728.38
708.33
687.36
664.33
644.33
624.24
601.31
575.47
558.29
547.97
532.28
498.6
459.24
430
416.22
403.81
387.2
369.89
362.19
360.05
356.18
343.21
328.17
316.31
311.16
304.4
295.15
284.2
279.14
275.9
271.14
259.39
247.13
236.95
233.12
232.57
239.12
252.65
275.14
301.78
336.17
382.34
446.23
518.48
586.3
636.94
674.35
706.02
738.38
763.58
776.4
778.97
784.41
794.66
803.42
802.83
797.41
789.68
779.4
766.04
758.39
757.07
752.39
732.29
704.36
681.74
669.35
653.25
627.32
598.4
582.3
574.05
558.29
524.89
489.25
464.66
451.23
435.16
416.22
398.99
388.2
377.96
368.19
357.91
349.18
338.27
328.17
319.39
315.16
308.83
299.15
287.26
283.15
281.74
275.14
260.28
251.13
246.63
239.12
230.88
244.13
272.49
287.15
281.86
303.16
378.55
476.25
542.55
578.3
615.9
667.35
707.84
725.38
731.29
744.38
763.5
780.4
787.27
787.41
783.8
779.4
772.19
764.4
756.37
748.39
736.4
721.37
702.95
683.35
662.52
644.33
624.66
601.31
575.44
558.29
548.46
535.28
506.43
471.24
443.42
429.22
415.67
396.2
375.22
366.19
365.34
360.19
340.96
319.17
305.39
301.16
294.28
283.15
271.39
267.14
264.54
259.13
247.93
239.12
231.12
222.11
211.49
209.11
209.46
206.11
207.59
239.12
289.52
322.17
330.09
364.19
450.65
550.28
610.67
641.33
672.75
704.36
716.43
722.37
742.19
768.4
777.07
772.4
769.72
770.4
763.55
754.39
750.74
748.39
733.46
709.37
689.02
679.35
667.01
643.33
614.95
600.31
594.33
578.3
544
514.27
502.22
496.26
475.07
447.23
429.31
425.22
420.16
412.21
405.08
402.21
396.16
388.2
380.07
376.19
370.19
362.19
353.47
352.18
351.57
345.18
331.21
323.17
318.86
311.16
301.37
310.16
331.92
342.18
335.83
356.18
428.43
524.27
592.72
632.33
671.61
724.37
769.15
793.41
803.72
817.42
835.66
853.44
862.46
864.45
861.11
856.44
849.02
841.44
833.33
825.43
814.26
801.41
785.57
768.4
749.84
734.38
716.92
694.36
668.11
651.34
642.28
628.32
596.31
558.29
529.48
514.27
496.85
472.24
448.15
439.23
439.21
433.22
410.06
382.2
362.96
357.18
351.27
340.18
325.66
318.16
313.74
307.16
291.65
275.14
261.82
255.13
247.81
241.12
236.97
243.13
257.91
283.15
318.38
369.19
431.12
497.26
554.58
602.31
644.81
689.36
726.97
748.39
754.37
763.39
781.98
801.41
807.94
805.42
800.28
794.41
784.93
778.4
776.62
772.4
754.52
729.38
709.48
700.36
688.82
667.35
640.65
624.32
616.03
602.31
571.13
534.28
504.99
487.25
469.39
449.23
429.38
416.22
405.73
396.2
384.14
372.19
359.13
348.18
338.36
332.17
324.52
315.16
304
299.15
296.7
291.15
277.9
267.14
259.24
251.13
240.97
241.12
248.03
249.13
241.84
255.13
305.79
378.2
438.37
483.25
529.33
586.3
636.68
667.35
682.05
700.36
727.85
756.39
771.36
774.4
774.53
779.4
783.13
780.4
769.5
756.39
743.64
732.38
717.97
700.36
681.73
667.35
651.43
629.33
603.08
586.3
577.76
564.29
533.07
496.26
469.67
457.24
442.52
419.22
394.81
384.2
382.57
376.19
354.93
330.17
313.91
309.16
302.97
291.15
277.17
271.14
268.57
263.14
249.17
235.12
224.21
217.11
207.27
198.1
190.25
186.1
183.62
190.1
207.28
236.12
273.39
323.17
379.66
435.23
486
540.28
591.22
623.32
633.91
649.34
683.32
720.37
737.33
740.38
743.6
747.39
742.78
736.38
734.86
732.38
717.97
698.36
683.04
671.35
654.06
635.33
621.74
613.32
597.34
570.29
535.99
505.26
479.41
458.24
437.06
418.22
401.13
388.2
376.67
368.19
359.95
352.18
341.66
332.17
324.62
322.17
319.04
314.16
306.42
303.16
301.58
299.15
291.76
286.15
279.79
271.14
260.85
261.14
267.15
267.14
259.2
271.14
319.18
390.2
451.91
500.26
551.02
615.32
674.06
709.37
724.23
744.38
778.39
813.42
830.73
835.43
838.81
844.44
843.61
837.43
830.48
825.43
816.38
803.42
787.7
772.4
755.87
740.38
723.64
705.36
683.09
663.34
649.08
640.33
623.98
594.31
555.95
526.27
506.66
489.25
467.12
451.23
443.33
433.22
407.97
379.2
361.27
357.18
351.39
340.18
327.71
323.17
320.48
315.16
302.83
291.15
281.37
275.14
266.72
259.13
251.49
247.13
245.62
255.13
276.18
309.16
350.43
404.21
464.06
522.27
574.51
629.33
680.14
712.37
722.63
736.38
767.14
801.41
816.42
817.42
818.12
821.42
818.47
813.42
811.56
809.42
795.63
774.4
756.55
747.39
735.73
716.37
694.22
682.35
676.35
663.34
633.13
598.31
571.44
555.29
536.52
512.26
486.65
469.24
456.7
445.23
429.98
415.21
400.58
388.2
377.08
372.19
369.25
364.19
352.75
344.18
339.73
336.17
324.65
311.16
299.09
291.15
281.96
275.14
269.1
264.14
258.22
263.14
286.58
329.17
375.04
418.22
463.68
522.27
580.64
619.32
636.16
659.34
702.14
748.39
772.11
778.4
784
794.41
798.8
797.41
795.14
793.41
785.83
774.4
761.45
748.39
733.41
720.37
706.27
687.36
663.68
647.33
638.38
625.32
595.14
558.29
529.79
514.27
495.55
467.24
438.29
426.22
425.11
416.22
386.71
352.18
330.46
325.17
319.57
307.16
292.56
287.15
285.25
279.14
264.28
251.13
241.46
233.12
221.05
214.11
212.38
210.11
200.04
194.1
198.81
213.11
232.24
267.14
318.45
376.19
431.21
492.25
553.21
594.31
609.86
631.33
677.36
728.38
752.83
756.39
760.39
770.4
774.05
772.4
772.29
772.4
761.58
742.38
725.46
716.37
704.42
683.35
658.55
644.33
637.4
623.32
591.21
554.29
525.78
507.26
486.38
463.24
442.44
429.22
418.07
408.21
397.41
387.2
374.78
364.19
356.12
352.18
345.62
336.17
324.7
319.17
316.17
311.16
298.65
287.15
278.19
271.14
261.19
255.13
250.59
244.13
235.77
243.13
270.52
310.16
352.52
407.21
471.33
526.27
555.95
580.3
623.63
687.36
745.46
784.41
806.37
822.43
833.2
839.43
840.73
841.44
840.51
837.43
829.33
818.42
804.06
788.41
773.03
762.39
750.69
732.38
708.04
691.36
682.88
670.35
639.77
602.31
573.6
558.29
539.5
511.26
482.73
471.24
470.15
461.24
432.58
400.21
380.1
374.19
366.14
352.18
337.78
333.17
332.07
328.17
315.86
303.16
292.81
287.15
279.51
271.14
260.25
251.13
244.47
247.13
255.52
268.14
286.36
323.17
375.29
431.22
483.92
544.28
605.62
647.33
662.4
681.35
723
770.4
793.54
797.41
800.96
809.42
811.44
809.42
809.51
809.42
798
779.4
764.61
758.39
749.49
732.38
711.81
700.36
694.74
683.35
656.15
623.32
595.05
574.3
551.42
526.27
501.08
481.25
463.8
449.23
433.53
416.22
394.89
376.19
362.94
356.18
347.91
337.17
325.17
319.17
315.52
310.16
297.11
283.15
272.08
267.14
259.88
249.13
237.03
233.12
232.58
230.12
225.89
235.12
258.6
289.15
323.96
376.19
437.77
484.25
506.98
538.28
597.59
663.34
700.1
713.37
726.67
746.39
757.74
760.39
761.92
764.4
761.09
754.39
745.27
732.38
716.82
709.37
707.03
695.36
667.86
643.33
632.31
623.32
596.97
561.29
533.38
518.27
499.15
471.24
444.76
435.23
435.26
429.22
407.67
384.2
370.73
368.19
362.86
352.18
340.53
336.17
333.46
328.17
316.9
307.16
299.77
295.15
287.25
279.14
270.16
263.14
256.39
255.13
255.72
257.13
261.61
283.15
319.77
362.19
406.48
465.24
529.4
574.3
592.7
619.32
674.75
737.38
771.07
780.4
788.62
803.42
811.1
811.42
811.66
813.42
806.37
791.41
777.22
770.4
761.69
744.38
723.07
712.37
708.3
695.36
665.45
635.33
613.2
592.31
565.37
548.28
545.03
538.28
509.04
473.24
450.05
438.23
419.25
396.2
380.56
376.19
370.02
360.19
350.72
348.18
345.92
341.18
330.4
319.17
308.64
303.16
296.2
286.15
273.6
269.14
268.97
267.14
262.46
271.14
295.38
328.17
365.68
421.22
486.61
536.28
559.89
590.31
649.05
716.37
755.7
770.4
783.19
802.42
814.19
817.42
818.85
821.42
817.3
807.42
795.25
784.41
773.14
763.39
751.86
736.38
717.35
704.36
696.64
685.35
659.02
625.32
597.12
582.3
568.26
546.28
519.32
503.26
495.42
481.25
449.6
415.21
391.8
380.2
367.93
356.18
348.56
346.18
339.18
328.17
315.56
307.16
298.79
291.15
282
275.14
267.02
259.13
250.6
247.13
244.24
241.12
241.26
259.13
291.74
329.17
369.04
426.22
491.73
538.28
556.5
582.3
639.24
706.37
744.8
756.39
764.89
780.4
789.89
791.41
791.5
793.41
788.22
775.4
761.72
754.39
746.68
732.38
714.07
704.36
700.01
687.36
659.31
631.33
610.07
588.3
560.1
542.28
538.5
530.27
498.81
461.24
437.68
426.22
407.51
384.2
367.75
361.19
351.41
337.17
324.15
319.17
315.99
311.16
300.26
287.15
273.89
267.14
262.1
255.13
244.26
239.12
236.7
230.12
216.08
209.11
212.5
222.11
237.82
275.14
326.46
366.19
386.03
421.22
492.41
574.3
625.53
649.34
671.55
701.36
722.89
732.38
736.38
740.38
741.31
742.38
743.35
740.38
729.67
718.37
708.81
697.36
680.62
667.35
659.38
648.34
622.41
589.3
561.99
546.28
528.83
503.26
475.7
462.24
459.54
453.23
431.76
407.21
391.57
386.2
378.65
368.19
359.13
357.18
355.85
352.18
343.69
336.17
328.32
321.17
312.39
307.16
300.76
291.15
279.96
279.14
280.25
271.14
258.22
271.14
303.26
321.17
321.67
356.18
439.2
518.27
548.42
569.29
629.88
712.37
760.58
772.4
782.96
806.42
821.48
822.43
820.98
825.43
825.7
818.42
808.38
802.42
794.67
780.4
762.34
752.39
747.89
736.38
710.29
683.35
661.94
640.33
612.66
594.31
589.31
582.3
554.46
518.27
490.47
472.24
448.32
421.22
400.38
390.2
379.3
365.19
350.92
344.18
340.43
336.17
325.8
314.16
303.68
299.15
292.9
282.15
268.16
263.14
263.1
259.13
246.69
241.12
245.95
257.13
275.72
319.17
377.71
421.22
440.97
477.25
551.89
635.33
685.05
709.37
733.52
758.39
766.76
768.4
779.71
797.41
802.68
797.41
791.9
788.41
779.17
767.4
756.75
746.39
732.02
720.37
713.32
704.36
681.24
649.34
621.5
607.31
594.99
574.3
546.56
528.27
519.06
505.26
474.61
441.23
419.78
411.21
400.03
384.2
369.75
364.19
361.03
356.18
346.19
336.17
326.28
319.17
310.94
303.16
292.8
283.15
274.37
271.14
266.15
255.13
239.67
235.12
241.64
253.13
269.65
307.16
357.76
396.2
414.31
447.23
516.36
598.31
651.19
675.35
696
725.38
747.62
755.39
755.69
760.39
767.3
771.4
767.6
758.39
746.29
736.38
729.12
724.37
715.99
700.36
676.11
651.34
629.97
612.32
591.71
569.29
546.11
526.27
507.24
489.25
467.81
443.23
415.45
392.2
375.52
365.19
353.71
341.18
329.14
323.17
319.37
314.16
301.86
287.15
273.74
267.14
260.59
251.13
239.11
235.12
235.01
230.12
215.34
204.11
199.47
198.1
200.24
222.11
258.39
287.15
301.55
336.17
411.92
505.26
572.9
612.32
646.27
687.36
722.33
744.38
756.03
764.4
769.76
775.4
779.71
780.4
774.79
767.4
758.36
746.39
731.19
720.37
713.96
704.36
680.9
649.34
622
607.31
593.3
570.29
541.49
524.27
516.43
501.26
466.36
429.22
407.74
402.21
394.15
380.2
367.67
365.19
364.8
360.19
348.07
336.17
326
319.17
310.62
303.16
294.65
287.15
278.9
275.14
269.91
259.13
243.63
239.12
245.77
257.13
273.91
314.16
369.55
412.21
433.48
472.24
551.51
644.33
704.26
732.38
757.18
791.41
816.22
823.43
822.87
829.43
839.26
844.44
840.46
833.43
824.62
813.42
799.42
790.41
785.54
776.4
754.39
728.38
706.49
689.36
668.29
645.33
621.28
598.31
575.92
562.29
553.67
538.28
503.38
461.24
430.65
421.22
417.05
404.21
381.25
364.19
357.72
356.18
346.55
332.17
319.59
315.16
309.46
299.15
286.44
283.15
283.74
279.14
264.95
255.13
250.74
247.13
245.99
267.14
305.5
336.17
350.25
384.2
459.48
550.28
612.64
648.34
682.45
724.37
757.15
776.4
787.83
797.41
802.36
807.42
813.53
817.42
812.61
803.42
793.04
782.4
769.7
760.39
754.45
746.39
726.75
700.36
677.02
663.34
647.1
620.32
589.31
574.3
572.4
562.29
526.35
481.25
449.16
435.23
421.11
400.21
379.06
369.19
364.36
356.18
340.93
328.17
318.86
310.16
297.8
291.15
289.98
287.15
273.36
259.13
249.84
243.13
231.1
222.11
217.5
214.11
211.3
225.12
253.49
279.14
294.67
328.17
396.23
479.25
540.3
578.3
614.32
659.34
695.36
710.37
711.85
720.37
738.5
755.39
760.19
758.39
754.75
748.39
736.22
726.38
722.08
716.37
698.68
675.35
655.59
641.33
623.25
601.31
578.09
558.29
539.17
522.27
504.27
484.25
459.52
437.23
420.67
411.21
401.29
390.2
378.55
372.19
368.52
365.19
356.51
346.18
336.44
332.17
327.65
321.17
311.55
307.16
305.63
303.16
293.87
285.15
277.97
273.14
269.3
275.14
287.14
299.15
312.06
348.18
414.42
493.26
555.99
602.31
644.82
691.36
731.53
760.39
777.19
788.41
797.45
810.42
823.12
829.43
825.23
818.42
812.27
805.42
794.14
784.41
778.26
771.4
753.62
728.38
705.22
691.36
674.99
648.34
618.24
605.31
605.11
594.31
556.27
511.26
481.5
468.24
451.71
429.22
408.91
399.21
393.33
388.2
380.46
372.19
361.01
352.18
346.61
346.18
342.07
332.17
317
307.16
300.84
294.15
282.51
275.14
271.22
268.14
266.69
282.15
310.74
336.17
352.04
386.2
455.55
542.28
607.29
643.33
668.45
700.36
730.96
751.39
762.36
776.4
793.74
807.42
809.96
807.42
803.49
797.41
785.68
775.4
769.84
764.4
749.22
728.38
709.21
695.36
678.89
658.34
634.9
615.32
598.19
582.3
560.96
534.28
502.4
473.24
449.5
433.22
417.33
400.21
382.5
372.19
367.15
362.19
349.85
336.17
326.19
323.17
317.55
307.16
294.72
291.15
291.32
287.15
273.75
263.14
256.43
249.13
238.55
239.12
250.38
260.13
263.62
287.15
345.33
421.22
482.18
527.27
571.35
621.32
664.21
695.36
716.14
732.38
745.04
759.39
772.71
780.4
779.63
778.4
777.68
772.4
758.19
744.38
737.12
732.38
717.61
694.36
673.54
663.34
650.43
624.32
593.44
581.3
582.62
570.29
530.53
491.25
474.62
469.24
446.68
412.21
388.84
386.2
384.92
372.19
350.09
332.17
320.76
314.16
305.25
295.15
283.63
275.14
267.73
263.14
256.28
247.13
234.7
226.12
219.14
212.11
203.06
201.1
205.91
214.11
222.96
247.13
295.41
362.19
424.17
473.24
518.65
574.3
626.8
655.34
659.82
671.35
704.53
741.38
756.27
755.39
754.76
756.39
751.12
744.38
741.39
736.38
721.17
704.36
690.77
674.35
651.06
636.33
633.95
627.32
598.88
562.29
534.27
514.27
487.16
457.24
435.39
425.22
413.78
398.21
382.98
376.19
372.9
368.19
357.34
346.18
338.09
336.17
332.06
323.17
311.2
307.16
307.09
303.16
288.82
275.14
265.73
259.13
250.14
247.13
248.76
249.13
246.62
263.14
310.01
376.19
435.92
487.25
539.89
600.31
656.48
700.36
728.55
748.39
765.9
788.41
810.68
825.43
827.75
825.43
822.59
819.42
812.3
805.42
800.02
793.41
777.56
755.39
735.41
724.37
710.69
685.35
654.98
641.33
641.33
631.33
594.35
550.28
519.44
501.26
479.17
457.24
444.25
439.23
426.1
404.21
381.73
368.19
358.54
350.18
339.98
332.17
324.65
319.17
312.37
307.16
299.71
291.15
279.61
271.14
263.16
256.13
249.35
251.13
258.38
267.14
276.24
303.16
356.93
430.22
497.49
550.28
597.86
654.34
706.32
734.38
739.41
752.39
786.15
822.43
835.83
833.43
831.65
833.43
828.62
821.42
817.66
813.42
797.74
776.4
759.71
750.39
737.94
720.37
700.1
683.35
667.29
651.34
631.2
608.31
581.08
554.29
528.63
507.26
485.35
463.24
441.9
429.22
422.41
415.21
399.06
380.2
365.58
360.19
355.45
348.18
338.28
334.17
332.34
328.17
315.79
303.16
292.6
285.15
275.17
267.14
260.3
255.13
249.67
255.13
277.14
315.16
357.51
403.21
453.49
511.26
567.56
615.32
647.96
671.35
693.3
722.37
751.75
772.4
779.87
783.41
786.89
788.41
783.06
776.4
771.75
766.4
751.5
730.38
712.68
704.36
693.21
670.35
642.35
629.33
628.85
619.32
583.42
538.28
506.51
492.25
475.46
449.23
422.11
408.21
401.83
392.2
372.46
352.18
337.69
330.17
321.24
311.16
301.05
295.15
288.99
283.15
275.54
269.14
260.32
251.13
240.94
235.12
230.6
226.12
218.22
214.11
216.32
229.12
253.3
294.15
343.24
392.2
441.72
504.26
567.26
604.31
611.49
627.32
674.17
729.38
756.22
759.39
762.57
772.4
774.94
770.4
766.71
764.4
753.56
736.38
720.43
709.37
696.17
679.35
660.09
643.33
627.18
611.32
591.39
568.29
540.87
514.27
490.38
473.24
457.59
441.23
423.31
412.21
407.45
404.21
393.63
380.2
369.04
364.19
357.98
349.18
339.19
336.17
335.72
332.17
320.15
309.16
301.27
295.15
285.35
279.14
274.37
267.14
258.59
267.14
292.68
323.17
356.72
414.21
484.94
530.27
538.17
558.29
622.68
700.36
742.65
759.39
782.56
813.42
826.36
823.43
822.12
826.43
822.88
813.42
806.82
803.42
791.28
771.4
753.53
744.38
733.05
712.37
688.06
677.35
676.92
667.35
633.07
590.31
558.91
542.28
521.95
493.26
464.99
450.23
442
429.22
405.1
380.2
362.39
354.18
346.18
336.17
323.85
315.16
307.96
303.16
296.62
290.15
280.67
271.14
259.91
251.13
242.29
235.12
227.84
226.12
228.89
239.12
259.5
298.15
346.96
396.2
445.82
509.26
574.01
612.32
619.38
635.33
684.08
742.38
771.45
775.4
778.61
788.41
790.86
786.41
782.88
780.4
769.14
752.39
738.22
729.38
717.83
702.36
685.21
671.35
657.86
643.33
623.59
600.31
572.94
546.28
521.93
503.26
484.15
462.24
439.09
425.22
418.25
408.21
385.49
360.19
343.17
336.17
326.12
310.16
294.28
289.15
288.61
283.15
265.88
247.13
233.93
228.12
219.12
206.11
192.33
186.1
182.53
178.09
171.59
174.09
189.09
217.11
253.37
301.16
356.7
412.21
456.21
493.26
532.9
582.3
631.81
671.35
695.32
710.37
721.64
732.38
738.76
740.38
737.91
734.38
726.44
713.37
699.13
691.36
685.04
671.35
650.19
636.33
631.04
619.32
586.65
546.28
516.37
500.26
480.79
453.23
426.02
412.21
405.81
396.2
376.44
356.18
342.24
336.17
329.6
322.17
314.69
311.16
307.15
303.16
297.84
295.15
291.5
287.15
280.32
277.14
274.99
272.14
265.6
263.14
262.58
261.14
260.2
275.14
303.86
336.17
373.11
434.22
506.14
550.28
557.26
578.3
646.04
728.38
772.3
782.4
792.76
813.42
824.02
822.43
821.27
825.43
822.24
809.42
794.92
786.41
776.33
759.39
739.65
728.38
719.22
700.36
673.32
659.34
656.25
639.33
596.59
558.29
543.51
534.28
503.01
465.24
446.76
446.23
435.13
408.21
379.87
364.19
354.9
348.18
342.19
340.18
335.87
328.17
316.16
307.16
299.16
291.15
279.37
271.14
266.22
263.14
254.99
247.13
241.95
243.13
248.86
269.14
311.26
375.19
439.48
489.25
527.62
574.3
626.45
666.34
686.94
712.37
754.38
795.41
810.58
809.42
812.05
821.42
822.25
814.42
806.19
801.41
794.08
784.41
770.85
752.39
731.47
720.37
716.18
704.36
675.05
643.33
619.9
600.31
571.6
542.28
524.5
518.27
502.29
469.24
431.77
412.21
407.01
399.21
378.71
361.19
356.06
356.18
344.93
328.17
316.77
314.16
307.25
295.15
282.87
279.14
277.06
271.14
256.63
243.13
236.48
240.12
243.86
243.13
238.18
247.13
286.95
360.19
432.84
473.24
489.56
530.27
610.73
694.36
738.8
754.39
769.22
788.41
795.51
794.41
797.46
805.42
805.04
797.41
790.84
787.41
776.01
755.39
735.94
728.38
722.23
704.36
677.81
663.34
658.95
643.33
607.55
578.3
567.59
554.29
514.38
469.24
448.55
450.23
441.25
412.21
379.03
360.19
350
340.18
328.01
321.17
317.36
311.16
296.84
283.15
273.74
267.14
256.06
247.13
242.2
239.12
230.64
222.11
211.51
198.1
188.83
202.1
226.51
235.12
227.19
247.13
313.03
388.2
427.78
447.23
485.67
550.28
609.37
648.34
677.19
708.37
733.34
744.38
744.55
746.39
749.97
748.39
738.08
728.38
721.86
712.37
695.55
682.35
676.4
667.35
643.67
615.32
591.57
569.29
538.56
509.26
493.08
488.25
474.17
445.23
413.04
396.2
390.76
383.2
364.81
348.18
342.21
344.18
339.36
328.17
318.63
319.17
320.43
315.16
302.57
295.15
292.07
287.15
274.91
267.14
264.73
261.14
251.68
251.13
259.57
267.14
275.58
311.16
368.43
411.21
426.68
461.24
541.33
631.33
683.55
712.37
749.1
788.41
802.65
801.41
808.66
825.43
832.04
829.43
827.64
826.43
815.07
799.41
790.72
788.41
774.37
744.38
714.95
706.37
706
687.36
645.62
612.32
600.88
590.31
555.45
514.27
492.79
489.25
474.09
441.23
406.86
388.2
378.09
368.19
355.92
349.18
345.54
340.18
327.34
315.16
306.06
299.15
287.83
279.14
275.26
275.14
269.23
259.13
244.15
230.12
223.27
235.12
256.12
269.14
268.28
283.15
340.64
433.22
512.02
548.28
563.58
607.31
682.35
746.39
768.04
772.4
789.47
813.42
819.61
814.42
814.27
817.42
809.72
797.41
789
780.4
765.02
754.39
750.94
740.38
713.73
691.36
683.54
673.35
639.23
598.31
576.94
576.3
565.04
530.27
488.04
465.24
458.04
447.23
421.84
399.21
391.36
392.2
382.41
364.19
350.38
350.18
350.95
344.18
330.52
323.17
320.17
315.16
302.93
295.15
292.57
289.15
279.16
275.14
276.44
275.14
274.13
299.15
345.5
380.2
391.15
421.22
494.29
578.3
630.58
665.34
708.9
752.39
768.26
768.4
778.86
801.41
813.74
813.42
810.61
809.42
801.48
790.41
784.41
784.41
775.33
752.39
728.48
722.37
723.73
708.37
670.89
640.33
629.37
619.32
588.48
554.29
537.12
531.27
512.7
485.25
465.33
457.24
442.32
415.21
385.73
369.19
362.11
356.18
344.09
332.17
322.44
315.16
304.51
295.15
288.85
287.15
281.37
271.14
258.09
251.13
247.69
245.13
239.58
237.12
235.61
239.12
260.61
315.16
378.1
412.21
421.44
461.24
547.51
629.33
659.49
667.35
696.03
736.38
750.29
744.38
747.65
763.39
769.24
764.4
759.79
756.39
746.38
737.38
734.14
728.38
709.4
687.36
670.56
655.34
632.54
611.32
598.51
590.31
572.96
550.28
530.64
518.27
501.98
479.25
454.85
441.23
437.3
437.23
430.89
421.22
412.35
410.21
408.43
404.21
396.05
392.2
389.43
384.2
373.38
368.19
367.22
364.19
354.1
350.18
350.86
348.18
344.37
364.19
401.68
426.22
429.47
457.24
531.91
619.32
676.04
718.37
772.2
825.43
846.11
847.44
860.32
890.46
912.28
918.48
917.78
919.48
918.49
916.47
915.35
914.47
902.9
881.46
861.54
857.44
858.33
845.44
813.81
787.41
776.52
768.4
742.97
712.37
694.38
690.36
676.87
647.33
612.36
590.31
577.62
566.29
550.49
539.28
532.67
526.27
511.87
497.26
486.82
481.25
470.28
457.24
447.43
447.23
443.66
429.22
406.88
396.2
395.18
391.2
377.69
372.19
373.07
368.19
365
402.21
474.51
531.27
548.48
578.3
653.37
732.38
761.25
764.4
787.47
825.43
839.03
833.43
835.87
849.44
852.13
845.44
840.5
837.43
826.45
815.42
810.56
805.42
787.47
764.4
746.33
734.38
716.65
695.36
679.42
674.35
662.38
631.33
589.83
566.29
562.25
555.29
527.01
496.26
481.49
477.25
460.16
433.22
414.48
414.21
415.03
404.21
384.08
372.19
368.73
364.19
349.25
336.17
330.44
328.17
319.41
311.16
301.85
287.15
271.82
279.14
301.2
309.16
301.21
323.17
384.97
441.23
461.99
492.25
566.57
647.33
677.27
673.35
686.07
724.37
751.8
756.39
754.55
759.39
761.91
759.39
756.59
756.39
748.13
728.38
707.57
701.36
701.32
687.36
656.29
633.33
626.48
615.32
582.52
550.28
539.11
538.28
521.16
492.25
467.77
449.23
420.41
384.2
355.68
344.18
337.01
323.17
300.33
279.14
265.14
260.13
256.5
251.13
241.63
233.12
223.9
214.11
202.24
194.1
185.13
172.09
157.43
154.08
153.43
142.07
129.94
150.08
192.5
214.11
211.76
247.13
340.53
430.22
463.42
481.25
534.46
598.31
619.17
612.32
625.8
661.34
679.04
671.35
664.12
670.35
673.02
662.34
648.41
643.33
638.48
620.32
591.63
572.3
565.54
554.29
526.98
499.26
479.14
453.23
410.4
372.19
355.99
350.18
331.64
307.16
291.73
283.15
264.3
239.12
222.94
222.11
222.12
214.11
200.38
192.1
188.78
186.1
177.86
170.09
165.92
166.09
161.53
152.08
140.11
133.07
128.28
125.06
121.73
125.06
136.39
158.08
188.46
232.12
287.86
353.18
419.67
485.25
545.96
601.31
649.24
693.36
731.54
760.39
775.43
782.4
787.26
793.41
796.1
793.41
785.29
775.4
763.78
751.39
737.59
724.37
710.08
694.36
674.77
654.34
633.01
611.32
583.69
552.29
521.86
501.26
485.2
465.24
434.59
404.21
384.28
378.2
373.63
364.19
349.92
340.18
335.05
332.17
325.5
319.17
314.47
313.16
307.89
299.15
288.5
283.15
278.49
271.14
257.76
247.13
241
239.12
235.46
235.12
241.76
261.14
292.31
340.18
402.52
473.24
536.49
586.3
623.78
659.34
694.13
726.38
750.7
770.4
785.85
797.41
801.66
802.42
801.33
799.41
793.1
784.41
773.96
763.39
750.72
738.38
725.49
712.37
695.94
679.35
661.8
644.33
623.43
602.31
580.54
560.29
537.99
516.27
494.81
477.25
460.7
446.23
431.37
419.22
408.25
400.21
391.66
384.2
375.97
370.19
364.39
360.19
353.97
348.18
340.53
334.17
326.23
319.17
310.38
303.16
295.37
290.15
285.82
287.15
295.03
315.16
346
388.2
436.32
489.25
540.92
590.31
634.69
677.35
714.73
744.38
762.61
775.4
785.39
794.41
799.11
801.41
799.49
793.41
783.64
776.4
769.32
756.39
734.94
716.37
706.5
700.36
685.45
663.34
639.9
620.32
599.46
577.3
553.19
530.27
505.65
481.25
456.17
433.22
409.97
388.2
366.57
348.18
331.55
318.16
305.34
295.15
285.92
279.14
271.05
263.14
253.88
247.13
240.54
235.12
226.73
218.11
208.62
202.1
195.21
189.1
182.83
183.09
191.21
210.11
237.12
275.14
322.88
380.2
439.6
497.26
548.02
593.31
632.04
666.34
694.16
716.37
731.02
740.38
745.03
748.39
749.51
748.39
742.7
734.38
723.93
713.37
700.94
687.36
671.51
655.34
636.89
617.32
595.38
574.3
552.28
530.27
506.15
484.25
464.69
449.23
433.41
418.22
402.89
391.2
380.78
372.19
363.2
357.18
352.32
349.18
344.12
340.18
335.92
333.17
327.78
322.17
314.39
307.16
297.04
287.15
277.02
271.14
266.16
263.14
261.36
269.14
288.82
323.17
367.42
421.22
478.06
535.28
589.07
643.33
694.11
736.38
764.14
784.41
802.22
819.42
829.61
833.43
832.68
831.43
827.53
821.42
812.09
801.41
787.71
772.4
755.54
740.38
724.9
708.37
687.41
665.34
642.51
621.32
598.15
574.3
548
522.27
495.67
471.24
447.14
425.22
403.29
384.2
366.52
352.18
338.67
328.17
318.29
310.16
300.25
291.15
281.61
275.14
268.57
263.14
255.02
247.13
237.75
230.12
220.85
212.11
203.22
201.1
207.41
226.12
254.11
293.15
341.34
400.21
463.32
526.27
582.23
632.33
675.4
713.37
743.76
768.4
785.73
797.41
802.66
805.42
806.08
805.42
800.1
791.41
780.36
770.4
759.92
748.39
733.08
716.37
698.3
681.35
662.68
643.33
621.52
600.31
577.43
554.29
528.76
505.26
483.89
467.24
451.4
437.23
422.99
412.21
402.8
395.2
385.56
376.19
366.6
360.19
353.79
348.18
340.41
334.17
327.8
323.17
315.66
307.16
296.68
289.15
281.76
275.14
267.07
264.14
267.64
281.15
302.73
336.17
378.27
427.22
477.8
532.28
586.32
635.33
672.44
702.36
727.99
751.39
768.16
780.4
788.54
794.41
795.57
794.41
790.47
784.41
774.27
763.39
752.25
741.38
727.51
712.37
695.47
678.35
658.22
637.33
615.11
594.31
572.43
551.29
529.08
508.26
486.33
465.24
443.76
425.22
407.21
390.2
371.81
356.18
343.24
334.17
324.39
315.16
305.55
299.15
293.35
289.15
282.41
275.14
266.01
259.13
251.29
243.13
232.75
226.12
222.31
222.11
223.29
233.12
253.87
287.15
327.63
376.19
429.43
485.25
537.07
585.3
627.5
663.34
689.4
709.37
724.89
738.38
747.06
752.39
754.45
755.39
752.93
747.39
738.21
728.38
717.26
705.36
690.73
675.35
657.9
639.33
617.73
596.31
574.08
552.29
528.25
505.26
482.89
463.24
443.44
426.22
411.09
400.21
389.48
379.2
368.07
360.19
353.59
348.18
339.96
332.17
324.1
318.16
310.42
303.16
294.41
287.15
278.46
271.14
262.54
255.13
247.11
243.13
242.17
248.13
262.14
291.15
332.53
383.2
436.87
496.26
557.47
615.32
661.64
700.36
734.05
764.4
786.22
801.41
811.09
818.42
821.76
823.43
822.07
817.42
807.21
795.41
784
774.4
762.55
748.39
731.27
714.37
696.01
677.35
656.23
635.33
612.75
590.31
565.82
542.28
517.61
493.26
467.01
443.23
422.22
406.21
390.72
376.19
361.39
350.18
340.28
332.17
322.63
315.16
308.2
303.16
295.31
287.15
277.76
271.14
263.32
255.13
244.34
236.12
229.22
226.12
226.27
237.12
259.41
294.15
336.52
388.2
445.09
504.26
559.41
612.32
660.04
700.36
728.96
751.39
770.18
786.41
795.8
801.41
804.86
807.42
804.68
797.41
786.69
776.4
765.75
755.39
742.66
728.38
711.51
695.36
678.73
662.34
642.49
621.32
598.72
578.3
556.73
534.28
509.58
488.25
469.58
453.23
434.39
416.22
399.58
387.2
375.2
364.19
352.27
342.18
331.74
323.17
314.2
307.16
298.87
291.15
281.26
272.14
261.21
251.13
240.18
232.12
224.17
218.11
213.47
218.11
234.02
263.14
299.78
344.18
393.86
449.23
503.52
554.29
598.68
640.33
677.23
708.37
730.2
746.39
758.14
767.4
771.59
772.4
769.51
764.4
755.84
746.39
735.73
724.37
710.15
695.36
679.5
663.34
643.89
623.32
601.26
580.3
558.09
536.28
512.55
489.25
465.69
446.23
429.58
416.22
401.76
388.2
375.32
366.19
357.19
348.18
336.99
328.17
321.17
317.16
310.75
303.16
293.59
287.15
281.12
276.14
268.84
263.14
256.74
251.13
244.71
244.13
249.63
263.14
282.76
315.16
360.36
416.22
473.28
530.27
584.28
635.33
678.75
716.37
747.06
772.4
790.66
805.42
815.66
821.42
820.84
818.42
814.75
809.42
799.21
787.41
775.21
763.39
748.47
732.38
714.9
697.36
676.33
654.34
631.66
611.32
589.41
566.29
540.11
515.27
490.92
469.24
447.91
430.22
414.89
403.21
391.17
380.2
368.81
360.19
352.08
346.18
338.96
332.17
323.03
315.16
307.22
302.16
295.2
287.15
276.2
268.14
260.87
255.13
249.08
251.13
264.02
290.15
324.3
368.19
419.43
477.25
534.18
589.3
639.68
686.35
724.97
756.39
779.9
799.41
813.55
823.43
827.58
829.43
828.52
825.43
817.26
806.42
794.44
784.41
773.34
760.39
744.11
728.38
712.12
695.36
674.67
653.34
630.93
609.32
585.39
562.29
539.3
518.27
495.24
472.24
448.89
429.22
411.31
396.2
380.47
366.19
352.8
344.18
337.41
332.17
323.77
315.16
305.76
299.15
291.19
283.15
273.41
267.14
261.11
255.13
246.29
241.12
239.76
244.13
253.08
275.14
311.7
361.19
414.79
472.24
530.09
586.3
634.88
678.35
715.61
746.39
767.54
784.41
798.44
809.42
812.64
811.42
808.28
805.42
799.47
791.41
781.12
770.4
757.5
744.38
730.29
716.37
699.58
681.35
660.36
639.33
616.57
594.31
570.2
546.28
520.82
497.26
474.62
455.24
436.03
418.22
399.93
384.2
369.4
357.18
345.31
336.17
327.24
319.17
308.65
299.15
289.84
283.15
275.05
267.14
256.75
247.13
237.09
230.12
222.18
214.11
206.51
208.11
218.17
235.12
256.43
291.15
340.53
399.21
454.91
507.26
556.24
602.31
640.55
673.35
700.39
721.37
733.04
740.38
746.49
752.39
753.43
750.39
744.02
736.38
725.64
713.37
699.67
686.35
671.37
655.34
636.36
616.32
594.31
573.3
551.63
530.27
505.99
481.25
456.21
435.23
416.37
400.21
383.84
370.19
358.17
349.18
339.89
332.17
325.06
321.17
317
313.16
307.32
303.16
298.12
293.15
285.35
279.14
272.74
267.14
258.85
252.13
245.64
241.12
237.54
243.13
260.2
290.15
327.58
374.19
427.28
485.25
541.47
596.31
646.36
690.36
724.35
752.39
775.14
793.41
803.74
809.42
811.94
813.42
810.9
805.42
796.59
786.41
773.65
760.39
746.2
732.38
715.86
697.36
675.99
655.34
633.78
612.32
588.62
566.29
543.87
522.27
498.21
475.25
453.11
434.22
415.79
400.21
385.8
374.19
362.76
354.18
346.42
340.18
331.47
323.17
314.14
307.16
298.69
291.15
282.31
275.14
266.68
259.13
248.96
239.12
230.48
230.12
236.2
249.13
268.45
303.16
352.8
412.21
470.58
528.27
583.61
635.33
677.77
714.37
745.59
771.4
787.32
797.41
804.14
809.42
809.58
806.42
800.48
793.41
783.01
771.4
758.95
747.39
734.23
720.37
704.14
687.36
668.29
649.34
628.49
607.31
583.47
560.29
537.04
516.27
494.58
473.24
450.77
431.22
413.54
399.21
384.79
372.19
360.34
352.18
344.59
338.17
329.96
323.17
315.58
309.16
301.13
295.15
288.72
283.15
274.71
267.14
259.05
253.13
247.29
247.13
253.98
272.14
299.16
337.17
383.18
437.23
493.72
551.29
604.13
651.34
690.24
724.37
752.6
775.4
789.88
799.41
805.11
809.42
809.63
806.42
799.12
790.41
779.68
768.4
755.09
741.38
726.48
712.37
696.58
679.35
658.26
636.33
612.88
590.31
566.11
542.28
516.87
492.25
466.62
443.23
421.55
404.21
387.62
372.19
356.62
345.18
336.01
328.17
317.36
307.16
297.77
291.15
282.93
275.14
266.53
260.13
253.01
247.13
238.87
230.12
220.12
214.11
208.95
204.11
199.44
206.11
227.98
264.14
305.79
353.18
405.1
461.24
514.79
565.29
610.65
651.34
683.38
708.37
726.63
741.38
751.47
758.39
760.91
760.39
755.56
748.39
738.97
729.38
717.81
704.36
687.86
671.35
654.02
636.33
615.49
594.31
572.3
551.29
528.16
505.26
481.86
461.24
441.65
425.22
409.22
395.2
381.64
372.19
364.98
360.19
353.95
349.18
345.24
344.18
341.23
337.17
329.74
323.17
316.02
311.16
304.89
299.15
291.69
286.15
279.74
275.14
272.46
279.14
295.28
322.17
355.91
400.21
453.49
514.27
573.01
627.32
675.17
720.37
759.5
791.41
813.07
829.43
842.1
853.44
859.66
861.45
858.25
853.44
846
837.43
826.51
815.42
802.38
788.41
772.06
756.39
739.58
722.37
702.16
682.35
661.06
639.33
614.78
592.31
570.95
551.29
529.32
509.26
491.13
476.25
459.55
443.23
427.57
416.22
405.27
395.2
383.58
374.19
364.56
356.18
345.51
336.17
326.57
319.17
309.22
299.15
288.73
283.15
277.8
272.14
266.08
271.14
290.82
325.17
366.11
414.21
466.65
522.27
574.47
624.32
669.19
708.37
737.45
760.39
778.41
793.41
801.88
806.42
808.08
809.42
807.11
801.41
792
782.4
771.71
760.39
746.7
733.38
719.16
704.36
686.06
667.35
647.55
628.32
606.61
585.3
563.18
542.28
520.06
499.26
477.33
455.24
431.58
412.21
397.18
386.2
373.47
361.19
350.24
344.18
338.56
333.17
325.39
319.17
312.58
307.16
299.04
291.15
282.15
275.14
266.69
259.13
251.41
248.13
247.73
253.13
264.08
287.15
323.16
372.19
424.46
475.25
522.04
570.29
616.92
657.34
685.93
708.37
727.62
744.38
753.71
758.39
760.9
763.39
761.81
756.39
747.54
738.38
727.97
717.37
704.87
691.36
675.16
658.34
639.54
620.32
599.02
578.3
556.37
534.28
509.5
485.25
461.45
441.23
422.69
407.21
391.21
375.19
358.06
344.18
332.05
321.17
308.27
297.15
287.25
279.14
268.92
260.13
252.41
247.13
239.01
230.12
220.48
214.11
206.64
198.1
187.53
182.09
182.41
190.1
202.59
225.12
258.29
303.16
354.56
412.21
470.68
526.27
573.49
615.32
651.84
683.35
706.46
724.37
738.06
748.39
752.14
751.39
747.41
742.38
734.31
724.37
713.01
702.36
689.97
675.35
657.34
639.33
620.25
600.31
577.07
554.29
531.37
509.26
484.96
462.24
440.8
422.22
403.54
388.2
375.47
366.19
356.34
348.18
340.87
336.17
330.58
326.17
321.24
318.16
313.89
311.16
307.59
305.16
299.92
294.15
285.93
279.14
271.98
267.14
262.12
261.14
265.69
283.15
313.77
358.19
408.74
463.24
518.82
578.3
635.79
686.35
724.72
756.39
783.05
805.42
819.58
829.43
836.12
840.43
838.58
833.43
826.45
819.42
809.54
798.41
785.64
772.4
756.49
740.38
723.05
705.36
684.45
663.34
641.32
620.32
597.21
574.3
549.92
526.27
500.98
477.25
454.2
434.22
414.29
396.2
378.8
365.19
352.48
341.18
328.73
319.17
310.92
305.16
297.67
291.15
283
275.14
265.03
257.13
248.47
239.12
226.46
218.11
215.64
221.11
231.56
253.13
286.59
332.17
383.79
442.23
502.78
561.29
611.02
655.34
694.48
728.38
752.69
771.4
786.01
797.41
801.63
801.41
798.57
795.41
789.01
780.4
769.75
759.39
747.37
734.38
719.23
704.36
688.02
671.35
652.27
633.33
612.26
590.31
565.8
543.28
522.05
503.26
483.35
465.24
448.08
433.22
416.62
400.21
384.15
372.19
361.49
352.18
341.63
333.17
325.26
319.17
310.74
302.16
291.89
283.15
272.77
263.14
252.78
245.13
236.06
226.12
214.54
210.11
216.02
235.12
261.91
297.15
339.77
392.2
448.59
505.26
556.07
602.31
642.85
679.35
708.2
730.38
746.28
760.39
770.87
776.4
775.06
771.4
766.48
760.39
750.75
740.38
729.14
716.37
699.19
681.35
663.95
647.33
626.79
604.31
580.54
558.29
534.04
509.26
483.62
461.24
440.07
421.22
402.74
388.2
375.93
366.19
355.16
345.18
335.46
328.17
320.11
313.16
305.41
299.15
290.98
283.15
274.25
268.14
261.49
255.13
246.21
239.12
232.41
228.12
224.58
228.12
239.97
263.14
294.58
337.17
388.5
447.23
505.74
562.29
613.12
659.34
698.41
732.38
759.38
780.4
793.33
801.41
805.83
809.42
809.39
805.42
796.75
787.41
777.32
766.4
751.89
736.38
720.09
704.36
685.93
666.34
644.59
623.32
600.49
578.3
554.23
530.27
505.62
485.25
467.82
453.23
436.78
421.22
406.73
396.2
385.8
376.19
365.46
357.18
349.45
344.18
338.04
333.17
326.26
319.17
308.8
299.15
289.44
283.15
275.97
269.14
261.33
259.13
263
276.14
296.34
328.17
370.95
425.22
483.29
542.28
597.21
649.34
695.58
736.38
767.72
791.41
808.24
823.43
834.97
841.44
840.02
835.43
829.2
822.43
812.34
801.41
789.86
778.4
763.88
748.39
732
716.37
697.73
677.35
654.61
633.33
611.56
590.31
565.84
540.28
513.23
489.25
466.35
445.23
423.26
404.21
386.89
372.19
356.88
344.18
333.08
325.17
316.98
311.16
304.93
299.15
290.45
283.15
275.1
267.14
255.92
247.13
239.99
235.12
228.5
226.12
229.79
243.13
264.23
298.15
343.45
398.21
455.09
514.27
571.64
624.32
666.62
702.36
733.21
760.39
778.95
790.41
796.52
801.41
803.06
801.41
795.23
787.41
777.56
766.4
751.98
736.38
719.8
704.36
687.97
671.35
651.93
631.33
608.48
586.3
561.77
535.28
506.21
481.25
460.56
443.23
423.3
403.21
383.89
368.19
352.32
337.17
322.01
310.16
299.53
291.15
282.35
275.14
266.9
259.13
248.9
239.12
228.98
222.11
215.24
209.11
200.93
194.1
186.14
179.09
173.88
179.09
195.35
222.11
255.21
299.15
352.73
412.21
468.76
522.27
570.66
613.32
647.63
678.35
704.91
724.37
732.69
736.38
740.22
744.38
742.84
736.38
727.36
718.37
707.05
694.36
680.61
667.35
651.23
632.33
610.3
589.3
567.89
546.28
522.1
499.26
476.74
455.24
432.15
412.21
395.37
382.2
368.52
357.18
347.44
340.18
331.96
326.17
322.26
321.17
318.04
315.16
311.64
310.16
306.43
302.16
295.7
291.15
285.78
281.15
274.26
269.14
265.33
267.14
273.73
290.15
316.78
357.18
407.28
465.24
523.86
581.3
633.23
681.35
723.39
760.39
789.12
811.42
826.93
839.43
847.99
853.44
852.68
847.44
838.67
830.43
820.95
809.42
793.89
778.4
763.21
748.39
729.43
708.37
685.85
665.34
643.57
621.32
596.9
574.3
551.72
530.27
506.69
484.25
462.74
445.23
428.19
412.21
395.03
380.2
366.63
356.18
344.88
334.17
322.75
315.16
308.56
303.16
294.7
287.15
279.18
273.14
265.46
259.13
251.34
244.13
237.24
239.12
251.19
275.14
307.51
352.18
406.1
465.24
521.01
574.3
623.2
667.35
703.05
734.38
760.66
780.4
789.4
793.41
796.75
801.41
801.8
797.41
788.71
779.4
768.89
758.39
745.96
732.38
716.28
700.36
683.13
665.34
644.4
623.32
601.24
580.3
557.8
536.28
514.07
493.26
471.32
451.23
432.01
416.22
401.11
388.2
375.09
364.19
354.3
348.18
342.14
336.17
327.65
321.17
315.08
310.16
302.21
295.15
288.17
283.15
275.23
267.14
258.9
255.13
253.26
256.13
264.7
286.15
319.65
364.19
412.75
465.24
518.83
573.3
621.97
663.34
695.37
722.37
744.44
763.39
776.3
784.41
787.32
788.41
786.79
783.41
776.6
768.4
757.94
746.39
732.43
718.37
703.08
687.36
668.65
649.34
628.8
609.32
588.04
566.29
542.08
518.27
493.9
472.24
451.55
433.22
414.13
396.2
378.5
364.19
351.15
340.18
328.65
319.17
310.17
303.16
294.8
287.15
278.33
271.14
263.23
257.13
249.87
243.13
234.16
226.12
217.21
210.11
203.39
202.1
207.43
224.12
250.78
289.15
335.4
388.2
440.94
492.25
539.82
586.3
628.27
663.34
687.41
704.36
716.88
728.38
736.18
740.38
739.99
737.38
731.74
724.37
714.61
704.36
692.4
679.35
663.61
647.33
629.53
611.32
590.13
568.29
545.38
524.27
502.44
481.25
458.97
439.23
421.31
407.21
393.23
380.2
366.86
357.18
349.52
344.18
337.46
332.17
327.62
326.17
323.67
321.17
315.92
311.16
304.73
299.15
291.14
283.15
273.67
267.14
261.78
260.13
261.17
271.14
290.9
323.17
363.96
414.21
470.09
530.27
587.41
639.33
682.05
718.37
748.42
775.4
795.88
809.42
815.21
819.42
823.02
825.43
821.67
813.42
802.21
791.41
779.45
767.4
753.88
740.38
724.7
708.37
689.57
670.35
648.68
627.32
605.02
584.3
562.25
540.28
516.13
493.26
470.76
451.23
431.76
414.21
397.3
384.2
372.24
362.19
351.61
344.18
337.61
332.17
323.45
315.16
306.97
302.16
296.43
291.15
283.07
275.14
265.71
259.13
253.39
251.13
252.14
264.14
288.31
326.17
372.01
425.22
480.11
535.28
587.59
640.33
688.88
728.38
753.49
771.4
787.3
803.42
813.46
817.42
816.42
814.42
809.28
801.41
790.59
780.4
769.72
758.39
744.29
730.38
715.64
700.36
681.51
662.34
641.93
621.32
597.43
574.3
551.7
531.27
509.3
488.25
466.32
445.23
423.7
407.21
395.02
386.2
375
364.19
354.34
348.18
341.08
334.17
325.62
319.17
312.28
307.16
300.36
294.15
285.95
279.14
271.34
265.14
258.71
257.13
260.99
275.14
298.57
334.17
378.56
431.22
486.28
542.28
593.4
639.33
678.36
714.37
744.9
768.4
781.23
788.41
793.37
799.41
802.44
801.41
795.27
787.41
777.42
766.4
753.2
740.38
726.68
712.37
695.01
677.35
658.45
639.33
616.98
594.31
570.67
548.28
524.36
501.26
477.21
454.23
430.88
411.21
394.08
380.2
366.1
354.18
342.93
333.17
321.6
311.16
301.53
295.15
288.29
282.15
274.18
267.14
258.6
251.13
242.44
235.12
226.25
218.11
209.73
206.11
206.56
214.11
228.55
255.13
291.78
337.17
386.73
442.23
498.59
550.28
590.87
625.32
656.59
685.35
706.09
720.37
729.88
737.38
740.47
740.38
737.13
732.38
724.34
714.37
702.45
690.36
675.88
659.34
639.97
621.32
602.58
584.3
563.43
542.28
519.61
497.26
473.27
451.23
430.33
412.21
394.18
379.2
366.4
357.18
347.88
340.18
333.09
329.17
324.98
321.17
315.28
311.16
307.46
306.16
302.66
298.15
290.28
283.15
274.93
268.14
260.26
255.13
251.92
255.13
265.1
287.15
319.37
362.19
411.64
469.24
529.43
588.3
639.93
687.36
729.22
764.4
788.25
805.42
818.9
831.43
838.8
841.44
838.99
834.43
826.89
818.42
808.21
797.41
783.72
768.4
750.73
733.38
714.52
695.36
674.03
653.34
630.76
607.31
581.52
558.29
535.94
514.27
489.96
468.24
449.27
433.22
414.61
396.2
378.96
366.19
354.14
344.18
334.63
328.17
320.94
314.16
305.52
299.15
292.59
287.15
278.88
271.14
262.27
255.13
247.31
243.13
242
248.13
261.38
287.15
323.54
370.19
422.33
481.25
541.52
598.31
644.22
682.35
714.74
744.38
767.34
784.41
795.06
802.42
805.23
805.42
802.2
797.41
789.29
779.4
768.05
758.39
748.28
736.38
719.83
702.36
684.4
667.35
647.6
627.32
605.45
584.3
561.59
540.28
518.43
497.26
474.18
453.23
434.03
418.22
402.17
388.2
375.5
366.19
356.67
348.18
338.93
332.17
325.73
321.17
314.37
307.16
298.01
291.15
283.34
275.14
264.17
256.13
250.11
247.13
244.36
248.13
260.12
283.15
314.16
356.18
406.17
461.24
513.82
564.29
610.25
651.34
683.64
710.37
731.6
748.39
758.1
764.4
768.46
771.4
769.41
763.39
754.01
744.38
733.33
721.37
706.78
691.36
674.79
659.34
642.51
624.32
602.74
581.3
559.43
538.28
514.21
489.25
463.5
441.23
421.15
404.21
386.89
370.19
352.38
336.17
320.48
307.16
293.81
282.15
271.03
263.14
255.21
247.13
236.03
226.12
216.86
210.11
201.82
194.1
185.36
178.09
169.36
162.08
156.56
158.08
166.24
184.1
210.66
249.13
296.81
352.18
408.3
463.24
513.86
561.29
601.88
635.33
661.03
683.35
701.21
713.37
718.08
720.37
721.82
721.37
715.07
705.36
694.36
683.35
669.84
655.34
639.7
623.32
603.4
582.3
560.28
539.28
516.4
493.26
468.68
445.23
421.33
400.21
381.67
368.19
355.79
344.18
331.85
323.17
316.22
310.16
301.6
295.15
290.79
289.15
285.03
281.15
277.04
275.14
270.27
264.14
256.65
253.13
249.97
247.13
243.12
245.13
252.85
267.14
286.53
319.17
365.45
422.22
480.27
540.28
599.64
655.34
700.1
737.38
769.73
799.41
821.59
837.43
847.12
853.44
854.77
853.44
848.6
841.44
830.63
819.42
807.53
795.41
780.27
764.4
747.27
730.38
710.7
690.36
668.34
647.33
624.71
602.31
577.88
554.29
530.24
509.26
489.21
471.24
451.77
433.22
414.9
400.21
386.39
374.19
360.64
349.18
338.8
332.17
325.23
319.17
310.73
303.16
294.25
287.15
278.9
272.14
264.38
259.13
254.66
255.13
260.7
277.14
303.18
340.18
384.39
437.23
493.49
550.28
601.63
649.34
691.46
728.38
756.93
780.4
798.03
810.42
815.32
817.42
818.21
818.42
813.73
805.42
794.6
784.41
772.85
760.39
745.41
730.38
714.68
700.36
683.91
665.34
642.95
621.32
599.51
578.3
554.12
530.27
506.24
484.25
461.48
441.23
423.42
410.21
396.86
383.2
368.04
356.18
346.74
340.18
331.73
323.17
313.79
307.16
299.2
290.15
277.98
268.14
258.97
251.13
241.15
233.12
224.81
217.11
210.03
214.11
232.74
265.14
302.71
346.18
394.95
449.23
501.86
551.29
594.36
632.33
663.6
691.36
713.81
730.38
739.04
744.38
747.49
748.39
743.87
736.38
727.12
717.37
704.82
691.36
677.74
665.34
650.29
632.33
611.02
590.31
568.64
546.28
521.12
497.26
474.4
453.23
429.61
406.21
384.44
368.19
353.75
340.18
325.55
314.16
305.04
298.15
289.91
283.15
276.89
272.14
264.5
256.13
246.46
239.12
231.09
224.12
216.17
210.11
202.2
194.1
186.37
186.1
191.52
202.1
217.3
247.13
293.04
350.18
406.95
463.24
519.02
574.3
622.3
663.34
697.08
725.38
745.59
760.39
770.56
778.4
782.13
783.41
781.29
776.4
766.95
755.39
742.42
730.38
717.53
704.36
687.98
669.35
647.21
625.32
603.01
582.3
560.28
539.28
518.03
499.26
479.73
461.24
443.39
431.22
422.18
415.21
406.45
400.21
395.93
394.2
389.98
386.2
382.16
380.2
375.17
369.19
361.34
356.18
349.96
344.18
336.93
333.17
329.21
325.17
319.72
323.17
339.29
370.19
408.39
454.23
505.21
562.29
618.66
673.35
722.35
767.4
805.03
837.43
862.95
884.46
899.06
908.47
911.89
914.47
915.73
916.47
912.65
906.47
897.98
890.46
881.45
872.45
861.46
851.44
840.12
829.43
815.79
801.41
784.24
768.4
751.67
736.38
718.97
702.36
684.08
667.35
649.9
635.33
620.74
608.31
595.51
586.3
577.68
570.29
559.7
550.28
540.85
534.28
525.76
518.27
508.95
501.26
492.02
485.25
477.02
469.24
459.45
454.23
451.73
454.23
460.82
481.25
515.33
560.29
605.25
651.34
697.25
744.38
785.81
822.43
851.83
876.45
893.29
906.47
915.61
923.48
926.93
928.48
926.39
922.48
914.12
904.47
893.27
883.46
872.43
861.45
847.66
833.43
817.04
801.41
783.36
764.4
742.44
722.37
702.91
685.35
664.72
643.33
620.48
600.31
579.79
560.29
539.66
522.27
507
495.26
481.99
468.24
453.06
441.23
429.59
418.22
403.72
391.2
379.02
368.19
354.44
342.18
329.72
318.16
303.42
291.15
282.64
281.15
282.64
291.15
308.5
340.18
382.52
433.22
483.93
532.28
574.92
615.32
651.34
682.35
704.34
720.37
731.37
740.38
745.6
748.39
746.96
742.38
733.85
724.37
713.42
701.36
686.36
671.35
656.69
643.33
627.33
609.32
588.84
569.29
548.24
526.27
501.87
479.25
456.88
435.23
411.96
392.2
376.43
365.19
353
341.18
330.03
323.17
317.48
313.16
307.26
302.16
295.9
291.15
285.66
282.15
278.27
276.14
271.77
267.14
261.75
260.13
257.44
252.13
244.57
247.13
263.77
293.15
327.19
368.19
415.84
469.24
521.68
574.3
624.46
669.35
702.75
728.38
748.83
766.4
777.53
784.41
787.56
788.41
783.99
776.4
766.95
758.39
748.33
736.38
720.86
704.36
686.57
669.35
650.48
631.33
609.89
588.3
564.87
542.28
518.97
497.26
474.9
454.23
433.79
416.22
399.16
384.2
369.64
358.19
347.17
337.17
326.42
319.17
313.51
309.16
301.78
295.15
288.47
283.15
274.39
265.14
254.95
247.13
238.06
230.12
222.61
220.11
221.34
230.12
247.38
279.14
323.6
378.2
433.79
488.25
539.47
590.31
636.91
677.35
707.49
730.38
747.01
760.39
768.38
772.4
772.65
772.4
769.88
764.4
754.13
742.38
730.01
718.37
705.11
691.36
675.45
658.34
637.97
617.32
595.58
574.3
550.35
526.27
501.76
480.25
459.53
441.23
423.26
408.21
394.02
382.2
370.29
360.19
349.58
340.18
330.32
323.17
316.49
311.16
303.64
297.15
290.57
286.15
279.19
271.14
260.87
253.13
245.06
237.12
227.13
222.11
224.75
239.12
261.95
295.15
336.78
388.2
444.55
504.26
560.87
612.32
654.83
691.36
721.32
746.39
764.48
778.4
787.63
793.41
793.59
790.41
783.97
776.4
766.61
756.39
744.75
732.38
717.06
700.36
681.67
663.34
643.69
624.32
602.97
581.3
557.38
534.28
511.35
491.25
470.71
450.23
427.98
408.21
390.55
376.19
361.02
346.18
331.09
319.17
308.22
299.15
289.82
283.15
276.72
271.14
262.9
255.13
246.59
239.12
228.72
218.11
207.75
202.1
197.13
192.1
185.64
186.1
197
221.11
253.38
294.15
341.57
396.2
451.56
504.26
549.83
590.31
625.02
655.34
678.13
694.36
704.61
713.37
720.2
724.37
722.57
716.37
706.96
697.36
686.72
675.35
661.24
645.33
626.85
608.31
589.03
570.29
549.26
527.27
503.48
481.25
458.79
437.23
414.71
395.2
378.27
365.19
352.02
340.18
328.86
321.17
314.75
310.16
304.25
299.15
293.48
290.15
286.78
285.15
281.87
279.14
275.14
273.14
269.62
265.14
257.22
251.13
246.82
247.13
250.64
263.14
285.17
319.17
362.22
416.22
475.6
535.28
587.73
635.33
677.98
716.37
746.35
770.4
788.29
801.41
807.76
811.42
813.43
814.42
810.05
801.41
789.94
779.4
767.97
755.39
739.91
724.37
707.62
690.36
669.94
649.34
627.77
607.31
585.35
564.29
541.56
518.27
492.49
469.24
448.39
431.22
413.93
399.21
386.13
376.19
365.53
356.18
346.85
340.18
333.21
328.17
322.18
317.16
309.84
303.16
294.66
287.15
278.15
271.14
263.41
257.13
250.82
251.13
260.13
282.15
313.32
354.18
401.63
457.24
515.75
574.3
625.99
671.35
709.67
744.38
772.32
793.41
806.69
817.42
825.18
829.43
827.21
822.43
816.2
809.42
799.34
788.41
776.61
764.4
748.71
732.38
715.79
700.36
681.76
661.34
638.66
617.32
594.32
570.29
542.87
516.27
490.37
468.24
447.22
429.22
412.15
398.21
384.9
374.19
363.93
356.18
347.98
341.18
333.59
328.17
321.58
315.16
306.24
299.15
291.93
286.15
278.01
271.14
264.06
259.13
253.71
253.13
259.64
279.14
309.8
352.18
400.74
454.23
507.92
562.29
612.75
658.34
695.8
728.38
755.05
776.4
789.41
797.41
801.83
805.42
805.26
801.41
793.02
783.41
772.73
762.39
750.04
736.38
720.32
704.36
687.04
669.35
648.69
627.32
604.32
582.3
558.57
534.28
507.3
481.25
455.87
434.22
413.88
396.2
378.92
364.19
349.81
337.17
324.11
313.16
302.9
295.15
286.74
279.14
270.3
263.14
254.91
247.13
237.32
229.12
220.48
213.11
204.43
198.1
192.31
189.1
188.25
197.1
216.52
247.13
284.84
332.17
385.88
442.23
493.98
542.28
585.54
623.32
653.03
679.35
702.47
720.37
728.22
730.38
731.33
733.38
731.44
724.37
713.22
702.36
690.93
678.35
662.89
647.33
630.51
612.32
590.6
569.29
547.79
526.27
501.81
479.25
459.35
443.23
426.67
412.21
398.73
387.2
374.74
365.19
357.68
352.18
344.46
338.17
333.82
333.17
330.86
328.17
324.05
322.17
318.61
314.16
306.15
299.15
292.06
287.15
280.75
276.14
273.6
279.14
292.75
318.16
353.16
399.21
451.64
509.26
565.79
620.32
669.24
714.37
752.69
784.41
806.24
821.42
831.33
840.43
846.65
849.44
845.99
839.43
830.72
822.43
812.4
801.41
788
774.4
759.32
744.38
726.96
708.37
686.73
665.34
642.85
621.32
597.7
574.3
549.72
527.27
504.78
484.25
463.4
445.23
428.15
414.21
400.06
387.2
374
364.19
355.49
349.18
341.77
336.17
329.43
323.17
314.29
307.16
299.87
294.15
286
279.14
272.41
269.14
267.99
275.14
291.2
319.17
355.99
404.21
459.85
520.27
577.77
631.33
676.3
713.37
743.06
772.4
798.89
817.42
822.82
823.43
825.35
829.43
828.07
821.42
811.85
803.42
793.54
782.4
769.14
756.39
742.47
728.38
711.45
693.36
672.33
651.34
629.17
608.31
585.59
562.29
537.02
514.27
492.23
471.24
448.19
427.22
408.06
392.2
376.48
364.19
354.49
348.18
340.2
332.17
322.77
315.16
306.45
299.15
290.58
283.15
274.24
267.14
258.8
251.13
242.73
239.12
239
244.13
253.86
276.14
312.03
360.19
411.64
465.24
518.91
573.3
622.01
663.34
695.12
721.37
742.17
759.39
770.41
776.4
776.99
775.4
770.89
764.4
754.73
744.38
732.94
721.37
707.94
694.36
679.26
663.34
644.25
624.32
602.69
581.3
557.77
534.28
509.32
485.25
460.69
439.23
419.96
404.21
388.04
372.19
355.16
340.18
326.27
315.16
304.05
294.15
283.65
275.14
266.47
259.13
250.46
243.13
235.29
229.12
221.38
214.11
205.37
198.1
190.16
184.1
178.58
178.09
183.59
200.1
226.47
264.14
310.08
364.19
419.48
472.24
519.6
566.29
610.33
647.33
671.3
687.36
700.69
714.37
723.84
728.38
727.74
724.37
717.33
708.37
697.74
687.36
675.74
663.34
648.22
631.33
611.24
590.31
568.08
547.28
525.77
504.26
480.35
457.24
434.55
415.21
397.45
383.2
369.22
356.18
342.69
333.17
326.44
322.17
316.04
311.16
307.3
306.16
302.68
298.15
291.47
287.15
283.38
282.15
279.25
276.14
270.8
267.14
262.53
259.13
257.68
267.14
288.9
323.17
363.75
412.21
466.67
526.27
583.1
635.33
680.21
720.37
753.94
782.4
803.05
817.42
825.32
831.43
835.46
837.43
833.53
825.43
814.19
803.42
791.74
779.4
764.22
748.39
731.1
714.37
695.92
677.35
656.42
635.33
612.35
590.31
567
544.28
519.93
497.26
474.94
455.24
435.5
418.22
401.78
388.2
374.41
362.19
349.98
341.18
333.47
328.17
321.32
315.16
307.72
302.16
294.81
287.15
276.49
267.14
257.71
251.13
244.9
243.13
246.12
259.13
281.17
315.16
358.76
412.21
467.81
522.27
572.86
624.32
672.66
712.37
737.54
755.39
771.35
787.41
797.32
801.41
800.72
798.41
792.46
784.41
774.29
764.4
753.26
742.38
730.41
718.37
703.59
687.36
668.3
649.34
629.01
609.32
587.74
566.29
542.59
519.27
495.79
476.25
458.07
441.23
422.86
407.21
393.79
383.2
371.12
360.19
350.39
344.18
337.16
330.17
321.47
315.16
309.25
305.16
298.46
291.15
281.97
275.14
267.54
260.13
251.19
247.13
248.83
259.13
275.46
302.16
339.4
388.2
440.75
493.26
540.97
586.3
627.54
665.34
695.92
720.37
737.5
750.39
759.01
766.4
770.93
772.4
768.08
760.39
750.53
741.38
731.28
720.37
706.52
691.36
674.19
657.34
638.73
619.32
597.46
576.3
554.23
532.28
508.05
485.25
463.64
445.23
426.92
410.21
392.76
376.19
359.39
346.18
334.87
325.17
313.51
303.16
293.57
286.15
277.11
269.14
261.1
255.13
247.16
239.12
229.6
222.11
213.7
206.11
197.94
194.1
193.78
200.1
213.24
239.12
275.94
322.17
372.87
430.22
489.87
546.28
591.58
629.33
662.79
694.36
718.91
736.38
747
754.39
757.98
759.39
757.25
752.39
743.86
734.38
723.98
713.37
699.6
683.35
664.21
645.33
625.33
605.31
583.32
562.29
540.5
519.27
496.54
476.25
457.37
441.23
424.8
411.21
399.32
390.2
380.31
372.19
365.12
361.19
356.72
353.18
348.2
344.18
338.3
333.17
326.01
319.17
310.26
303.16
295.52
289.15
281.04
275.14
270.42
271.14
278.34
299.15
331.95
375.19
422.91
477.25
534.64
592.31
643.73
691.36
733.34
768.4
792.03
809.42
823.22
835.43
842.11
845.44
845.51
843.44
836.2
826.43
815.38
805.42
793.62
780.4
764.49
748.39
730.41
712.37
692.56
673.35
651.81
629.33
604.64
582.3
560.22
538.28
513.03
489.25
467.45
449.23
430.07
412.21
395.58
383.2
371.21
360.19
347.93
338.17
328.98
322.17
314.07
307.16
298.64
291.15
282.15
275.14
266.96
259.13
249.32
243.13
240.52
245.13
256.09
279.14
312.9
357.18
407.25
465.24
526.56
586.3
635.79
677.35
713.37
747.39
774.37
793.41
803.95
811.42
816.26
819.42
818.01
813.42
805.1
795.41
784.25
774.4
764.03
752.39
736.76
720.37
702.92
685.35
664.48
643.33
621.31
600.31
577.17
554.29
529.71
505.26
479.39
457.24
438.88
425.22
410.73
396.2
381.33
370.19
360.34
352.18
343.02
336.17
329.85
325.17
318.11
311.16
302.63
295.15
285.16
275.14
264.13
256.13
247.52
239.12
230.22
228.12
233.17
247.13
268.45
303.16
349.44
403.21
455.75
508.26
559.3
607.31
645.89
677.35
703.07
725.38
741.11
752.39
759.52
764.4
764.83
762.39
756.44
748.39
737.45
726.38
714.6
702.36
687.24
671.35
654.04
636.33
615.28
593.31
570.65
550.28
528.56
505.26
478.71
454.23
432.73
416.22
400.54
386.2
371.2
358.19
345.8
336.17
326.69
318.16
308.02
299.15
290.21
283.15
274.72
267.14
258.39
251.13
242.56
235.12
226.65
220.11
213.37
209.11
205.38
206.11
212.07
229.12
256.21
294.15
339.12
392.2
448.53
505.26
557.01
605.31
647.64
683.35
710.1
732.38
750.06
762.39
766.75
768.4
769.77
770.4
764.76
754.39
742.36
732.38
721.4
708.37
691.94
675.35
657.57
639.33
617.98
596.31
573.71
552.29
528.77
505.26
481.55
462.24
445.86
433.22
420.17
408.21
396.4
388.2
381.06
375.19
367.24
360.19
353.26
349.18
343.85
338.17
329.87
323.17
315.17
307.16
297.3
291.15
285.45
279.14
270.06
267.14
271
281.15
295.09
323.17
367.43
423.22
478.93
536.28
594.78
651.34
696.31
732.38
762.93
791.41
813.19
829.43
839.48
845.44
846.1
845.44
842.75
837.43
826.85
815.42
804.57
794.41
780.4
764.4
747.45
732.38
715.54
697.36
676.13
655.34
633.21
611.32
586.75
562.29
537
514.27
491.81
471.24
449.84
430.22
411.34
396.2
381.9
369.19
355.71
345.18
335.67
328.17
318.84
311.16
303.59
298.15
290.46
283.15
274.35
267.14
258.43
251.13
243.29
239.12
239.5
251.13
272.79
305.16
345.13
396.2
454.11
514.27
568.74
619.32
664.66
704.36
734.28
758.39
777.77
793.41
801.59
805.42
806.45
806.42
801.69
793.41
782.54
772.4
761.55
750.39
736.77
722.37
706.52
691.36
673.53
653.34
630.19
609.32
588.48
566.29
539.74
515.27
493.86
475.25
453.79
433.22
415.3
402.21
388.61
375.19
361.84
352.18
343.45
336.17
327.3
319.17
310.14
303.16
294.99
287.15
277.81
271.14
263.66
255.13
242.98
233.12
224.32
217.11
210.46
214.11
230.84
260.13
295.03
338.17
388.82
445.23
499.11
550.28
597
639.33
672.9
700.36
722.56
741.38
753.48
760.39
762.95
764.4
762.84
758.39
750.23
741.38
731.37
720.37
706.3
691.36
674.81
657.34
636.56
615.32
593.33
572.3
549.2
526.27
502.76
481.25
459.32
439.23
419.95
404.21
389.36
376.19
362.27
350.18
338.57
329.17
319.4
311.16
302.41
295.15
286.67
279.14
270.39
263.14
254.88
248.13
240.64
235.12
228.34
222.11
215.14
212.11
211.03
214.11
223
247.13
286.22
336.17
388.12
443.23
499.37
554.29
601.97
645.33
683.94
716.37
737.68
752.39
763.98
774.4
779.17
779.4
776.29
772.4
765.23
755.39
742.77
730.38
717.38
704.36
688.32
670.35
649.61
629.33
607.82
586.3
562.31
539.28
517.22
499.26
481.75
465.24
448.25
435.23
424.04
414.21
402.17
392.2
384.53
380.2
373.61
366.19
357.6
352.18
346.23
340.18
330.93
323.17
315.78
311.16
304.94
299.15
291.62
286.15
281.6
283.15
291.06
310.16
339.05
380.2
429.23
485.25
542.46
600.31
653.23
700.36
738.77
772.4
800.12
822.43
835.97
844.44
849.26
853.44
853.97
851.44
844.95
837.43
827.88
817.42
804.24
790.41
775.06
760.39
744.39
728.38
709.45
689.36
666.72
645.33
623.45
602.31
578.39
554.29
528.84
505.26
481.71
461.24
442.37
427.22
412.14
398.21
383.68
372.19
361.34
352.18
341.58
333.17
325.04
319.17
311.56
305.16
297.66
291.15
281.16
271.14
262.24
260.13
259.77
260.13
262.27
279.14
313.63
362.19
413.64
468.24
524.77
582.3
633.27
678.35
716.39
748.39
771.08
788.41
801.27
811.42
816.43
819.42
819.83
817.42
809.41
799.41
788.71
778.4
765.61
752.39
738.32
724.37
707.3
689.36
669.98
651.34
630.16
608.31
584.67
562.29
538.3
514.27
489.09
467.24
447.06
429.22
410.98
396.2
384.08
375.19
365.19
356.18
347.19
340.18
331.42
323.17
314.09
307.16
298.91
291.15
281.46
273.14
263.7
255.13
244.34
235.12
228.26
229.12
235.31
248.13
267.07
299.15
344.04
399.21
454.49
507.26
555.55
602.31
643.87
679.35
706.35
728.38
744.74
756.39
761.72
764.4
764.98
764.4
759.68
752.39
743.22
734.38
723.38
710.37
694.68
679.35
662.57
644.33
622.63
601.31
579.67
558.29
533.73
509.26
484.88
463.24
442.34
425.22
409.8
396.2
381.37
369.19
359.38
352.18
342.52
332.17
321.2
313.16
305.33
299.15
291.68
285.15
277.33
271.14
263.2
255.13
245.75
240.12
234.96
229.12
220.35
218.11
226.93
249.13
278.04
314.16
356.65
408.21
464.62
524.27
580.17
629.33
668.03
700.36
726.77
748.39
762.51
772.4
779.1
784.41
785.23
782.4
775.87
768.4
758.96
748.39
734.97
720.37
703.77
687.36
669.49
651.34
630.28
608.31
584.5
562.29
539.73
518.27
495.87
476.25
458.18
443.23
428.41
416.22
404.78
395.2
384.19
374.19
364.05
356.18
347.77
341.18
333.94
328.17
320.86
315.16
308.61
303.16
295.05
287.15
277.84
271.14
265.46
264.14
265.03
272.14
286.52
315.16
357.19
411.21
467.81
524.27
577.77
631.33
680.36
722.37
753.69
779.4
800.41
817.42
826.37
830.43
831.76
833.43
831.55
825.43
814.55
803.42
792.42
782.4
770.18
756.39
739.61
722.37
703.46
685.35
666.11
647.33
626.02
604.31
580.78
558.29
533.88
509.26
483.72
462.24
442.87
425.22
405.6
388.2
373.14
362.19
351.69
344.18
337.44
332.17
324.16
317.16
310.44
306.16
299.04
291.15
281.65
275.14
268.06
261.14
251.98
247.13
248.6
261.14
282.03
313.16
351.93
400.21
454.5
514.27
572.06
624.32
667.01
704.36
736.02
762.39
780.49
794.41
805.04
813.42
815.91
814.42
809.51
803.42
794.41
784.41
773.29
762.39
748.6
732.38
713.37
695.36
676.87
658.34
637.4
617.32
596.18
574.3
548.97
524.27
498.88
473.24
445.29
421.22
401.99
387.2
370.59
354.18
339.08
328.17
317.3
307.16
296.67
289.15
281.7
275.14
266.57
259.13
250.78
243.13
232.51
222.11
211.74
205.11
198.36
192.1
185.49
186.1
196.64
220.11
251.38
290.15
334.84
388.2
445.13
501.26
550.1
593.31
630.66
663.34
687.48
704.36
715.46
725.38
732.7
736.38
734.29
729.38
722.07
713.37
702.25
691.36
679.99
667.35
650.52
632.33
613.19
594.31
572.86
551.29
528.46
505.26
478.82
453.23
429.69
411.21
394.16
379.2
364.33
352.18
340.85
332.17
324.01
318.16
312
307.16
301.55
298.15
294.8
293.15
289.7
287.15
284.02
283.15
280.06
275.14
266.21
259.13
254.44
255.13
258.36
268.14
285.4
315.16
355.68
407.21
463.02
520.27
574.39
627.32
675.32
716.37
746.54
770.4
789.47
805.42
814.6
819.42
821.14
822.43
819.93
813.42
802.55
791.41
779.61
767.4
752.2
736.38
719.32
702.36
682.63
662.34
640.38
619.32
597.13
576.3
553.73
530.27
504.3
481.25
460.69
443.23
424.63
408.21
394.08
384.2
373.87
364.19
354.26
348.18
343.24
340.18
334.69
329.17
321.57
315.16
306.84
299.15
290.02
283.15
275.51
269.14
262.78
263.14
271.44
291.15
318.69
356.18
401.88
457.24
515.87
574.3
625.84
671.35
709.8
744.38
772.35
794.41
809.38
821.42
829.42
833.43
831.15
826.43
820.1
813.42
803.88
793.41
781.32
768.4
752.42
736.38
720.02
704.36
685.54
665.34
642.98
621.32
597.78
574.3
548.85
524.27
499.05
476.25
453.69
433.22
412.95
396.2
381.22
369.19
357.27
348.18
339.76
333.17
325.24
319.17
312.7
307.16
298.8
291.15
282.48
275.14
266.09
259.13
252.28
247.13
240.81
239.12
244.69
263.14
292.01
332.17
379.6
434.22
490.34
546.28
597.05
643.33
682.54
716.37
742.9
764.4
779.47
790.41
796.73
801.41
803.03
801.41
793.93
783.41
771.83
762.39
752.33
740.38
724.57
708.37
691.66
675.35
655.91
635.33
613.25
592.31
568.8
543.28
514.91
489.25
466.3
447.23
428.01
410.21
392.27
376.19
359.67
345.18
331.65
321.17
311.13
303.16
294.42
286.15
275.89
267.14
258.27
251.13
242.52
235.12
226.35
218.11
208.59
202.1
196.57
193.1
190.94
198.1
216.57
247.13
284.45
330.17
382
438.23
491.88
542.28
586.37
624.32
654.57
681.35
703.82
720.37
727.63
730.38
731.85
733.38
730.74
724.37
715.34
706.37
695.38
682.35
666.71
651.34
634.81
617.32
597.09
577.3
556.34
534.28
508.67
484.25
461.31
441.23
420.99
404.21
389.92
378.2
364.88
353.18
343.14
336.17
328.41
322.17
316.77
314.16
310.3
307.16
303.7
303.16
301.29
298.15
290.52
283.15
275.99
272.14
267.59
264.14
260.79
263.14
271.51
290.15
317.76
357.18
405.29
461.24
517.95
573.3
623.33
670.35
712.01
748.39
775.49
795.41
808.7
819.42
826.15
829.43
827.28
822.43
814.82
806.42
795.71
784.41
771.44
758.39
743.53
728.38
710.56
691.36
669.4
648.34
626.62
605.31
581.37
558.29
535.52
515.27
493.58
472.24
450.75
433.22
416.94
402.21
386.81
375.19
366.21
360.19
352.33
345.18
337.56
332.17
325.19
319.17
312.15
307.16
300.46
294.15
285.89
279.14
271.15
265.14
261.68
268.14
284.2
311.16
345.85
392.2
447.39
508.26
565.87
619.32
665.73
706.37
739.27
768.4
792.08
809.42
817.35
821.42
824.09
826.43
823.78
817.42
808.31
799.41
789.06
778.4
765.83
752.39
736.37
720.37
703.02
685.35
664.51
643.33
621.07
600.31
578.14
556.29
532.49
509.26
484.78
462.24
440.53
422.22
404.32
388.2
372.24
360.19
350.57
344.18
336.22
328.17
319.06
313.16
307.35
302.16
294.04
287.15
280.23
275.14
267.24
259.13
250.71
247.13
246.7
252.13
262.95
285.15
318.69
364.19
414.73
468.24
520.73
573.3
621.36
663.34
695.53
721.37
741.82
759.39
770.74
776.4
776.71
776.4
774.86
771.4
763.04
752.39
740.55
729.38
716.37
702.36
686.63
671.35
654.31
636.33
615.2
593.31
569.46
546.28
522.07
499.26
476.17
455.24
434.59
416.22
397.56
380.2
362.72
348.18
334.68
323.17
311.68
303.16
295.08
287.15
276.3
267.14
259.66
255.13
248.35
241.12
232.59
226.12
218.15
210.11
200.56
194.1
189.61
190.1
195.84
213.11
241.51
281.15
327.24
380.2
434.9
488.25
536.07
582.3
625.79
663.34
688.35
704.36
716.22
728.38
736.97
740.38
737.64
732.38
724.86
716.37
705.89
695.36
683.76
671.35
655.89
639.33
620.95
602.31
581.29
560.29
538.06
516.27
492.32
469.24
447.06
429.22
413.07
399.21
384.69
372.19
360.82
353.18
346.66
342.18
336.6
332.17
327.69
326.17
323.85
321.17
315.31
311.16
307.67
306.16
301.24
295.15
287.59
283.15
278.67
276.14
276.17
287.15
309.71
344.18
385.02
434.22
489.69
550.28
607.63
659.34
701.98
738.38
767.87
793.41
812.42
825.43
831.36
835.43
838.13
839.43
834.66
825.43
813.55
803.42
793.25
782.4
767.96
752.39
735.7
720.37
703.35
685.35
664.24
643.33
621.28
600.31
577.77
556.29
534.29
514.27
492.99
472.24
451.22
434.22
418.65
404.21
388.15
375.19
364.46
356.18
345.54
336.17
327.92
323.17
316.68
310.16
301.79
295.15
286.86
279.14
269.88
263.14
257
255.13
257.84
272.14
298.14
337.17
383.75
437.23
491.82
546.28
597.44
648.34
694.6
732.38
757.07
775.4
791.55
807.42
817.26
821.42
820.41
817.42
810.56
801.41
790.35
780.4
769.75
758.39
744.37
730.38
715.42
700.36
681.71
661.34
638.69
617.32
595.24
574.3
552.15
531.27
509.32
488.25
465.87
445.23
425.13
408.21
392.28
379.2
366.47
356.18
346.83
341.18
335.62
330.17
321.83
315.16
309.16
305.16
298.32
291.15
282.43
275.14
265.51
256.13
247.29
245.13
248.49
259.13
275.25
302.16
339.73
388.2
440.2
493.26
542.97
590.31
632.11
669.35
699.63
724.37
741.26
752.39
758.3
763.39
766.92
768.4
764.25
756.39
746.33
737.38
727.54
716.37
702.14
687.36
670.86
653.34
632.53
611.32
589.26
568.29
545.34
522.27
498.44
477.25
456.41
437.23
418.11
402.21
386.91
372.19
355.86
342.18
330.58
321.17
309.75
299.15
289.51
283.15
275.92
269.14
261.22
255.13
247.32
239.12
229.15
222.11
215.68
210.11
202.44
198.1
198.16
206.11
220.81
247.13
283.79
330.17
381.27
438.23
496.21
550.28
593.46
629.33
660.52
689.36
711.7
728.38
739.17
746.39
748.7
748.39
745.21
740.38
732.11
722.37
711.51
701.36
689.3
675.35
658.31
641.33
623.06
604.31
582.94
562.29
540.74
519.27
496.07
476.25
459.3
445.23
429.4
415.21
403.38
396.2
389.48
384.2
378.39
374.19
368.95
365.19
360.36
356.18
349.89
345.18
339.49
334.17
325.96
319.17
311.77
305.16
296.39
291.15
289.68
295.15
306.02
328.17
360.62
403.21
450.66
505.26
562.71
619.32
668.36
713.37
753.7
788.41
812.19
829.43
842.41
853.44
858.91
861.45
861.24
859.44
852.72
843.44
832.26
821.42
808.31
794.41
778.95
764.4
748.45
732.38
713.36
693.36
670.79
649.34
627.53
607.31
584.98
562.29
537.96
516.27
495.56
477.25
458.21
441.23
424.8
411.21
398.12
388.2
378.54
370.19
360.14
352.18
343.85
336.17
325.15
315.16
305.59
299.15
291
283.15
274.28
269.14
266.04
269.14
279.46
303.16
337.2
380.2
427.81
483.25
541.91
598.31
643.97
682.35
715.98
747.39
771.31
788.41
798.88
806.42
809.37
809.42
805.9
801.41
794.83
787.41
777.44
766.4
753.3
740.38
726.27
712.37
696.25
679.35
659.54
639.33
617.33
596.31
574.02
552.29
528.52
505.26
481.06
459.24
438.66
422.22
407.63
396.2
384.88
375.19
364.88
356.18
347.08
340.18
333.54
329.17
322.71
315.16
305.44
299.15
293.4
287.15
276.7
268.14
260.96
255.13
247.06
244.13
249.28
265.14
288.35
323.17
367.54
418.22
467.7
518.27
568.38
615.32
652
681.35
705.39
726.38
741.2
752.39
759.62
763.39
761.68
758.39
754.08
748.39
738.15
726.38
714.19
702.36
687.48
671.35
653.84
636.33
615.42
593.31
570.52
550.28
528.62
505.26
479.35
457.24
439.2
425.22
409.96
395.2
381.04
370.19
359.05
348.18
336.06
326.17
317.02
310.16
302.31
295.15
286.44
279.14
271.23
265.14
257.79
251.13
242.79
236.12
229.39
225.12
221.27
222.11
228.4
245.13
270.93
307.16
350.08
400.21
453.33
508.26
559.27
605.31
643.22
675.35
701.56
724.37
740.99
751.39
754.95
756.39
756.25
754.39
747.37
737.38
726.18
716.37
704.92
691.36
674.92
659.34
643.55
627.32
606.73
584.3
560.87
540.28
519.05
497.26
473.74
454.23
438.06
425.22
411.56
400.21
390.4
383.2
375.16
369.19
363.97
360.19
354.13
349.18
343.58
338.17
329.71
323.17
316.93
311.16
302.06
295.15
288.97
283.15
274.58
271.14
273.67
282.15
293.98
319.17
360.71
415.21
470.57
526.27
581.45
635.33
679.96
716.37
745.85
772.4
793.2
809.42
819.47
825.43
826.4
825.43
820.95
813.42
802.08
791.41
781.15
770.4
755.68
740.38
725.54
712.37
696.03
677.35
655.85
635.33
613.59
592.31
569.53
548.28
526.31
505.26
482.79
462.24
442.38
425.22
407.79
392.2
377.08
365.19
354.24
346.18
338.22
332.17
324.99
319.17
312.09
306.16
298.24
291.15
282.7
276.14
268.88
263.14
255.9
251.13
250.24
260.13
279.59
309.16
345.51
392.2
446.49
505.26
559.56
608.31
649.95
687.36
718.35
744.38
763.2
776.4
783.45
788.41
790.7
790.41
784.74
776.4
766.26
756.39
744.98
733.38
720.15
706.37
690.57
675.35
658.54
640.33
618.52
597.31
575.7
554.29
530.23
508.26
488.4
471.24
451.98
433.22
415.17
400.21
384.63
370.19
356.84
348.18
341.44
336.17
328.05
319.17
309.41
303.16
297.2
291.15
281.36
272.14
262.75
255.13
245.63
237.12
228.03
221.11
215.7
218.11
229.16
251.13
280.97
321.17
368.57
421.22
472.99
524.27
571.47
613.32
646.54
675.35
700.09
720.37
731.55
736.38
738.01
740.38
740.55
737.38
729.89
721.37
711.43
700.36
686.77
673.35
659.03
643.33
623.32
602.31
580.77
560.29
537.4
514.27
490.62
469.24
447.44
427.22
407.82
392.2
377.54
364.19
349.9
338.17
328.42
322.17
316.06
311.16
304.93
299.15
291.83
286.15
280.12
275.14
267.54
260.13
252.19
247.13
241.14
235.12
227.75
224.12
222.36
224.12
230.49
251.13
286.81
334.17
384.12
437.23
491.79
546.28
594.03
636.33
672.82
704.36
727.31
744.38
756.7
766.4
770.76
771.4
768.53
764.4
757.04
747.39
734.94
722.37
708.87
695.36
679.66
663.34
644.7
625.32
603.52
582.3
560.21
539.28
517.81
499.26
481.45
465.24
448.43
435.23
423.94
414.21
402.23
392.2
384.53
380.2
373.62
366.19
357.66
352.18
346.34
341.18
333.9
328.17
321.35
315.16
306.48
299.15
291.55
286.15
280.34
279.14
283.72
299.15
323.28
358.19
400.99
453.23
510.25
570.29
625.87
675.35
716.12
752.39
782.79
807.42
822.46
831.43
836.36
841.44
843.97
843.44
837.58
829.43
819.29
809.42
798.01
786.41
772.97
759.39
743.82
728.38
711.28
694.36
674.78
654.34
630.82
607.31
582.73
560.29
537.05
514.27
490.13
469.24
450.63
435.23
418.71
403.21
388
376.19
365
356.18
347.08
340.18
332.93
328.17
322.4
317.16
309.48
303.16
295.17
287.15
277.3
271.14
266.15
263.14
262.42
275.14
303.29
344.18
388.5
438.23
492.69
550.28
602.44
649.34
689.93
725.38
751.86
772.4
787.49
799.41
806.1
810.42
811.44
809.42
802.17
793.41
783.93
774.4
761.82
748.39
734.33
721.37
706.62
691.36
673.73
655.34
633.85
612.32
589.95
569.29
547.45
526.27
504.05
483.25
461.03
439.23
417.4
400.21
385.94
374.19
360.93
349.18
338.98
332.17
323.97
315.16
304.76
297.15
289.73
283.15
273.81
265.14
255.56
247.13
236.19
226.12
217.29
214.11
213.41
217.11
226.78
251.13
290.03
340.18
391.42
442.23
491.68
542.28
588.91
629.33
660.65
686.35
705.88
720.37
728.6
734.38
738.14
740.38
738.01
732.38
723.83
714.37
702.69
690.36
676.87
663.34
647.17
629.33
609.07
589.3
568.12
546.28
521.54
497.26
472.97
451.23
430.15
412.21
395.22
380.2
365.03
353.18
343.41
336.17
327.94
321.17
314.77
310.16
304.11
299.15
293.58
289.15
282.72
277.14
270.03
263.14
254.35
248.13
242.31
237.12
229.62
226.12
228.78
241.12
260.48
290.15
328.61
376.19
428.2
485.25
542.52
596.31
639.86
675.35
704.12
729.38
748.4
762.39
770.76
776.4
778.68
779.4
776.74
771.4
762.37
752.39
740.87
728.38
712.51
695.36
676.86
659.34
640.14
620.32
598.31
577.3
555.44
534.28
511.7
491.25
471.8
455.24
438.81
425.22
413.12
404.21
394.83
386.2
376.38
368.19
359.67
353.18
345.99
340.18
333.19
328.17
322.23
317.16
309.76
303.16
294.71
287.15
279.34
276.14
274.67
276.14
280.93
299.15
332.58
379.2
428.86
481.25
535.92
594.31
648.02
693.36
728.12
758.39
784.13
805.42
818.67
827.43
832.42
835.43
833.66
829.43
822.86
815.42
804.34
791.41
777.18
764.4
750.68
736.38
719.14
701.36
681.97
663.34
642.34
620.32
596.18
574.3
552.29
530.27
505.57
483.25
462.94
445.23
425.92
408.21
391.71
378.2
364.37
353.18
343.34
336.17
327.77
321.17
314.75
310.16
302.71
295.15
286.7
281.15
274.33
267.14
257.46
251.13
248.51
253.13
262.68
281.15
308.44
348.18
397.36
455.24
513.92
569.29
616.6
659.34
696.54
728.38
751.99
771.4
786.52
797.41
801.11
801.41
799.32
795.41
786.81
776.4
765.3
754.39
740.26
724.37
707.3
691.36
673.47
654.34
633.16
613.32
592.26
570.29
545.6
522.27
498.21
473.24
445.38
421.22
402
387.2
370.06
352.18
335.22
323.17
312.52
303.16
293.03
285.15
277.48
271.14
262.9
255.13
246.3
239.12
230.42
222.11
212.76
206.11
199.3
193.1
185.51
182.09
183.85
194.1
211.44
240.12
279.21
328.17
380.37
434.22
485.62
534.28
577.05
615.32
646.37
670.35
687.16
702.36
715.56
724.37
725.21
722.37
718.05
712.37
702.45
691.36
680.37
669.35
654.85
639.33
623.4
607.31
586.84
564.29
540.99
520.27
498.81
477.25
454.17
433.22
412.97
395.2
377.93
364.19
352.47
344.18
336.2
330.17
323.89
319.17
313.86
311.16
309.21
309.16
306.38
303.16
299.21
299.15
298.75
297.15
291.22
287.15
285.07
286.15
285.92
289.15
298.34
319.17
349.84
392.2
441.88
497.26
552.4
607.31
657.53
702.36
739.25
772.4
800.24
821.42
832.05
837.43
841.03
845.44
845.71
841.44
832.59
823.43
813.22
802.42
788.17
772.4
755.35
740.38
724.83
708.37
688.03
667.35
645.47
624.32
600.94
578.3
555.27
534.28
512.16
491.25
470.52
453.23
436.51
421.22
404.95
391.2
378.66
369.19
359.67
352.18
343.24
334.17
323.02
315.16
308.48
303.16
294.58
287.15
279.53
273.14
264.49
259.13
257.68
263.14
273.49
295.15
329.16
376.19
428.72
485.25
541.35
596.31
644.8
687.36
721.28
748.39
768.48
786.41
800.48
809.42
810.64
809.42
807.07
803.42
794.81
784.41
773.37
762.39
748.43
734.38
720.81
708.37
692.43
674.35
653.65
633.33
611.35
590.31
568.1
546.28
522.51
500.26
478.03
457.24
435.32
416.22
399.61
387.2
374.97
364.19
353.31
345.18
337.56
332.17
325.52
319.17
311.05
305.16
299.15
294.15
286.29
279.14
271.91
267.14
260.27
253.13
246.24
247.13
256.59
277.14
305.84
345.18
392.18
445.23
496.91
546.28
591.57
635.33
673.48
704.36
725.14
740.38
751.92
762.39
769.06
772.4
770.86
766.4
758.69
750.39
740.26
728.38
713.02
697.36
681.81
667.35
650.25
631.33
609.65
588.3
565.83
544.28
521.87
501.26
481.05
463.24
444.66
426.22
406.18
388.2
371.37
357.18
342.71
330.17
318.93
311.16
302.9
294.15
283.3
275.14
268.33
263.14
255.04
247.13
238.85
233.12
226.76
222.11
216.63
212.11
206.87
206.11
210.03
222.11
242.62
277.14
322.71
375.19
427.52
481.25
533.19
580.3
618.45
653.34
685.72
712.37
726.38
732.38
736.43
742.38
745.47
744.38
738.45
730.38
719.88
709.37
698.3
687.36
673.96
659.34
642.23
624.32
603.56
582.3
559.61
538.28
516.14
495.26
474.37
457.24
442.2
430.22
