0.30873
-0.040241
-0.34337
-0.62866
-0.88593
-1.1152
-1.3113
-1.3979
-1.3852
-1.4005
-1.3979
-1.3979
-1.3928
-1.3877
-1.4005
-1.3852
-1.3928
-1.3954
-1.3979
-1.3877
-1.3928
-1.3928
-1.3979
-1.3877
-1.2757
-0.92669
-0.11156
1.0194
2.2192
3.2992
3.6456
3.6405
3.6507
3.6507
3.6456
3.6456
3.6507
3.6507
3.6431
3.4699
3.1617
2.777
2.3567
1.9262
1.5009
1.0806
0.69846
0.31638
-0.02241
-0.32553
-0.61337
-0.8732
-1.1075
-1.3139
-1.3979
-1.4005
-1.3979
-1.4005
-1.3903
-1.3954
-1.3954
-1.4005
-1.3903
-1.3979
-1.3954
-1.3852
-1.3979
-1.3903
-1.3877
-1.3928
-1.3903
-1.2604
-0.8681
-0.0045796
1.1697
2.3873
3.4877
3.6456
3.6405
3.6456
3.6507
3.6405
3.6456
3.6405
3.6456
3.6507
3.5998
3.3705
3.0241
2.6089
2.1504
1.6995
1.264
0.83856
0.43355
0.066744
-0.27968
-0.593
-0.87574
-1.1254
-1.3648
-1.3928
-1.3954
-1.3852
-1.3928
-1.3877
-1.3979
-1.3928
-1.3877
-1.3877
-1.3852
-1.3928
-1.3852
-1.3979
-1.3903
-1.3852
-1.3979
-1.3903
-1.3903
-1.3521
-1.1254
-0.48346
0.58129
1.7989
2.9706
3.6456
3.6405
3.6482
3.6456
3.6456
3.638
3.6507
3.6405
3.6456
3.6355
3.4699
3.1464
2.7465
2.3134
1.8575
1.4066
0.97612
0.56091
0.18392
-0.1727
-0.50894
-0.79423
-1.0668
-1.3062
-1.3877
-1.4005
-1.3877
-1.3928
-1.3954
-1.3979
-1.3877
-1.3877
-1.3903
-1.3877
-1.3852
-1.3928
-1.3852
-1.3877
-1.3928
-1.3852
-1.3979
-1.3852
-1.3928
-1.3393
-1.1432
-0.61337
0.35458
1.5645
2.7719
3.6456
3.6507
3.6533
3.638
3.6507
3.6431
3.6482
3.6456
3.6456
3.6355
3.4521
3.1235
2.7083
2.2752
1.8142
1.3684
0.93281
0.52525
0.16099
-0.20072
-0.5013
-0.79423
-1.0515
-1.2833
-1.3979
-1.3928
-1.3928
-1.3928
-1.3877
-1.3903
-1.4005
-1.4005
-1.3928
-1.3928
-1.3852
-1.4005
-1.3928
-1.3979
-1.3928
-1.3903
-1.3928
-1.3903
-1.3419
-1.2273
-0.97509
-0.35355
0.63224
1.8345
3.0165
3.6507
3.6507
3.6405
3.6456
3.6456
3.6507
3.6456
3.6507
3.6482
3.5336
3.2432
2.856
2.4331
1.9848
1.5416
1.1111
0.7112
0.32147
-0.032599
-0.34591
-0.63885
-0.88593
-1.1254
-1.3342
-1.3928
-1.3979
-1.3852
-1.3928
-1.4005
-1.3903
-1.3928
-1.4005
-1.3979
-1.3903
-1.3979
-1.3877
-1.3852
-1.3852
-1.3852
-1.3903
-1.3368
-1.1814
-0.81716
-0.055525
1.0525
2.2701
3.4266
3.6456
3.6456
3.6405
3.6456
3.6533
3.6507
3.6482
3.638
3.6405
3.5896
3.3298
2.9451
2.4943
2.0332
1.5569
1.1162
0.67299
0.25269
-0.11921
-0.46309
-0.7764
-1.0591
-1.3164
-1.3928
-1.3877
-1.3979
-1.3877
-1.3979
-1.3954
-1.3852
-1.3928
-1.3852
-1.3979
-1.3903
-1.3928
-1.3979
-1.3979
-1.3852
-1.3928
-1.3903
-1.3928
-1.3648
-1.268
-1.0031
-0.41214
0.60167
1.8193
3.0394
3.6456
3.6405
3.6507
3.6456
3.6482
3.638
3.6456
3.6507
3.6456
3.6431
3.5132
3.1922
2.7719
2.3211
1.8498
1.3811
0.91753
0.49978
0.089669
-0.26695
-0.60064
-0.9165
-1.1712
-1.3928
-1.3979
-1.3928
-1.3877
-1.4005
-1.3928
-1.3903
-1.3877
-1.3877
-1.3852
-1.3928
-1.3877
-1.3979
-1.3852
-1.3979
-1.3928
-1.3852
-1.3877
-1.3903
-1.3776
-1.2731
-1.0566
-0.52677
0.3877
1.5798
2.805
3.638
3.6507
3.6456
3.638
3.6456
3.638
3.638
3.6507
3.6405
3.6507
3.5234
3.2228
2.8254
2.3822
1.9161
1.4626
1.0092
0.58384
0.17882
-0.19308
-0.52932
-0.83499
-1.1101
-1.3546
-1.3903
-1.3979
-1.3903
-1.3928
-1.3928
-1.4005
-1.3979
-1.3979
-1.3979
-1.3979
-1.3877
-1.3979
-1.4005
-1.3928
-1.3928
-1.3852
-1.3979
-1.3852
-1.3674
-1.2884
-1.1101
-0.70508
0.089669
1.1926
2.4077
3.5336
3.6482
3.6507
3.6507
3.6533
3.6405
3.6456
3.638
3.6507
3.6456
3.5081
3.2126
2.805
2.3618
1.9033
1.4474
1.0143
0.58638
0.18646
-0.18289
-0.51403
-0.81206
-1.0923
-1.3215
-1.3979
-1.3979
-1.3954
-1.3979
-1.3928
-1.4005
-1.3979
-1.3928
-1.4005
-1.3852
-1.3852
-1.3877
-1.3928
-1.3979
-1.3852
-1.3979
-1.3903
-1.2884
-1.0719
-0.58281
0.30364
1.4474
2.6242
3.6507
3.6456
3.6456
3.6456
3.6456
3.6405
3.6405
3.638
3.6456
3.5871
3.3323
2.9783
2.5554
2.1071
1.6511
1.2054
0.77743
0.36477
-0.0045796
-0.35101
-0.66432
-0.94197
-1.1916
-1.3877
-1.3954
-1.3877
-1.3903
-1.3903
-1.3928
-1.3928
-1.3979
-1.3877
-1.3877
-1.3928
-1.4005
-1.3928
-1.3903
-1.3954
-1.3928
-1.375
-1.2553
-0.8732
-0.073356
1.0602
2.2905
3.4368
3.6507
3.638
3.6482
3.6507
3.6405
3.6507
3.6405
3.638
3.6456
3.6151
3.3884
3.0267
2.586
2.1071
1.6384
1.1723
0.72139
0.296
-0.10138
-0.47073
-0.79678
-1.0948
-1.3674
-1.4005
-1.3979
-1.3877
-1.3928
-1.3928
-1.3852
-1.3928
-1.3979
-1.4005
-1.3877
-1.3928
-1.3877
-1.4005
-1.3877
-1.3903
-1.3928
-1.3852
-1.3852
-1.319
-0.95216
-0.15996
0.97866
2.2166
3.34
3.6456
3.638
3.6456
3.6456
3.6431
3.6507
3.6456
3.6507
3.6456
3.61
3.3654
3.0012
2.5707
2.102
1.6359
1.1621
0.72139
0.30109
-0.093734
-0.4478
-0.77895
-1.0795
-1.3393
-1.3903
-1.3928
-1.3903
-1.4005
-1.3928
-1.3877
-1.3877
-1.4005
-1.3852
-1.3903
-1.3877
-1.3877
-1.3928
-1.3903
-1.3852
-1.3903
-1.3852
-1.3928
-1.3776
-1.2171
-0.70253
0.24505
1.4499
2.67
3.6456
3.6456
3.6456
3.6507
3.6482
3.6456
3.6456
3.6456
3.6507
3.6405
3.4903
3.1769
2.7821
2.3465
1.8906
1.4321
0.99395
0.57365
0.17882
-0.18544
-0.52932
-0.82734
-1.1101
-1.3546
-1.3979
-1.3877
-1.3979
-1.3928
-1.3928
-1.3928
-1.4005
-1.3928
-1.3928
-1.3877
-1.4005
-1.3852
-1.3852
-1.3928
-1.3979
-1.3979
-1.3928
-1.3164
-1.0006
-0.23638
0.86404
2.0816
3.2228
3.6456
3.6482
3.6456
3.6405
3.6482
3.6456
3.6456
3.6507
3.6507
3.5361
3.261
2.8967
2.4637
2.0307
1.5875
1.1468
0.73413
0.3393
-0.030052
-0.36629
-0.67196
-0.95471
-1.2043
-1.3852
-1.3852
-1.3877
-1.3979
-1.3979
-1.3979
-1.3877
-1.3903
-1.4005
-1.3928
-1.3928
-1.3877
-1.3928
-1.3877
-1.3979
-1.3928
-1.3801
-1.1356
-0.44271
0.65261
1.8931
3.0572
3.638
3.6533
3.6456
3.6482
3.6456
3.6456
3.6456
3.6456
3.638
3.6456
3.4826
3.154
2.7388
2.293
1.832
1.3582
0.90734
0.46921
0.056555
-0.31535
-0.65668
-0.97763
-1.2604
-1.3954
-1.3928
-1.3979
-1.4005
-1.3928
-1.3903
-1.3954
-1.3877
-1.3979
-1.3928
-1.3903
-1.3852
-1.3928
-1.3954
-1.3979
-1.3877
-1.3903
-1.3928
-1.3928
-1.3266
-0.96235
-0.11156
1.0882
2.3516
3.5004
3.6533
3.6431
3.6507
3.6507
3.6507
3.6405
3.6405
3.638
3.6507
3.6278
3.4266
3.0776
2.6497
2.1912
1.7021
1.2436
0.78252
0.35204
-0.052978
-0.41469
-0.74838
-1.0541
-1.3292
-1.3954
-1.3928
-1.3928
-1.4005
-1.3954
-1.3877
-1.3954
-1.3877
-1.3877
-1.3928
-1.4005
-1.3928
-1.3928
-1.3954
-1.3954
-1.3928
-1.3928
-1.3903
-1.3928
-1.3699
-1.1687
-0.593
0.42591
1.6944
2.935
3.6456
3.6456
3.6507
3.6456
3.6456
3.6405
3.6405
3.6456
3.6456
3.6507
3.4928
3.1591
2.7516
2.293
1.8218
1.3531
0.89715
0.47431
0.07948
-0.28733
-0.63121
-0.93178
-1.2069
-1.3928
-1.3954
-1.3877
-1.3954
-1.3979
-1.3877
-1.3954
-1.3979
-1.3979
-1.3928
-1.3979
-1.3928
-1.4005
-1.3928
-1.3852
-1.4005
-1.3928
-1.3979
-1.3979
-1.3266
-1.0668
-0.40195
0.65771
1.9237
3.1387
3.6431
3.638
3.6482
3.6431
3.6456
3.6456
3.6507
3.6456
3.6405
3.5845
3.3196
2.9477
2.5096
2.0638
1.6078
1.1595
0.73413
0.32911
-0.037694
-0.37648
-0.69234
-0.96744
-1.2222
-1.3928
-1.3979
-1.4005
-1.3877
-1.3928
-1.3979
-1.3954
-1.3928
-1.3852
-1.3877
-1.3928
-1.3877
-1.3979
-1.3928
-1.3903
-1.3852
-1.3877
-1.2629
-0.85536
0.018346
1.2207
2.4714
3.6253
3.638
3.638
3.6431
3.6456
3.6456
3.6456
3.6482
3.6456
3.6456
3.5641
3.2788
2.8789
2.4128
1.939
1.4474
0.99395
0.53799
0.11769
-0.26185
-0.61337
-0.93942
-1.2196
-1.3928
-1.3928
-1.4005
-1.3954
-1.3954
-1.3877
-1.3979
-1.3979
-1.4005
-1.3928
-1.4005
-1.3877
-1.4005
-1.3928
-1.3928
-1.3877
-1.3928
-1.3877
-1.3928
-1.3444
-1.133
-0.5013
0.55072
1.8218
3.0751
3.6456
3.6482
3.6456
3.6456
3.6507
3.6456
3.6456
3.638
3.638
3.6482
3.5004
3.1769
2.7414
2.2676
1.776
1.292
0.81564
0.38006
-0.030052
-0.4045
-0.74583
-1.0515
-1.3342
-1.3852
-1.3954
-1.3979
-1.3979
-1.3877
-1.3877
-1.3928
-1.3877
-1.3877
-1.3954
-1.3928
-1.3928
-1.3954
-1.3979
-1.3979
-1.3852
-1.3979
-1.3928
-1.3903
-1.3877
-1.296
-1.0617
-0.47328
0.54053
1.7938
3.0521
3.6507
3.6456
3.6456
3.6431
3.6533
3.6507
3.6456
3.6456
3.638
3.6482
3.4571
3.1285
2.6955
2.2294
1.7352
1.264
0.82328
0.3877
-0.0096741
-0.37138
-0.69743
-1.0031
-1.268
-1.3979
-1.3928
-1.3979
-1.4005
-1.3877
-1.3877
-1.3852
-1.3979
-1.3928
-1.3979
-1.3852
-1.3877
-1.3852
-1.3979
-1.3852
-1.3979
-1.3903
-1.3928
-1.3903
-1.3521
-1.2604
-1.0897
-0.75093
-0.040241
1.0398
2.2778
3.4775
3.638
3.6456
3.6405
3.6456
3.6533
3.638
3.6507
3.6507
3.6456
3.531
3.2406
2.8331
2.3924
1.9135
1.4525
1.0092
0.57365
0.16863
-0.19308
-0.52677
-0.82225
-1.0872
-1.3266
-1.3903
-1.3928
-1.3954
-1.3877
-1.3852
-1.3852
-1.3928
-1.3928
-1.3877
-1.3979
-1.3979
-1.3852
-1.3903
-1.3852
-1.3852
-1.3877
-1.375
-1.2935
-1.1075
-0.71017
0.097311
1.2257
2.4714
3.6304
3.6482
3.6456
3.6456
3.6456
3.6482
3.6456
3.6405
3.6456
3.6304
3.4419
3.1056
2.6828
2.2192
1.7454
1.2741
0.83602
0.40808
0.0005149
-0.35101
-0.68725
-0.97763
-1.2451
-1.3928
-1.3877
-1.3928
-1.4005
-1.3877
-1.3954
-1.4005
-1.4005
-1.3979
-1.3928
-1.3877
-1.4005
-1.3928
-1.3928
-1.3979
-1.3928
-1.3979
-1.3368
-1.1254
-0.57262
0.40553
1.6435
2.9044
3.6456
3.6507
3.638
3.6533
3.6456
3.6507
3.6405
3.6456
3.6456
3.6507
3.5208
3.1948
2.7668
2.2829
1.776
1.2945
0.81309
0.35968
-0.060619
-0.4478
-0.79932
-1.1152
-1.3928
-1.3979
-1.3877
-1.3979
-1.3954
-1.3928
-1.3928
-1.3928
-1.3954
-1.3928
-1.3928
-1.3928
-1.3852
-1.3903
-1.3928
-1.3979
-1.3877
-1.3979
-1.3979
-1.3623
-1.1432
-0.55479
0.44119
1.6893
2.935
3.6507
3.6456
3.6456
3.6482
3.638
3.6405
3.6507
3.6507
3.638
3.6355
3.4138
3.0445
2.5962
2.1096
1.6104
1.1366
0.67554
0.23996
-0.1676
-0.53441
-0.87574
-1.1712
-1.3928
-1.3903
-1.3877
-1.3928
-1.4005
-1.3979
-1.3877
-1.3877
-1.3954
-1.3979
-1.3877
-1.3928
-1.3979
-1.3979
-1.3903
-1.3877
-1.3928
-1.3903
-1.3903
-1.347
-1.1712
-0.72291
0.13043
1.3149
2.5529
3.638
3.6507
3.6405
3.6507
3.6456
3.6507
3.6482
3.6456
3.6507
3.6278
3.4419
3.0878
2.6649
2.1988
1.7123
1.2436
0.78507
0.35458
-0.035147
-0.41214
-0.7331
-1.0388
-1.3037
-1.3954
-1.3928
-1.3928
-1.3954
-1.3877
-1.3877
-1.3979
-1.3928
-1.3954
-1.4005
-1.3979
-1.3928
-1.3928
-1.3903
-1.4005
-1.3928
-1.3979
-1.3776
-1.2476
-0.93433
-0.24657
0.79526
2.0205
3.2126
3.6533
3.6456
3.6431
3.6405
3.6507
3.6405
3.6456
3.6507
3.6482
3.4801
3.1515
2.7414
2.2905
1.8218
1.3582
0.91753
0.48449
0.089669
-0.26695
-0.60828
-0.89867
-1.1661
-1.3979
-1.4005
-1.3903
-1.3928
-1.3928
-1.3877
-1.3852
-1.3877
-1.3928
-1.3852
-1.3954
-1.3928
-1.3877
-1.3928
-1.4005
-1.3928
-1.347
-1.1305
-0.5395
0.45393
1.7021
2.9248
3.6456
3.6456
3.6482
3.6482
3.6533
3.6507
3.6456
3.638
3.638
3.6329
3.4037
3.0368
2.586
2.1046
1.618
1.1315
0.68318
0.2425
-0.17015
-0.5446
-0.87065
-1.1814
-1.3903
-1.3852
-1.3852
-1.3979
-1.3979
-1.3928
-1.3928
-1.3877
-1.3877
-1.3877
-1.3928
-1.3852
-1.3877
-1.3928
-1.3928
-1.3877
-1.4005
-1.3979
-1.3776
-1.1967
-0.64139
0.34694
1.5824
2.8433
3.6456
3.6456
3.638
3.6482
3.6456
3.6456
3.6507
3.6456
3.638
3.6456
3.4597
3.1158
2.6777
2.1886
1.7046
1.2105
0.7545
0.30619
-0.10392
-0.47837
-0.8197
-1.1203
-1.3979
-1.3928
-1.3903
-1.3877
-1.3954
-1.3928
-1.4005
-1.4005
-1.3928
-1.3954
-1.3954
-1.3979
-1.3928
-1.3903
-1.3852
-1.4005
-1.3928
-1.3928
-1.3903
-1.3801
-1.2375
-0.8248
-0.0045796
1.157
2.4281
3.6023
3.6482
3.6456
3.6456
3.6405
3.6456
3.6482
3.6405
3.6507
3.6456
3.5081
3.182
2.7566
2.2956
1.804
1.3225
0.86658
0.42591
0.020893
-0.3561
-0.69743
-1.0158
-1.2884
-1.3928
-1.3979
-1.3928
-1.3877
-1.3979
-1.3954
-1.403
-1.3979
-1.3877
-1.3928
-1.3928
-1.3979
-1.3852
-1.3852
-1.3979
-1.3928
-1.3928
-1.3979
-1.3801
-1.268
-1.0235
-0.46818
0.49468
1.6919
2.9375
3.6456
3.6482
3.6405
3.6533
3.638
3.6507
3.6507
3.6456
3.6456
3.5616
3.289
2.8967
2.4561
1.9874
1.5187
1.0602
0.61695
0.20939
-0.1727
-0.51658
-0.82225
-1.1024
-1.3521
-1.3928
-1.3979
-1.3928
-1.3979
-1.3928
-1.3928
-1.3877
-1.3877
-1.3852
-1.3903
-1.3979
-1.3928
-1.3979
-1.4005
-1.3928
-1.3903
-1.3317
-1.1254
-0.64649
0.23232
1.4295
2.6777
3.6482
3.6456
3.638
3.6456
3.6456
3.6482
3.638
3.6533
3.638
3.6253
3.3884
3.0241
2.5809
2.1071
1.6231
1.1442
0.70101
0.26543
-0.13194
-0.50894
-0.83753
-1.1356
-1.3928
-1.3877
-1.3852
-1.3903
-1.3979
-1.3903
-1.3954
-1.4005
-1.4005
-1.3979
-1.3903
-1.3877
-1.3928
-1.3954
-1.3928
-1.3979
-1.3852
-1.3852
-1.296
-0.94707
-0.19562
0.94555
2.2345
3.4521
3.6456
3.6533
3.6405
3.6456
3.6482
3.6507
3.6507
3.6456
3.6456
3.6049
3.3476
2.9579
2.4866
1.9925
1.4983
1.0067
0.54308
0.099858
-0.29497
-0.67196
-1.0082
-1.3037
-1.3954
-1.3877
-1.3979
-1.3928
-1.3877
-1.3877
-1.4005
-1.3979
-1.3928
-1.3877
-1.4005
-1.3928
-1.3928
-1.3903
-1.3928
-1.3903
-1.3928
-1.3928
-1.3623
-1.1483
-0.54205
0.47685
1.7403
2.9783
3.6456
3.6456
3.6482
3.638
3.6507
3.6507
3.6456
3.6456
3.6456
3.6151
3.3705
2.9986
2.535
2.0562
1.5569
1.078
0.62205
0.17628
-0.22874
-0.59554
-0.93433
-1.2349
-1.3979
-1.3852
-1.3928
-1.3928
-1.3877
-1.3877
-1.3979
-1.4005
-1.3928
-1.3979
-1.3928
-1.3877
-1.3979
-1.3928
-1.3928
-1.3928
-1.3954
-1.3979
-1.3903
-1.3444
-1.1279
-0.62356
0.29854
1.511
2.7898
3.6456
3.6456
3.6456
3.6456
3.6405
3.6456
3.6507
3.6456
3.6405
3.6253
3.4062
3.0445
2.6089
2.1479
1.6715
1.2054
0.7545
0.33166
-0.073356
-0.42233
-0.75857
-1.0566
-1.3241
-1.3979
-1.3954
-1.3979
-1.3852
-1.4005
-1.3928
-1.3903
-1.3928
-1.4005
-1.3979
-1.4005
-1.3903
-1.3903
-1.4005
-1.3928
-1.3979
-1.3928
-1.3215
-1.0693
-0.46309
0.53034
1.7556
2.9732
3.6456
3.6533
3.6456
3.6482
3.6456
3.6405
3.6507
3.6507
3.638
3.5183
3.2253
2.8203
2.3593
1.8931
1.4142
0.95319
0.51761
0.11005
-0.27459
-0.61083
-0.91905
-1.1891
-1.3877
-1.3852
-1.3928
-1.3928
-1.3928
-1.4005
-1.3928
-1.3928
-1.3928
-1.3928
-1.3928
-1.3852
-1.3928
-1.3979
-1.3852
-1.3979
-1.3903
-1.3037
-0.96999
-0.21091
0.92517
2.2064
3.4189
3.6405
3.6507
3.6431
3.6507
3.6507
3.6456
3.638
3.638
3.6456
3.6074
3.3425
2.9477
2.4866
1.995
1.5009
1.0092
0.54563
0.12278
-0.28478
-0.65158
-0.99037
-1.2757
-1.3979
-1.3877
-1.3954
-1.3979
-1.3954
-1.3954
-1.3903
-1.3979
-1.3979
-1.3928
-1.4005
-1.3979
-1.4005
-1.3928
-1.3903
-1.3928
-1.3852
-1.3928
-1.3979
-1.2757
-0.85536
-0.0096741
1.1901
2.4688
3.6533
3.6507
3.6507
3.6456
3.6456
3.638
3.6482
3.6456
3.6405
3.6456
3.559
3.2763
2.8687
2.4
1.9084
1.4168
0.93536
0.47176
0.05146
-0.34082
-0.69998
-1.0337
-1.3368
-1.3979
-1.3979
-1.3979
-1.3979
-1.3852
-1.3928
-1.3979
-1.3852
-1.3928
-1.3903
-1.3877
-1.3852
-1.3928
-1.3903
-1.3877
-1.3928
-1.3852
-1.3928
-1.3928
-1.3699
-1.2247
-0.8197
-0.030052
1.1213
2.4026
3.6023
3.6456
3.6456
3.6456
3.6507
3.6456
3.6507
3.6456
3.6507
3.6507
3.531
3.2381
2.8203
2.3695
1.8728
1.3913
0.92517
0.47685
0.056555
-0.33063
-0.6796
-0.99801
-1.2859
-1.3903
-1.3928
-1.3954
-1.3877
-1.3954
-1.3928
-1.3979
-1.3954
-1.3852
-1.3928
-1.3928
-1.3928
-1.3903
-1.3903
-1.3877
-1.3877
-1.3928
-1.3903
-1.3903
-1.3495
-1.2324
-1.0057
-0.54715
0.28836
1.4244
2.67
3.6456
3.6507
3.6533
3.6507
3.6482
3.6456
3.6431
3.6456
3.6405
3.61
3.3807
3.0216
2.5936
2.1249
1.6409
1.1875
0.73158
0.30619
-0.093734
-0.46054
-0.77895
-1.0668
-1.3292
-1.3877
-1.3954
-1.3877
-1.403
-1.3954
-1.3928
-1.3979
-1.3928
-1.3903
-1.3852
-1.3928
-1.3903
-1.3852
-1.3852
-1.3928
-1.3852
-1.3903
-1.3113
-1.1559
-0.84263
-0.24402
0.7112
1.8753
3.0725
3.6431
3.6456
3.6507
3.6456
3.6507
3.6456
3.6456
3.6482
3.6405
3.4979
3.1719
2.7566
2.2905
1.8091
1.3251
0.85385
0.41572
0.0005149
-0.38157
-0.72291
-1.026
-1.3011
-1.3979
-1.3877
-1.3877
-1.3877
-1.3979
-1.3928
-1.3979
-1.3954
-1.3852
-1.4005
-1.3928
-1.3852
-1.3979
-1.3928
-1.3877
-1.3903
-1.3852
-1.3368
-1.1967
-0.92159
-0.34337
0.59912
1.7963
3.0496
3.638
3.6456
3.6456
3.6456
3.638
3.6456
3.6405
3.6456
3.6456
3.638
3.4444
3.098
2.6471
2.1529
1.6511
1.1544
0.66535
0.20939
-0.20836
-0.60064
-0.94707
-1.2553
-1.3954
-1.3979
-1.4005
-1.3954
-1.3928
-1.3979
-1.3979
-1.4005
-1.3954
-1.4005
-1.3928
-1.3852
-1.4005
-1.3979
-1.3903
-1.3852
-1.3979
-1.3979
-1.3903
-1.3215
-1.1254
-0.73819
0.015798
1.078
2.3058
3.5081
3.638
3.638
3.6507
3.6405
3.6507
3.6456
3.6482
3.6456
3.6456
3.5412
3.233
2.828
2.3491
1.8524
1.3684
0.88441
0.4361
0.010704
-0.38157
-0.7331
-1.0439
-1.3419
-1.3877
-1.3979
-1.3979
-1.3852
-1.3979
-1.3877
-1.4005
-1.3954
-1.3979
-1.3852
-1.3928
-1.4005
-1.4005
-1.3928
-1.3877
-1.4005
-1.3928
-1.3954
-1.3699
-1.2884
-1.1177
-0.79423
-0.14723
0.81309
2.0001
3.2024
3.6482
3.6456
3.6405
3.6456
3.6507
3.638
3.6456
3.6507
3.638
3.5488
3.2508
2.8382
2.3847
1.8982
1.4142
0.94555
0.48704
0.066744
-0.32808
-0.66687
-0.98273
-1.2476
-1.3979
-1.3852
-1.3979
-1.4005
-1.3928
-1.3979
-1.3928
-1.3903
-1.3903
-1.3928
-1.3928
-1.3928
-1.3979
-1.3928
-1.3852
-1.3852
-1.3979
-1.3776
-1.3088
-1.161
-0.89612
-0.38157
0.46412
1.5518
2.7363
3.6405
3.6533
3.6456
3.6405
3.6507
3.6533
3.6456
3.6431
3.6456
3.5234
3.2381
2.8407
2.3924
1.9161
1.4397
0.98121
0.54563
0.14316
-0.22874
-0.57007
-0.8732
-1.1407
-1.3801
-1.3852
-1.3852
-1.3928
-1.4005
-1.3852
-1.3877
-1.3903
-1.3928
-1.3852
-1.3877
-1.4005
-1.3903
-1.3903
-1.3928
-1.3928
-1.3776
-1.3062
-1.1534
-0.82225
-0.16251
0.83602
2.0383
3.2508
3.6456
3.6405
3.638
3.6482
3.6456
3.6507
3.638
3.6456
3.6456
3.5743
3.2865
2.884
2.4179
1.9161
1.4244
0.93026
0.46412
0.025987
-0.36884
-0.73564
-1.0642
-1.3546
-1.3979
-1.3954
-1.3852
-1.4005
-1.3903
-1.3954
-1.3928
-1.3928
-1.3979
-1.3954
-1.3928
-1.3928
-1.3903
-1.4005
-1.3877
-1.3979
-1.3877
-1.3979
-1.3877
-1.2935
-1.0923
-0.70253
0.069291
1.1621
2.4051
3.6304
3.6456
3.6456
3.6456
3.6456
3.6456
3.6431
3.6507
3.6507
3.6431
3.5667
3.2839
2.8738
2.3873
1.8829
1.3684
0.87932
0.40808
-0.037694
-0.42742
-0.79932
-1.133
-1.3979
-1.3903
-1.3903
-1.3877
-1.3852
-1.3954
-1.3954
-1.3903
-1.3979
-1.3928
-1.3928
-1.4005
-1.3903
-1.3903
-1.3903
-1.3852
-1.3954
-1.3928
-1.3928
-1.3903
-1.3419
-1.2298
-1.0209
-0.62356
0.092216
1.1213
2.3134
3.4979
3.6456
3.6507
3.6431
3.6405
3.638
3.6405
3.6456
3.6431
3.6456
3.5106
3.2024
2.7847
2.3109
1.8116
1.3251
0.84111
0.39789
-0.024958
-0.41978
-0.76876
-1.0846
-1.3572
-1.3903
-1.3877
-1.3877
-1.3877
-1.3928
-1.3877
-1.3877
-1.3979
-1.3979
-1.3877
-1.3928
-1.3928
-1.3903
-1.3928
-1.3954
-1.3928
-1.3928
-1.3801
-1.3317
-1.2527
-1.1407
-0.94707
-0.65158
-0.1243
0.68827
1.7327
2.8331
3.6507
3.6405
3.6456
3.6482
3.6456
3.6456
3.6405
3.6431
3.6405
3.5157
3.2152
2.8025
2.3516
1.8753
1.3862
0.93536
0.49723
0.07948
-0.28478
-0.61337
-0.91395
-1.161
-1.375
-1.3877
-1.3903
-1.3928
-1.3928
-1.3979
-1.3928
-1.3928
-1.4005
-1.3954
-1.3852
-1.3928
-1.3903
-1.3877
-1.3903
-1.3674
-1.3215
-1.2476
-1.1559
-1.0107
-0.7713
-0.38922
0.25015
1.1519
2.2013
3.2636
3.6456
3.6507
3.6456
3.6507
3.6507
3.6405
3.6431
3.6456
3.6125
3.3884
3.019
2.5911
2.1224
1.6486
1.1799
0.72903
0.31128
-0.068261
-0.42488
-0.73564
-1.0082
-1.2425
-1.3979
-1.3928
-1.3903
-1.4005
-1.3979
-1.3928
-1.3903
-1.3903
-1.3979
-1.3928
-1.3928
-1.3877
-1.3979
-1.3852
-1.3826
-1.3572
-1.2935
-1.1941
-1.0413
-0.78404
-0.29751
0.50742
1.5696
2.749
3.638
3.6405
3.6456
3.6456
3.6456
3.6456
3.6482
3.6456
3.6456
3.6456
3.4699
3.1158
2.6675
2.181
1.6715
1.1672
0.68573
0.21448
-0.20072
-0.58535
-0.92414
-1.2425
-1.3928
-1.3903
-1.3928
-1.3979
-1.3954
-1.3903
-1.3954
-1.4005
-1.3903
-1.3877
-1.3928
-1.3928
-1.3954
-1.3928
-1.4005
-1.4005
-1.3928
-1.3979
-1.3852
-1.3215
-1.1941
-0.94961
-0.52422
0.20684
1.2207
2.3695
3.5004
3.6456
3.6405
3.6456
3.6431
3.6456
3.6507
3.6507
3.638
3.6482
3.4648
3.1184
2.6853
2.1912
1.697
1.2054
0.71375
0.26543
-0.15487
-0.52167
-0.87574
-1.1712
-1.3852
-1.3979
-1.4005
-1.3954
-1.3979
-1.3979
-1.3928
-1.3928
-1.3928
-1.3852
-1.3928
-1.4005
-1.3928
-1.3852
-1.3954
-1.3928
-1.3979
-1.3928
-1.3801
-1.3113
-1.2069
-1.0286
-0.7331
-0.24402
0.54053
1.5391
2.6369
3.6456
3.6456
3.6507
3.6507
3.6533
3.6456
3.6507
3.6456
3.6456
3.5794
3.312
2.9197
2.4739
1.9823
1.5085
1.0347
0.59657
0.17628
-0.20836
-0.54969
-0.85536
-1.1305
-1.3623
-1.4005
-1.3928
-1.4005
-1.3852
-1.3979
-1.4005
-1.3928
-1.3852
-1.3903
-1.3928
-1.4005
-1.3928
-1.3954
-1.3852
-1.3852
-1.3826
-1.3368
-1.2527
-1.1279
-0.92669
-0.60064
-0.040241
0.77233
1.7658
2.8229
3.6533
3.638
3.6405
3.6405
3.6456
3.6456
3.6405
3.6507
3.6074
3.4037
3.0445
2.6344
2.1784
1.7148
1.2589
0.82073
0.40298
0.015798
-0.32299
-0.62866
-0.90631
-1.133
-1.3342
-1.3877
-1.3877
-1.3954
-1.3903
-1.3903
-1.3852
-1.3979
-1.3928
-1.3903
-1.3928
-1.3903
-1.3852
-1.3852
-1.3776
-1.3292
-1.2375
-1.0719
-0.79168
-0.27968
0.53034
1.5773
2.7133
3.6507
3.6405
3.6456
3.6431
3.6507
3.6507
3.638
3.6456
3.6507
3.582
3.3349
2.9477
2.4968
2.0052
1.5059
1.0271
0.54818
0.11769
-0.28478
-0.64139
-0.9598
-1.2553
-1.3852
-1.3877
-1.3928
-1.3903
-1.403
-1.3954
-1.4005
-1.3928
-1.3852
-1.3852
-1.3928
-1.3903
-1.3928
-1.3928
-1.3928
-1.3903
-1.3954
-1.3877
-1.3419
-1.2094
-0.96999
-0.51658
0.296
1.376
2.5962
3.6456
3.6456
3.6405
3.6533
3.6482
3.6456
3.6456
3.6456
3.6405
3.638
3.5514
3.2381
2.8331
2.3516
1.8473
1.3455
0.86149
0.38515
-0.05043
-0.44016
-0.80697
-1.1305
-1.3877
-1.3954
-1.3979
-1.3954
-1.3979
-1.3877
-1.3928
-1.3928
-1.4005
-1.3852
-1.3852
-1.3979
-1.3928
-1.3954
-1.3979
-1.3852
-1.3979
-1.3852
-1.3979
-1.3852
-1.2578
-0.99801
-0.46054
0.40043
1.5161
2.7006
3.6456
3.638
3.6507
3.6456
3.6507
3.6533
3.638
3.6507
3.6456
3.6049
3.3705
2.991
2.535
2.0409
1.5492
1.0602
0.59148
0.14316
-0.25931
-0.63375
-0.96235
-1.2604
-1.3954
-1.4005
-1.3928
-1.3928
-1.3903
-1.3954
-1.4005
-1.3852
-1.3928
-1.3877
-1.3979
-1.4005
-1.3852
-1.3928
-1.3928
-1.3903
-1.3903
-1.3928
-1.3776
-1.3113
-1.1712
-0.91395
-0.46563
0.30873
1.3251
2.4765
3.6074
3.6405
3.6507
3.6456
3.638
3.6456
3.6507
3.6456
3.6456
3.6125
3.3731
3.0063
2.5503
2.0893
1.5976
1.129
0.67554
0.25779
-0.13958
-0.49111
-0.80187
-1.0948
-1.3393
-1.3954
-1.3979
-1.3954
-1.3954
-1.3979
-1.3979
-1.3852
-1.3954
-1.3928
-1.3928
-1.3877
-1.3852
-1.3903
-1.3928
-1.3954
-1.3852
-1.3648
-1.2629
-1.077
-0.74583
-0.1243
0.79017
1.9033
3.0343
3.6482
3.6507
3.638
3.6456
3.6405
3.6507
3.6456
3.6456
3.638
3.4342
3.0929
2.67
2.209
1.7428
1.2614
0.81309
0.37496
-0.012221
-0.38157
-0.71526
-0.99546
-1.2502
-1.3928
-1.3903
-1.3979
-1.3928
-1.3928
-1.3852
-1.403
-1.3928
-1.3928
-1.3928
-1.3877
-1.3954
-1.3852
-1.3852
-1.3979
-1.3852
-1.2986
-1.0897
-0.6363
0.20684
1.3251
2.558
3.6507
3.6507
3.6456
3.6456
3.6456
3.6405
3.6482
3.6456
3.6456
3.638
3.4724
3.126
2.6853
2.1861
1.6843
1.1799
0.69337
0.22467
-0.20581
-0.59045
-0.94707
-1.2808
-1.3928
-1.4005
-1.3928
-1.3979
-1.3877
-1.3928
-1.3928
-1.3954
-1.3928
-1.3928
-1.3852
-1.3954
-1.3852
-1.3903
-1.3928
-1.3852
-1.3903
-1.3877
-1.3852
-1.2757
-0.98018
-0.33318
0.66535
1.9059
3.1387
3.6482
3.6405
3.6456
3.6456
3.6482
3.6431
3.6431
3.6456
3.6533
3.6049
3.3451
2.9451
2.4714
1.9772
1.4779
0.97866
0.49723
0.056555
-0.35355
-0.73564
-1.0668
-1.3648
-1.3928
-1.3979
-1.3928
-1.3979
-1.3928
-1.4005
-1.3979
-1.3979
-1.3928
-1.4005
-1.3877
-1.3979
-1.3852
-1.3928
-1.4005
-1.3877
-1.3979
-1.3852
-1.3979
-1.3368
-1.1687
-0.8197
-0.10647
0.95064
2.1835
3.4138
3.6456
3.6456
3.6405
3.6456
3.638
3.638
3.6456
3.6456
3.6456
3.5565
3.2585
2.8433
2.3746
1.8906
1.3888
0.92008
0.45902
0.020893
-0.37393
-0.72036
-1.049
-1.3342
-1.3852
-1.4005
-1.3852
-1.3954
-1.3928
-1.3903
-1.3903
-1.3928
-1.3852
-1.4005
-1.3979
-1.3852
-1.3903
-1.3979
-1.3928
-1.3928
-1.3903
-1.3852
-1.3776
-1.3011
-1.1279
-0.82734
-0.23383
0.71884
1.8906
3.0929
3.6482
3.6405
3.6533
3.6405
3.6456
3.6456
3.6405
3.6456
3.638
3.5259
3.2304
2.8127
2.3593
1.8855
1.3964
0.92262
0.47685
0.069291
-0.30516
-0.65158
-0.9598
-1.2349
-1.3903
-1.3954
-1.3852
-1.3903
-1.3979
-1.3877
-1.3877
-1.3979
-1.3979
-1.3852
-1.4005
-1.3954
-1.3852
-1.3979
-1.3928
-1.3903
-1.3852
-1.3699
-1.2935
-1.0897
-0.73819
-0.060619
0.90734
2.0536
3.2304
3.6507
3.6456
3.6456
3.6507
3.6456
3.6456
3.6507
3.6456
3.6355
3.4393
3.0954
2.6548
2.1759
1.6919
1.213
0.75705
0.32402
-0.07845
-0.42488
-0.75093
-1.0413
-1.296
-1.3877
-1.3852
-1.3979
-1.3877
-1.3928
-1.3928
-1.3979
-1.3928
-1.3903
-1.3928
-1.3928
-1.3852
-1.3877
-1.3928
-1.3903
-1.3521
-1.1687
-0.72545
0.10241
1.2614
2.5427
3.6456
3.6456
3.6431
3.6405
3.6405
3.6507
3.6507
3.638
3.6405
3.638
3.6176
3.3603
2.9859
2.507
2.0179
1.4958
0.99904
0.51506
0.056555
-0.3561
-0.74838
-1.105
-1.3928
-1.3903
-1.3954
-1.3877
-1.3928
-1.3903
-1.3852
-1.3928
-1.3979
-1.3852
-1.3954
-1.3979
-1.3852
-1.3928
-1.3877
-1.3928
-1.3928
-1.3826
-1.1559
-0.53696
0.431
1.6002
2.7719
3.6405
3.638
3.6456
3.6482
3.6456
3.6533
3.6405
3.6482
3.6431
3.475
3.1413
2.7057
2.209
1.7072
1.2079
0.73413
0.26543
-0.14977
-0.5395
-0.88338
-1.2018
-1.3928
-1.3877
-1.3954
-1.3928
-1.3954
-1.3954
-1.3877
-1.3852
-1.3877
-1.3903
-1.3852
-1.4005
-1.3928
-1.3877
-1.3979
-1.3928
-1.3928
-1.3903
-1.2222
-0.72291
0.18901
1.3684
2.6013
3.6456
3.6482
3.6456
3.6456
3.6456
3.6456
3.6507
3.6456
3.6202
3.3986
3.0445
2.5987
2.1275
1.6409
1.1672
0.71629
0.28581
-0.11921
-0.47328
-0.80187
-1.0872
-1.3444
-1.3852
-1.3877
-1.3877
-1.3928
-1.4005
-1.3903
-1.3928
-1.3928
-1.3979
-1.3852
-1.3954
-1.3852
-1.3877
-1.3979
-1.3877
-1.3393
-1.0897
-0.49111
0.48449
1.6893
2.8738
3.6482
3.6507
3.638
3.6507
3.6507
3.6456
3.6456
3.638
3.5157
3.2101
2.8203
2.3873
1.9364
1.4932
1.0551
0.63988
0.26034
-0.098828
-0.42233
-0.71272
-0.96999
-1.1941
-1.3852
-1.3979
-1.3954
-1.3903
-1.3903
-1.4005
-1.3928
-1.3852
-1.3928
-1.3877
-1.3928
-1.3979
-1.4005
-1.2706
-0.80697
0.14571
1.3506
2.5503
3.6074
3.6507
3.6431
3.6405
3.6431
3.6456
3.6507
3.6507
3.6431
3.4801
3.1438
2.721
2.2574
1.7912
1.3378
0.91498
0.50742
0.13807
-0.216
-0.52932
-0.8197
-1.0897
-1.3317
-1.3928
-1.3928
-1.3877
-1.3954
-1.3877
-1.3903
-1.3928
-1.3928
-1.3928
-1.3928
-1.3979
-1.3903
-1.3903
-1.3292
-0.85791
0.071838
1.2028
2.293
3.233
3.6456
3.6456
3.6507
3.6405
3.6405
3.6405
3.6507
3.4877
3.1719
2.7516
2.3058
1.8294
1.3888
0.95828
0.55327
0.18901
-0.14468
-0.43507
-0.70508
-0.94961
-1.1661
-1.3572
-1.3852
-1.3852
-1.3954
-1.3928
-1.3928
-1.3979
-1.3928
-1.3954
-1.3954
-1.3979
-1.3954
-1.3852
-1.3979
-1.3546
-0.98782
-0.17015
0.90734
1.995
2.9375
3.6456
3.6456
3.6456
3.6456
3.638
3.6456
3.5259
3.2203
2.8254
2.3567
1.9084
1.4575
1.0474
0.67299
0.33675
0.015798
-0.26185
-0.50894
-0.73055
-0.94707
-1.1305
-1.2833
-1.3928
-1.3928
-1.3903
-1.3979
-1.3928
-1.4005
-1.3877
-1.3903
-1.3928
-1.3877
-1.3877
-1.2859
-0.9165
-0.11156
1.0041
2.1224
3.1184
3.638
3.6507
3.6507
3.6482
3.6456
3.6456
3.6049
3.3731
3.0267
2.6064
2.1682
1.753
1.3608
0.98376
0.63988
0.32911
0.038724
-0.20836
-0.44526
-0.66177
-0.86046
-1.0388
-1.1967
-1.3393
-1.3928
-1.3928
-1.3903
-1.3954
-1.3928
-1.3954
-1.3928
-1.3979
-1.3826
-1.2273
-0.61337
0.40553
1.5492
2.586
3.4648
3.6456
3.6456
3.638
3.6405
3.6456
3.6482
3.6456
3.5208
3.2203
2.8356
2.3975
1.9441
1.4907
1.0525
0.6628
0.28836
-0.042789
-0.34337
-0.61337
-0.84772
-1.0719
-1.2655
-1.3979
-1.3979
-1.3928
-1.3928
-1.3903
-1.3979
-1.3928
-1.3954
-1.3928
-1.3903
-1.3877
-1.296
-0.72036
0.25015
1.3098
2.293
3.1005
3.6507
3.6405
3.6482
3.6405
3.6507
3.6456
3.5285
3.2508
2.8611
2.4306
1.9874
1.5467
1.1366
0.74941
0.38515
0.076933
-0.20581
-0.4478
-0.6847
-0.87829
-1.0617
-1.2222
-1.3572
-1.3928
-1.3928
-1.3928
-1.3903
-1.3979
-1.3877
-1.3877
-1.4005
-1.3699
-1.0744
-0.34337
0.65261
1.646
2.535
3.2661
3.6456
3.638
3.6456
3.638
3.6431
3.6507
3.5387
3.2788
2.9299
2.5096
2.074
1.646
1.2308
0.83347
0.46921
0.12533
-0.18289
-0.47837
-0.71526
-0.94452
-1.1458
-1.3292
-1.3928
-1.3979
-1.3852
-1.4005
-1.3954
-1.3954
-1.3928
-1.3877
-1.3928
-1.3979
-1.3877
-1.3928
-1.1508
-0.42488
0.57874
1.6206
2.5503
3.3094
3.6405
3.6456
3.6507
3.6507
3.638
3.6355
3.4826
3.1871
2.8127
2.3898
1.9594
1.5442
1.1417
0.76215
0.42336
0.099858
-0.17525
-0.43252
-0.65923
-0.87065
-1.0642
-1.2349
-1.3852
-1.3903
-1.3852
-1.3979
-1.3928
-1.3928
-1.3954
-1.3903
-1.3979
-1.3877
-1.3928
-1.3979
-1.3928
-1.2706
-0.69489
0.27562
1.3786
2.423
3.2916
3.6456
3.6482
3.6482
3.6456
3.6456
3.638
3.5947
3.3629
3.0165
2.5987
2.1784
1.7479
1.3506
0.96338
0.61186
0.28326
-0.0096741
-0.26185
-0.51148
-0.73055
-0.9165
-1.0999
-1.2629
-1.3928
-1.3979
-1.3979
-1.4005
-1.3928
-1.3877
-1.3928
-1.3979
-1.4005
-1.3928
-1.3928
-1.3928
-1.3903
-1.2757
-0.79932
0.14316
1.2869
2.4153
3.3603
3.6533
3.6456
3.6456
3.6482
3.6405
3.6533
3.6431
3.4852
3.1795
2.805
2.3898
1.9721
1.5696
1.1977
0.8462
0.5278
0.22722
-0.040241
-0.29497
-0.51913
-0.728
-0.90886
-1.077
-1.2196
-1.3546
-1.4005
-1.4005
-1.3954
-1.3979
-1.3852
-1.3954
-1.3903
-1.3979
-1.3877
-1.3776
-1.1381
-0.4529
0.58638
1.7225
2.7439
3.6074
3.6456
3.638
3.6482
3.6507
3.6507
3.6456
3.638
3.5565
3.2992
2.9477
2.5478
2.1428
1.7327
1.3404
0.98121
0.63224
0.28836
-0.0045796
-0.26949
-0.51658
-0.74838
-0.93942
-1.1228
-1.2859
-1.3928
-1.3928
-1.3928
-1.3928
-1.3954
-1.4005
-1.3903
-1.3979
-1.3903
-1.4005
-1.3979
-1.3419
-0.89103
0.0081567
1.0958
2.1351
3.047
3.6507
3.6456
3.6482
3.6507
3.6456
3.6456
3.6405
3.6431
3.4979
3.2024
2.8305
2.4153
1.9874
1.5645
1.1595
0.75196
0.38006
0.02344
-0.29497
-0.58281
-0.85282
-1.0974
-1.2986
-1.3979
-1.3903
-1.3877
-1.3928
-1.3979
-1.3877
-1.3903
-1.3928
-1.3877
-1.3903
-1.3954
-1.3852
-1.3928
-1.3979
-1.3801
-0.99801
-0.14213
0.93536
2.0001
2.935
3.6507
3.6507
3.6507
3.638
3.6405
3.638
3.6507
3.5692
3.3247
2.9681
2.5682
2.13
1.7123
1.3047
0.90989
0.53799
0.18646
-0.11666
-0.41214
-0.67196
-0.91395
-1.1254
-1.3241
-1.3877
-1.3928
-1.3903
-1.4005
-1.3877
-1.3954
-1.3979
-1.3954
-1.3928
-1.3852
-1.4005
-1.3877
-1.4005
-1.3979
-1.3979
-1.3928
-1.3241
-0.91905
-0.065714
1.0602
2.1988
3.2075
3.6507
3.6431
3.6456
3.6456
3.6456
3.6456
3.638
3.4648
3.1515
2.7592
2.3516
1.9441
1.5391
1.1672
0.80035
0.47685
0.17373
-0.11411
-0.36629
-0.60064
-0.81461
-1.0006
-1.1738
-1.319
-1.3979
-1.3877
-1.3979
-1.3979
-1.3979
-1.3877
-1.3928
-1.3877
-1.3928
-1.4005
-1.3903
-1.3903
-1.3903
-1.3877
-1.3699
-1.2909
-1.1228
-0.78914
-0.045336
1.0271
2.2192
3.3018
3.6533
3.6507
3.6507
3.6456
3.6507
3.6456
3.6456
3.475
3.1744
2.8101
2.4204
2.0205
1.6537
1.2894
0.94555
0.62459
0.31892
0.041271
-0.216
-0.44016
-0.63885
-0.83244
-0.98782
-1.1203
-1.2502
-1.3444
-1.3903
-1.3852
-1.3928
-1.3928
-1.3979
-1.3954
-1.3928
-1.3852
-1.3826
-1.3572
-1.319
-1.2553
-1.1738
-1.0464
-0.80697
-0.28733
0.62205
1.7861
2.9528
3.6482
3.6456
3.6456
3.638
3.6482
3.6405
3.6405
3.6227
3.424
3.1158
2.7414
2.3491
1.9517
1.5849
1.2181
0.86149
0.54563
0.24505
-0.027505
-0.28478
-0.52167
-0.72291
-0.90631
-1.0642
-1.2043
-1.3113
-1.3928
-1.3852
-1.3903
-1.3954
-1.3928
-1.3928
-1.3852
-1.3979
-1.4005
-1.3979
-1.3597
-1.2604
-1.0235
-0.46563
0.5278
1.7352
2.9248
3.6431
3.6456
3.6431
3.6482
3.6431
3.6533
3.6456
3.6456
3.6278
3.4495
3.1184
2.7108
2.2752
1.8422
1.4091
1.0067
0.62205
0.26288
-0.065714
-0.36884
-0.65923
-0.90631
-1.1381
-1.3342
-1.3979
-1.3928
-1.3979
-1.3928
-1.3979
-1.3852
-1.4005
-1.3928
-1.3877
-1.3903
-1.3979
-1.4005
-1.3954
-1.3979
-1.3928
-1.2884
-0.84518
0.076933
1.292
2.5045
3.5947
3.638
3.6405
3.6456
3.638
3.6507
3.6405
3.6507
3.6456
3.6074
3.3553
3.0037
2.5529
2.102
1.6409
1.2054
0.76979
0.37751
0.020893
-0.32044
-0.62102
-0.90886
-1.1636
-1.3903
-1.3928
-1.3928
-1.3852
-1.3979
-1.3852
-1.3928
-1.3928
-1.4005
-1.3877
-1.3928
-1.3979
-1.3979
-1.3928
-1.3903
-1.4005
-1.3954
-1.3903
-1.3368
-0.97254
-0.1243
1.0678
2.3109
3.4215
3.6456
3.638
3.6405
3.6456
3.6482
3.6507
3.6456
3.6482
3.6151
3.4037
3.0521
2.6395
2.1759
1.7301
1.2971
0.87168
0.46666
0.099858
-0.23129
-0.54969
-0.8197
-1.0872
-1.3088
-1.3979
-1.3852
-1.3928
-1.3928
-1.3928
-1.3928
-1.3877
-1.3852
-1.3928
-1.3928
-1.3877
-1.403
-1.3928
-1.3928
-1.3954
-1.3928
-1.3852
-1.3877
-1.375
-1.2502
-0.82734
0.056555
1.2792
2.5529
3.6456
3.638
3.6456
3.6482
3.6405
3.6482
3.6456
3.6405
3.6533
3.6405
3.4342
3.1158
2.7006
2.2752
1.8218
1.4015
0.97612
0.58129
0.21448
-0.13194
-0.45035
-0.74328
-0.99801
-1.2298
-1.3877
-1.3928
-1.3928
-1.3928
-1.3954
-1.4005
-1.3877
-1.4005
-1.3979
-1.3877
-1.3979
-1.3852
-1.3954
-1.3928
-1.3928
-1.3928
-1.3877
-1.3852
-1.3928
-1.3419
-1.184
-0.75857
0.07948
1.264
2.5554
3.6456
3.6456
3.6482
3.6507
3.6456
3.638
3.6431
3.6507
3.6456
3.6304
3.4189
3.0903
2.6675
2.2294
1.7785
1.3327
0.91753
0.51761
0.15335
-0.18544
-0.49365
-0.78149
-1.0362
-1.2578
-1.3877
-1.3928
-1.3928
-1.3979
-1.3852
-1.3928
-1.3954
-1.3928
-1.3928
-1.3979
-1.3928
-1.3954
-1.3928
-1.3928
-1.3903
-1.3877
-1.3979
-1.3903
-1.3623
-1.2604
-1.0158
-0.45035
0.5278
1.7836
3.0419
3.6533
3.6456
3.638
3.6482
3.6456
3.6456
3.638
3.6456
3.6456
3.559
3.2992
2.9222
2.4968
2.0638
1.618
1.1926
0.78507
0.39279
0.033629
-0.29751
-0.59809
-0.8732
-1.1101
-1.3266
-1.3903
-1.3877
-1.3928
-1.3928
-1.3928
-1.3979
-1.3954
-1.3954
-1.3928
-1.3852
-1.4005
-1.3928
-1.3954
-1.3928
-1.3928
-1.3928
-1.3903
-1.3852
-1.3241
-1.1508
-0.7331
0.12024
1.3429
2.6726
3.6507
3.6456
3.6456
3.6456
3.6405
3.6456
3.6456
3.6405
3.638
3.638
3.5947
3.3451
2.9834
2.5478
2.0816
1.6155
1.1697
0.72394
0.31892
-0.068261
-0.42233
-0.74583
-1.0439
-1.2909
-1.3954
-1.3928
-1.3877
-1.3954
-1.3928
-1.3979
-1.3928
-1.3877
-1.3877
-1.3979
-1.3928
-1.3979
-1.3852
-1.3928
-1.3928
-1.3903
-1.3928
-1.3928
-1.3979
-1.3852
-1.3266
-1.0872
-0.47837
0.5711
1.8549
3.1362
3.6533
3.638
3.6507
3.6533
3.638
3.6507
3.6456
3.638
3.6405
3.6304
3.4215
3.0649
2.6471
2.181
1.7225
1.2665
0.83092
0.41827
0.036177
-0.32553
-0.65413
-0.94197
-1.2094
-1.3928
-1.3954
-1.3979
-1.3928
-1.4005
-1.3877
-1.3877
-1.3979
-1.3852
-1.3928
-1.3979
-1.3852
-1.403
-1.3877
-1.3928
-1.3928
-1.3928
-1.3877
-1.3928
-1.3877
-1.3317
-1.1279
-0.65923
0.24505
1.4652
2.7592
3.6431
3.6456
3.6482
3.6482
3.6456
3.6456
3.6456
3.638
3.6456
3.6304
3.4419
3.1005
2.6853
2.2192
1.7709
1.3124
0.87422
0.45902
0.07948
-0.28223
-0.60319
-0.90121
-1.1534
-1.3928
-1.4005
-1.3979
-1.3979
-1.3877
-1.3979
-1.3928
-1.4005
-1.3877
-1.3979
-1.3852
-1.3954
-1.3928
-1.4005
-1.3928
-1.3928
-1.3877
-1.3877
-1.3928
-1.3546
-1.1992
-0.87829
-0.18289
0.87168
2.1275
3.3323
3.6456
3.6456
3.6405
3.6482
3.6456
3.6482
3.6482
3.6456
3.6304
3.424
3.0827
2.6879
2.2421
1.7912
1.3557
0.93536
0.52016
0.1559
-0.20327
-0.51403
-0.79678
-1.0541
-1.2808
-1.3903
-1.4005
-1.3852
-1.3852
-1.3928
-1.3903
-1.3954
-1.3877
-1.3852
-1.3852
-1.3903
-1.3877
-1.3979
-1.3928
-1.3903
-1.3648
-1.1891
-0.71017
0.21958
1.4499
2.7261
3.6405
3.6456
3.6482
3.6507
3.6456
3.6456
3.638
3.6456
3.6456
3.6456
3.4852
3.1642
2.7337
2.2778
1.7963
1.3225
0.85894
0.42336
0.013251
-0.35865
-0.70508
-1.0158
-1.3011
-1.3954
-1.3877
-1.3903
-1.3979
-1.3954
-1.3979
-1.3877
-1.3903
-1.4005
-1.3979
-1.3928
-1.3954
-1.3979
-1.4005
-1.3954
-1.3928
-1.3954
-1.3928
-1.3801
-1.1687
-0.53186
0.54053
1.8524
3.1158
3.6456
3.638
3.6533
3.6405
3.6482
3.6405
3.6456
3.6482
3.6456
3.6456
3.475
3.126
2.7006
2.2243
1.7327
1.2512
0.77998
0.34949
-0.063167
-0.43507
-0.77895
-1.0897
-1.3699
-1.3928
-1.3852
-1.4005
-1.3928
-1.3928
-1.3928
-1.3852
-1.3903
-1.3928
-1.3928
-1.3877
-1.4005
-1.3928
-1.3954
-1.3852
-1.3852
-1.3852
-1.3852
-1.3928
-1.3725
-1.161
-0.57007
0.45393
1.7352
3.019
3.6533
3.6456
3.6456
3.6456
3.6456
3.6456
3.6507
3.6456
3.6405
3.6482
3.4622
3.1235
2.6981
2.2319
1.753
1.2843
0.82328
0.39279
-0.017316
-0.38157
-0.71272
-1.0311
-1.3062
-1.3852
-1.4005
-1.3877
-1.3928
-1.3877
-1.4005
-1.3877
-1.3979
-1.3979
-1.3979
-1.3928
-1.3928
-1.3928
-1.3928
-1.4005
-1.3979
-1.3979
-1.3928
-1.3877
-1.3877
-1.2425
-0.89612
-0.12175
1.0194
2.316
3.5565
3.6456
3.6533
3.6507
3.6456
3.6482
3.6456
3.6405
3.6507
3.6456
3.5387
3.2355
2.8407
2.3873
1.9211
1.4499
0.98885
0.55836
0.15335
-0.23129
-0.56752
-0.88338
-1.1636
-1.3928
-1.3852
-1.3903
-1.4005
-1.3928
-1.3954
-1.3877
-1.3928
-1.3928
-1.3928
-1.3979
-1.4005
-1.3979
-1.3852
-1.3979
-1.3928
-1.3903
-1.3852
-1.3979
-1.3852
-1.319
-1.1712
-0.87065
-0.25421
0.74177
1.9594
3.2203
3.6482
3.6456
3.6533
3.6507
3.6507
3.6507
3.6405
3.6507
3.6507
3.5438
3.2636
2.8611
2.423
1.9568
1.4856
1.0398
0.60931
0.2043
-0.17015
-0.50639
-0.81206
-1.0897
-1.3342
-1.3877
-1.3928
-1.4005
-1.3979
-1.3928
-1.3979
-1.4005
-1.3852
-1.3928
-1.3877
-1.3928
-1.3954
-1.3928
-1.4005
-1.3852
-1.4005
-1.3801
-1.3037
-1.1126
-0.6847
0.10241
1.2181
2.4612
3.6355
3.6456
3.6456
3.638
3.6431
3.6456
3.6405
3.6456
3.6456
3.5871
3.3349
2.9579
2.5376
2.0689
1.6155
1.1595
0.71629
0.30619
-0.065714
-0.41469
-0.73819
-1.0286
-1.2782
-1.3979
-1.3852
-1.3877
-1.3979
-1.3903
-1.3928
-1.3954
-1.3928
-1.3954
-1.3877
-1.3979
-1.3928
-1.4005
-1.3877
-1.3979
-1.3903
-1.3725
-1.2324
-0.86046
-0.086092
1.0704
2.3797
3.6405
3.6456
3.6482
3.6456
3.6456
3.6456
3.6456
3.6507
3.6456
3.6456
3.6049
3.3705
2.9706
2.5147
2.0256
1.5136
1.0322
0.56091
0.12024
-0.29242
-0.65923
-1.0031
-1.3113
-1.3979
-1.3928
-1.3928
-1.3852
-1.4005
-1.3877
-1.3928
-1.3954
-1.3877
-1.3928
-1.3979
-1.3928
-1.3954
-1.3928
-1.3903
-1.3979
-1.3852
-1.3928
-1.3928
-1.3139
-0.94961
-0.15232
1.0067
2.3134
3.5539
3.6482
3.638
3.6482
3.6405
3.6456
3.6405
3.6533
3.6456
3.6456
3.5718
3.2737
2.8585
2.3873
1.8982
1.3964
0.91753
0.46157
0.036177
-0.37393
-0.72291
-1.0591
-1.347
-1.3928
-1.3979
-1.3928
-1.3903
-1.4005
-1.3903
-1.3877
-1.3928
-1.3954
-1.3928
-1.3979
-1.3852
-1.3928
-1.3928
-1.3852
-1.3954
-1.3903
-1.3928
-1.3903
-1.3776
-1.2145
-0.78659
0.074385
1.269
2.5656
3.6507
3.6456
3.6507
3.6405
3.6507
3.6405
3.6482
3.6456
3.6456
3.638
3.5081
3.1999
2.7745
2.2981
1.8193
1.3353
0.86913
0.41572
0.015798
-0.38157
-0.728
-1.0388
-1.3215
-1.4005
-1.3877
-1.3903
-1.3979
-1.3954
-1.4005
-1.3877
-1.3928
-1.4005
-1.3903
-1.3877
-1.3954
-1.3877
-1.3852
-1.3928
-1.3877
-1.3852
-1.3979
-1.3903
-1.347
-1.1585
-0.74583
0.056555
1.1824
2.4484
3.638
3.6431
3.6456
3.6456
3.6482
3.6507
3.6456
3.6456
3.6456
3.6253
3.4215
3.0725
2.6548
2.1835
1.7072
1.2436
0.79271
0.35458
-0.040241
-0.3994
-0.73564
-1.0362
-1.2935
-1.3903
-1.3954
-1.3903
-1.3877
-1.3928
-1.3954
-1.3954
-1.3877
-1.3852
-1.3979
-1.3928
-1.3954
-1.3852
-1.4005
-1.3979
-1.3928
-1.3852
-1.3139
-1.0846
-0.55224
0.35968
1.5416
2.8076
3.6456
3.6456
3.6405
3.6456
3.6456
3.6507
3.6405
3.6431
3.6507
3.5794
3.312
2.9299
2.4688
2.0001
1.5263
1.0576
0.6144
0.18901
-0.20072
-0.55224
-0.88084
-1.1661
-1.3877
-1.3877
-1.3877
-1.3903
-1.3903
-1.3928
-1.3928
-1.3954
-1.3954
-1.3954
-1.3928
-1.3903
-1.3928
-1.3877
-1.3852
-1.3928
-1.3928
-1.3928
-1.2629
-0.8681
-0.063167
1.1213
2.4459
3.6405
3.6482
3.638
3.6456
3.6456
3.6507
3.6456
3.6456
3.6482
3.638
3.6151
3.3807
2.9986
2.5401
2.0332
1.5314
1.0372
0.55582
0.12024
-0.30261
-0.6796
-1.0286
-1.3342
-1.3954
-1.3903
-1.3877
-1.3903
-1.3877
-1.3928
-1.3852
-1.3852
-1.3928
-1.3979
-1.4005
-1.3877
-1.3852
-1.3928
-1.3979
-1.4005
-1.3928
-1.3903
-1.3928
-1.3241
-0.9649
-0.16251
1.0092
2.3236
3.5769
3.6456
3.6482
3.6405
3.6456
3.6405
3.6482
3.6405
3.6431
3.6507
3.5871
3.317
2.9222
2.4535
1.9594
1.455
0.97866
0.50997
0.087122
-0.32808
-0.68979
-1.0184
-1.3266
-1.3928
-1.3877
-1.3928
-1.3979
-1.4005
-1.3877
-1.3954
-1.4005
-1.3852
-1.3877
-1.3928
-1.4005
-1.3954
-1.3928
-1.3877
-1.3877
-1.3928
-1.3979
-1.3928
-1.3776
-1.2425
-0.81716
0.025987
1.2156
2.5299
3.6507
3.6507
3.638
3.6482
3.6482
3.6456
3.638
3.638
3.6507
3.6405
3.5285
3.2101
2.7821
2.3134
1.8294
1.348
0.86658
0.42336
0.0056094
-0.37903
-0.7331
-1.049
-1.3419
-1.403
-1.3928
-1.3954
-1.3877
-1.3903
-1.4005
-1.3979
-1.3979
-1.3928
-1.3979
-1.3928
-1.3954
-1.3928
-1.3928
-1.3877
-1.3928
-1.3954
-1.3903
-1.3903
-1.347
-1.1712
-0.79423
-0.027505
1.0678
2.3262
3.5412
3.6456
3.6431
3.6482
3.6405
3.6456
3.6456
3.6431
3.6456
3.6456
3.4571
3.126
2.7108
2.2523
1.776
1.3124
0.86658
0.42336
0.031082
-0.33572
-0.66687
-0.9649
-1.2349
-1.3928
-1.3954
-1.3903
-1.3852
-1.3954
-1.4005
-1.3928
-1.3928
-1.3928
-1.4005
-1.3928
-1.3979
-1.3928
-1.3954
-1.3928
-1.3979
-1.3419
-1.1126
-0.54715
0.43355
1.6741
2.9528
3.6405
3.6456
3.6456
3.6533
3.6507
3.6456
3.6507
3.6482
3.6482
3.6074
3.3731
2.9884
2.5299
2.0485
1.5543
1.0627
0.60167
0.16609
-0.22619
-0.60064
-0.94197
-1.2476
-1.3928
-1.3852
-1.3979
-1.3928
-1.3877
-1.3928
-1.4005
-1.3928
-1.3954
-1.3852
-1.3954
-1.3954
-1.3979
-1.3903
-1.3928
-1.3877
-1.3928
-1.3903
-1.3444
-1.0311
-0.26185
0.8946
2.2217
3.5055
3.6456
3.6456
3.638
3.6456
3.6456
3.6507
3.6507
3.6533
3.6507
3.6456
3.4495
3.0852
2.6369
2.1326
1.6257
1.1213
0.63733
0.18392
-0.24912
-0.63121
-0.98527
-1.3113
-1.3928
-1.4005
-1.4005
-1.3954
-1.3928
-1.3954
-1.3928
-1.3928
-1.3928
-1.4005
-1.3954
-1.3877
-1.3877
-1.3877
-1.3928
-1.3979
-1.3979
-1.3852
-1.3928
-1.161
-0.46309
0.62714
1.9135
3.1642
3.6456
3.6456
3.6456
3.6405
3.638
3.6507
3.638
3.6431
3.6456
3.5998
3.3629
2.963
2.4968
2.0052
1.4958
1.0067
0.54053
0.092216
-0.31789
-0.6847
-1.0286
-1.3266
-1.3877
-1.3928
-1.4005
-1.3954
-1.3979
-1.3877
-1.3928
-1.3928
-1.3903
-1.3928
-1.3928
-1.3954
-1.3877
-1.3928
-1.4005
-1.3877
-1.3928
-1.3928
-1.2604
-0.7331
0.22213
1.4575
2.721
3.6507
3.6431
3.6456
3.6456
3.6456
3.6456
3.6456
3.6456
3.638
3.5692
3.2788
2.8713
2.4153
1.9339
1.455
0.9863
0.54053
0.11514
-0.27459
-0.62102
-0.93942
-1.2247
-1.3903
-1.4005
-1.3954
-1.3852
-1.3979
-1.3928
-1.3928
-1.3928
-1.3979
-1.3928
-1.3979
-1.3928
-1.3852
-1.3954
-1.4005
-1.3903
-1.3521
-1.0057
-0.19053
1.0041
2.3109
3.5412
3.6456
3.6456
3.6507
3.6456
3.6456
3.6456
3.638
3.6507
3.6456
3.6151
3.3782
2.9859
2.5401
2.0587
1.5518
1.078
0.59657
0.16099
-0.26695
-0.65158
-1.0031
-1.3139
-1.3928
-1.3928
-1.3954
-1.3903
-1.3979
-1.3928
-1.3903
-1.3877
-1.3928
-1.3928
-1.3954
-1.3954
-1.3979
-1.3928
-1.3852
-1.3852
-1.3852
-1.2553
-0.60828
0.47685
1.776
3.0292
3.638
3.6405
3.6405
3.6482
3.6456
3.6405
3.6405
3.6405
3.6456
3.638
3.4444
3.0751
2.6216
2.1249
1.6231
1.1111
0.64242
0.17373
-0.24402
-0.63121
-0.99037
-1.3113
-1.3877
-1.3928
-1.3954
-1.3954
-1.4005
-1.3928
-1.3954
-1.3928
-1.3877
-1.3928
-1.3928
-1.3928
-1.3979
-1.3852
-1.3928
-1.4005
-1.3979
-1.2375
-0.56243
0.53289
1.8091
3.0318
3.6507
3.6507
3.6456
3.6507
3.6456
3.6507
3.6456
3.6431
3.638
3.5234
3.2075
2.7796
2.3032
1.7989
1.3022
0.81054
0.34185
-0.075903
-0.47582
-0.83499
-1.1585
-1.3877
-1.3979
-1.3903
-1.3979
-1.3877
-1.3979
-1.3928
-1.3928
-1.3954
-1.3903
-1.3928
-1.3928
-1.4005
-1.3903
-1.3928
-1.3979
-1.3648
-0.92414
0.0005149
1.2359
2.4917
3.61
3.6456
3.6431
3.6507
3.6482
3.638
3.6431
3.6456
3.6533
3.5922
3.3323
2.9375
2.479
1.995
1.5085
1.0296
0.56855
0.13807
-0.25676
-0.62611
-0.9598
-1.2731
-1.3979
-1.3979
-1.4005
-1.3852
-1.3852
-1.3928
-1.3928
-1.3852
-1.3928
-1.3979
-1.4005
-1.3903
-1.3877
-1.3877
-1.3877
-1.3928
-1.1534
-0.3612
0.84111
2.1606
3.3705
3.6507
3.6405
3.6456
3.6507
3.6456
3.6507
3.6431
3.6405
3.6456
3.6049
3.3527
2.963
2.5096
1.9976
1.4983
1.0092
0.52525
0.084574
-0.34337
-0.72291
-1.0642
-1.3776
-1.3928
-1.3928
-1.3928
-1.3928
-1.3928
-1.3877
-1.3928
-1.3928
-1.403
-1.3954
-1.3954
-1.3877
-1.3903
-1.3928
-1.3877
-1.4005
-1.3877
-1.3826
-0.94707
0.036177
1.3378
2.6548
3.6507
3.6456
3.6456
3.6482
3.6482
3.638
3.6405
3.6456
3.6456
3.6482
3.5412
3.2355
2.805
2.3211
1.8244
1.3174
0.83092
0.37241
-0.063167
-0.46054
-0.83244
-1.1712
-1.3954
-1.3877
-1.4005
-1.3954
-1.3979
-1.3979
-1.3877
-1.4005
-1.3928
-1.3928
-1.3903
-1.3928
-1.3928
-1.3928
-1.4005
-1.3928
-1.3928
-1.3852
-1.4005
-1.3852
-1.2884
-0.71017
0.36477
1.7021
3.0419
3.6405
3.6456
3.6405
3.6456
3.6456
3.6482
3.6405
3.6405
3.638
3.6329
3.424
3.0623
2.5987
2.1275
1.6308
1.1519
0.69337
0.25779
-0.15232
-0.52167
-0.86555
-1.1636
-1.3928
-1.3979
-1.3928
-1.3852
-1.3954
-1.3903
-1.3928
-1.3928
-1.3877
-1.3979
-1.3928
-1.3928
-1.3979
-1.3903
-1.3928
-1.3877
-1.3928
-1.3928
-1.3979
-1.3928
-1.3699
-1.2145
-0.76366
0.17373
1.4575
2.8203
3.6533
3.6456
3.6456
3.6456
3.638
3.6533
3.6482
3.6456
3.6456
3.6049
3.3705
3.0037
2.558
2.0893
1.618
1.1672
0.72139
0.30619
-0.075903
-0.41978
-0.73819
-1.0158
-1.2782
-1.3928
-1.3877
-1.4005
-1.3877
-1.3877
-1.3928
-1.3954
-1.3928
-1.3928
-1.3954
-1.3903
-1.3852
-1.3954
-1.3928
-1.3903
-1.3928
-1.3852
-1.3852
-1.3139
-1.1152
-0.60064
0.38515
1.6741
3.0394
3.6456
3.6507
3.6507
3.6405
3.6507
3.6507
3.6456
3.6456
3.6507
3.638
3.4215
3.0547
2.6064
2.1224
1.6409
1.1544
0.71375
0.27052
-0.1243
-0.48092
-0.80951
-1.1177
-1.3826
-1.3928
-1.3928
-1.3928
-1.3852
-1.4005
-1.3928
-1.3852
-1.3954
-1.3954
-1.3979
-1.3954
-1.3928
-1.3877
-1.3903
-1.3903
-1.3903
-1.3928
-1.3928
-1.3928
-1.3776
-1.296
-1.1483
-0.83499
-0.14213
0.9863
2.3669
3.6456
3.6456
3.6507
3.6456
3.6482
3.6456
3.6405
3.6405
3.6456
3.6456
3.6482
3.4419
3.0852
2.6293
2.1351
1.6333
1.1366
0.6628
0.21703
-0.19308
-0.58026
-0.92923
-1.2324
-1.3928
-1.3954
-1.3903
-1.3928
-1.3877
-1.3928
-1.4005
-1.3928
-1.3954
-1.3903
-1.4005
-1.3979
-1.3928
-1.3979
-1.3928
-1.3903
-1.3928
-1.3852
-1.3928
-1.4005
-1.3699
-1.3266
-1.2502
-1.1305
-0.93433
-0.59809
0.10241
1.1748
2.4561
3.6405
3.6456
3.6431
3.6456
3.638
3.6507
3.6456
3.6456
3.6482
3.6456
3.5616
3.2712
2.8662
2.4102
1.9135
1.4244
0.9481
0.50742
0.084574
-0.29497
-0.65158
-0.97509
-1.2527
-1.3928
-1.4005
-1.3903
-1.4005
-1.3928
-1.3979
-1.3928
-1.3903
-1.3928
-1.3877
-1.3979
-1.3852
-1.3979
-1.3903
-1.3928
-1.3903
-1.3903
-1.3928
-1.3419
-1.2808
-1.1967
-1.105
-0.97509
-0.7764
-0.47582
0.12024
1.0169
2.1402
3.317
3.6456
3.6405
3.638
3.6456
3.6431
3.6507
3.6456
3.6456
3.6405
3.4419
3.1133
2.6955
2.2421
1.7683
1.3073
0.85894
0.44119
0.048913
-0.30006
-0.61592
-0.89357
-1.1458
-1.3597
-1.3877
-1.3928
-1.3979
-1.3979
-1.3877
-1.3877
-1.3928
-1.3903
-1.3979
-1.3979
-1.3903
-1.3979
-1.3928
-1.3826
-1.347
-1.296
-1.2222
-1.1356
-1.0464
-0.92669
-0.75602
-0.45799
0.082027
0.96338
2.0969
3.3145
3.6533
3.6456
3.638
3.638
3.6507
3.6456
3.6456
3.6456
3.6456
3.61
3.368
2.9884
2.5376
2.0358
1.5518
1.0627
0.59657
0.15844
-0.24402
-0.60573
-0.93178
-1.2247
-1.4005
-1.3954
-1.3877
-1.3979
-1.3928
-1.3903
-1.3877
-1.3928
-1.3852
-1.3877
-1.3954
-1.3979
-1.3928
-1.3928
-1.3979
-1.3928
-1.3877
-1.3877
-1.3444
-1.2884
-1.2171
-1.1101
-0.97763
-0.75857
-0.40195
0.25779
1.2232
2.3618
3.5412
3.6405
3.6456
3.6507
3.6507
3.6431
3.6507
3.6456
3.6456
3.6431
3.4877
3.1668
2.7516
2.2676
1.776
1.292
0.82583
0.37751
-0.040241
-0.41214
-0.74583
-1.0541
-1.3113
-1.3928
-1.3928
-1.3928
-1.3979
-1.3852
-1.3903
-1.3954
-1.3877
-1.3954
-1.3852
-1.3877
-1.3928
-1.3877
-1.3928
-1.3954
-1.4005
-1.3852
-1.3419
-1.2731
-1.1992
-1.1177
-1.0082
-0.89612
-0.72036
-0.45035
-0.0096741
0.72394
1.6817
2.7566
3.6456
3.6507
3.6431
3.6405
3.6456
3.6456
3.6431
3.6482
3.6482
3.5565
3.2763
2.9018
2.4408
1.967
1.5059
1.05
0.61695
0.2043
-0.16506
-0.50639
-0.79678
-1.0591
-1.2833
-1.3928
-1.3852
-1.3928
-1.3852
-1.3928
-1.3877
-1.3928
-1.3903
-1.3928
-1.3928
-1.3852
-1.3903
-1.3903
-1.3852
-1.3546
-1.3037
-1.24
-1.1636
-1.0821
-0.99546
-0.90631
-0.79168
-0.64904
-0.4478
-0.14213
0.34185
1.0525
1.8931
2.7872
3.6355
3.6533
3.6405
3.6533
3.6482
3.6507
3.6405
3.6456
3.5132
3.2406
2.8789
2.4663
2.0383
1.6206
1.2079
0.82073
0.46157
0.13297
-0.15742
-0.41724
-0.65923
-0.85282
-1.0184
-1.1508
-1.2502
-1.3292
-1.3826
-1.3928
-1.3979
-1.3877
-1.3826
-1.347
-1.3062
-1.2527
-1.2018
-1.1305
-1.0617
-0.99037
-0.9114
-0.83753
-0.75093
-0.64139
-0.48856
-0.23383
0.12024
0.67299
1.4117
2.2166
3.0394
3.6482
3.6456
3.6456
3.6405
3.6507
3.6456
3.6431
3.5667
3.317
2.9604
2.5758
2.158
1.7428
1.3404
0.96083
0.59912
0.26798
-0.035147
-0.29497
-0.52167
-0.7331
-0.89867
-1.0388
-1.1534
-1.2425
-1.3139
-1.3495
-1.3776
-1.375
-1.3546
-1.3342
-1.3088
-1.2578
-1.2018
-1.1356
-1.0821
-1.0082
-0.93688
-0.87574
-0.78659
-0.68979
-0.54205
-0.31025
0.066744
0.72139
1.6206
2.6522
3.6456
3.638
3.6431
3.6482
3.6482
3.638
3.6456
3.6456
3.6456
3.6405
3.5157
3.1846
2.7719
2.2854
1.7938
1.3022
0.83092
0.37496
-0.037694
-0.42488
-0.75857
-1.0693
-1.3292
-1.3852
-1.3852
-1.4005
-1.4005
-1.3852
-1.3877
-1.3928
-1.3877
-1.3852
-1.3928
-1.3928
-1.4005
-1.3852
-1.3954
-1.3877
-1.3903
-1.3928
-1.3725
-1.319
-1.2476
-1.1254
-0.92923
-0.61592
-0.080997
0.73158
1.7301
2.7974
3.6456
3.6456
3.6456
3.6482
3.6456
3.6405
3.6456
3.6507
3.6507
3.5055
3.2024
2.7872
2.316
1.8218
1.3378
0.86658
0.42591
0.0005149
-0.37138
-0.71781
-1.0158
-1.2833
-1.3852
-1.3877
-1.3954
-1.3954
-1.3928
-1.3852
-1.3979
-1.3928
-1.3954
-1.3903
-1.4005
-1.3928
-1.3928
-1.3979
-1.3928
-1.3979
-1.3903
-1.3495
-1.2909
-1.2018
-1.0897
-0.92414
-0.64904
-0.24402
0.40298
1.2436
2.1861
3.1362
3.6482
3.6533
3.6456
3.638
3.6507
3.6482
3.6507
3.638
3.4622
3.1464
2.7566
2.3109
1.8549
1.4219
0.9863
0.5711
0.20175
-0.13704
-0.4529
-0.72545
-0.96999
-1.1712
-1.3444
-1.3903
-1.3954
-1.3903
-1.3928
-1.4005
-1.3979
-1.3979
-1.3877
-1.3928
-1.3852
-1.3928
-1.3521
-1.3113
-1.2425
-1.161
-1.0413
-0.86555
-0.593
-0.13704
0.58384
1.5009
2.5045
3.4979
3.6482
3.6507
3.6507
3.6405
3.6456
3.6482
3.6456
3.6253
3.4368
3.1031
2.6955
2.2421
1.781
1.32
0.87932
0.46921
0.084574
-0.26949
-0.58026
-0.86301
-1.1024
-1.3113
-1.3928
-1.3979
-1.3979
-1.4005
-1.3928
-1.3877
-1.3877
-1.3979
-1.3877
-1.3979
-1.3979
-1.3979
-1.3928
-1.3954
-1.3495
-1.2349
-1.0337
-0.64394
0.05146
1.0474
2.2115
3.3858
3.6507
3.638
3.638
3.6507
3.6507
3.6482
3.6482
3.6507
3.6507
3.531
3.2228
2.7847
2.3109
1.7989
1.2996
0.79781
0.34439
-0.098828
-0.49365
-0.84772
-1.1763
-1.4005
-1.3877
-1.3954
-1.3928
-1.3928
-1.4005
-1.3877
-1.3877
-1.3928
-1.3954
-1.3954
-1.3877
-1.3852
-1.3928
-1.3928
-1.3954
-1.3979
-1.3979
-1.3342
-1.0744
-0.46563
0.50487
1.6893
2.912
3.6507
3.638
3.6482
3.6507
3.6482
3.6507
3.6507
3.6482
3.6405
3.5361
3.2406
2.8101
2.3313
1.832
1.3276
0.83602
0.36732
-0.083545
-0.47328
-0.83753
-1.1712
-1.3928
-1.3979
-1.3979
-1.3877
-1.3877
-1.3852
-1.3928
-1.3877
-1.3979
-1.3979
-1.3954
-1.3877
-1.3928
-1.3928
-1.3979
-1.4005
-1.3928
-1.3979
-1.3393
-1.0617
-0.37648
0.65007
1.8651
3.0802
3.6456
3.6507
3.6533
3.638
3.6431
3.6456
3.6405
3.6405
3.6176
3.4037
3.0445
2.5962
2.1147
1.6333
1.157
0.69846
0.26288
-0.13194
-0.50384
-0.82989
-1.1305
-1.3903
-1.3928
-1.3928
-1.3928
-1.3928
-1.3979
-1.3852
-1.3954
-1.3928
-1.4005
-1.4005
-1.3979
-1.3903
-1.3928
-1.3903
-1.3877
-1.296
-0.82734
0.11005
1.3404
2.6293
3.6456
3.6456
3.6456
3.6456
3.6456
3.638
3.6456
3.6507
3.6405
3.6227
3.4062
3.0343
2.5783
2.0842
1.5926
1.0984
0.63224
0.18392
-0.22364
-0.60319
-0.94961
-1.2731
-1.3928
-1.4005
-1.3928
-1.3954
-1.3928
-1.3954
-1.3852
-1.3877
-1.3954
-1.3928
-1.3928
-1.3877
-1.3877
-1.4005
-1.3928
-1.3877
-1.3903
-1.3648
-0.97509
-0.040241
1.2334
2.5682
3.6431
3.6507
3.6456
3.6431
3.6431
3.6507
3.6507
3.6533
3.6507
3.6456
3.6074
3.3731
2.9859
2.5096
2.0179
1.5059
1.0067
0.53544
0.082027
-0.33572
-0.71272
-1.0744
-1.3928
-1.3877
-1.3928
-1.3852
-1.3928
-1.3954
-1.3877
-1.3877
-1.3928
-1.3954
-1.4005
-1.3928
-1.3928
-1.3903
-1.3877
-1.3877
-1.3928
-1.3954
-1.3928
-1.3852
-1.0464
-0.16251
1.1009
2.4331
3.6456
3.6482
3.6456
3.6405
3.6456
3.6533
3.6456
3.6456
3.6482
3.6456
3.5743
3.2941
2.8891
2.423
1.9211
1.4321
0.95319
0.48959
0.046366
-0.34337
-0.728
-1.0693
-1.3725
-1.3979
-1.3928
-1.3928
-1.3928
-1.3852
-1.3852
-1.3877
-1.3877
-1.3954
-1.3852
-1.3877
-1.3928
-1.3928
-1.3877
-1.3928
-1.3954
-1.3928
-1.4005
-1.3928
-1.3241
-0.80951
0.20684
1.5212
2.8534
3.6405
3.6405
3.6482
3.6405
3.638
3.6456
3.638
3.6456
3.6456
3.6049
3.3629
2.9935
2.5401
2.0714
1.6002
1.1213
0.67809
0.25524
-0.14723
-0.5013
-0.83499
-1.1356
-1.3979
-1.3903
-1.3877
-1.3877
-1.3928
-1.3979
-1.3928
-1.3954
-1.3954
-1.3928
-1.3979
-1.3954
-1.3852
-1.3928
-1.3903
-1.3979
-1.3877
-1.3699
-1.0515
-0.21855
1.0296
2.3618
3.6074
3.638
3.6456
3.6456
3.6456
3.6507
3.6507
3.638
3.638
3.6456
3.531
3.2203
2.8025
2.3389
1.8677
1.3888
0.92517
0.48959
0.089669
-0.29497
-0.63885
-0.94961
-1.2375
-1.3928
-1.3877
-1.3852
-1.4005
-1.3877
-1.3928
-1.3928
-1.3877
-1.3979
-1.3877
-1.3877
-1.3877
-1.3928
-1.3903
-1.3852
-1.3979
-1.3928
-1.3852
-1.049
-0.13958
1.1366
2.5019
3.638
3.638
3.6456
3.6482
3.6405
3.6456
3.6456
3.6456
3.6456
3.638
3.6355
3.4419
3.098
2.6446
2.158
1.6664
1.1748
0.70101
0.2425
-0.1676
-0.55988
-0.90886
-1.2425
-1.3903
-1.3877
-1.3928
-1.3954
-1.3903
-1.3903
-1.4005
-1.3954
-1.3979
-1.4005
-1.4005
-1.3928
-1.3954
-1.3954
-1.3954
-1.3954
-1.3903
-1.3928
-1.3928
-1.3215
-0.73819
0.35713
1.6919
2.9884
3.6482
3.6507
3.6482
3.6482
3.6405
3.6431
3.6405
3.6482
3.6405
3.6482
3.4546
3.1082
2.6522
2.1631
1.6613
1.1697
0.69592
0.25524
-0.16506
-0.54715
-0.90121
-1.212
-1.3954
-1.3979
-1.4005
-1.3928
-1.4005
-1.4005
-1.3903
-1.3928
-1.3928
-1.3877
-1.3877
-1.3928
-1.3877
-1.3928
-1.3852
-1.3928
-1.3877
-1.3928
-1.3954
-1.3852
-1.2502
-0.65668
0.42591
1.7479
3.0521
3.6456
3.6456
3.6507
3.6456
3.6456
3.6456
3.6456
3.6507
3.6507
3.5667
3.2814
2.8815
2.423
1.9568
1.483
1.0271
0.58129
0.18392
-0.19562
-0.53441
-0.84008
-1.1356
-1.3852
-1.3979
-1.3928
-1.3928
-1.3954
-1.3954
-1.3928
-1.3928
-1.3928
-1.3928
-1.3979
-1.3928
-1.4005
-1.4005
-1.3877
-1.3954
-1.4005
-1.3393
-0.97509
-0.10392
1.1468
2.4688
3.6533
3.6507
3.6482
3.638
3.6507
3.6482
3.6456
3.638
3.638
3.6405
3.5616
3.2814
2.8891
2.4561
1.9848
1.5136
1.0576
0.6195
0.1992
-0.18544
-0.52932
-0.85282
-1.1585
-1.3928
-1.3928
-1.3928
-1.3877
-1.3852
-1.3852
-1.3928
-1.4005
-1.3928
-1.3979
-1.4005
-1.3903
-1.3928
-1.3903
-1.3928
-1.4005
-1.4005
-1.375
-1.0082
-0.11156
1.1468
2.4714
3.6405
3.6507
3.6533
3.6405
3.6456
3.6405
3.6405
3.6456
3.6405
3.6405
3.5947
3.3476
2.9579
2.507
2.0103
1.5161
1.0398
0.58384
0.14061
-0.26185
-0.63375
-0.97254
-1.2731
-1.3928
-1.3979
-1.3928
-1.3928
-1.3852
-1.3903
-1.3954
-1.3979
-1.3928
-1.3852
-1.3954
-1.4005
-1.3979
-1.3954
-1.3979
-1.3852
-1.3903
-1.3928
-1.24
-0.55479
0.58893
1.8906
3.1362
3.6405
3.6405
3.6507
3.6533
3.6405
3.6405
3.6456
3.6456
3.6507
3.6456
3.4954
3.1948
2.7923
2.3542
1.8957
1.4321
0.97357
0.53544
0.1075
-0.28733
-0.65668
-0.99801
-1.3037
-1.3903
-1.4005
-1.3979
-1.3903
-1.3979
-1.3954
-1.3928
-1.3903
-1.3928
-1.3979
-1.3954
-1.3954
-1.4005
-1.3877
-1.4005
-1.3852
-1.3954
-1.3852
-1.3852
-0.97509
-0.052978
1.157
2.4026
3.5234
3.638
3.6507
3.6456
3.6405
3.6456
3.6456
3.6507
3.6533
3.5998
3.3502
2.9884
2.5732
2.1096
1.6537
1.1977
0.76469
0.34439
-0.042789
-0.4045
-0.728
-1.0286
-1.3011
-1.4005
-1.3979
-1.3979
-1.3954
-1.3928
-1.3979
-1.3852
-1.3928
-1.3877
-1.3928
-1.3979
-1.3877
-1.3928
-1.3928
-1.3954
-1.3877
-1.4005
-1.2731
-0.68725
0.32911
1.59
2.8178
3.6405
3.6456
3.6405
3.6456
3.6405
3.6507
3.6456
3.6507
3.6405
3.4597
3.1362
2.7414
2.3109
1.8651
1.4193
0.98885
0.57874
0.1992
-0.14977
-0.47582
-0.76876
-1.049
-1.2782
-1.4005
-1.3928
-1.3928
-1.3928
-1.3979
-1.3877
-1.3928
-1.3852
-1.3877
-1.3903
-1.3954
-1.3928
-1.3979
-1.3954
-1.3928
-1.3011
-0.75347
0.27562
1.5569
2.8152
3.6456
3.6456
3.638
3.6482
3.6533
3.6507
3.638
3.6456
3.6507
3.6355
3.4546
3.1285
2.7032
2.237
1.753
1.292
0.83092
0.3877
-0.0020324
-0.38157
-0.728
-1.0311
-1.3062
-1.3903
-1.3979
-1.3877
-1.3954
-1.3954
-1.4005
-1.3903
-1.3877
-1.3928
-1.3928
-1.4005
-1.3954
-1.3979
-1.3979
-1.3928
-1.3979
-1.2171
-0.48856
0.62205
1.8728
3.019
3.6507
3.6456
3.6482
3.638
3.6456
3.6507
3.6456
3.6507
3.6202
3.3909
3.0318
2.5885
2.1096
1.6282
1.1544
0.70611
0.28836
-0.093734
-0.43761
-0.75602
-1.0439
-1.296
-1.3979
-1.3928
-1.3979
-1.4005
-1.3928
-1.3903
-1.3928
-1.3852
-1.3928
-1.3979
-1.3954
-1.3877
-1.3928
-1.3903
-1.3877
-1.3928
-1.3928
-1.2043
-0.50639
0.58893
1.8498
3.0394
3.6456
3.6507
3.6456
3.6482
3.6456
3.6405
3.638
3.6507
3.5794
3.3069
2.9299
2.4943
2.0281
1.5824
1.1315
0.7112
0.32147
-0.040241
-0.3612
-0.66177
-0.93178
-1.1763
-1.3979
-1.3979
-1.3852
-1.403
-1.3979
-1.3928
-1.3852
-1.3852
-1.3928
-1.3877
-1.4005
-1.3979
-1.3928
-1.4005
-1.3928
-1.3623
-1.0439
-0.25676
0.89715
2.1479
3.2941
3.6456
3.6456
3.6533
3.6456
3.6456
3.6482
3.6507
3.6431
3.475
3.1515
2.7414
2.3083
1.8728
1.4423
1.0245
0.62969
0.27052
-0.060619
-0.37648
-0.66177
-0.9114
-1.1407
-1.3419
-1.3928
-1.3928
-1.4005
-1.3954
-1.3979
-1.3928
-1.3852
-1.3954
-1.3979
-1.3903
-1.3928
-1.3903
-1.375
-1.0107
-0.14213
1.0627
2.2956
3.4266
3.6456
3.6456
3.6482
3.6507
3.6405
3.6456
3.6456
3.6533
3.638
3.4521
3.1285
2.7108
2.2523
1.7938
1.3276
0.88187
0.45902
0.056555
-0.31025
-0.64904
-0.95216
-1.2247
-1.3928
-1.3954
-1.3954
-1.3928
-1.3877
-1.4005
-1.3928
-1.3928
-1.3877
-1.3928
-1.3928
-1.3903
-1.3928
-1.3928
-1.3954
-1.3801
-0.95471
-0.0071269
1.213
2.423
3.4954
3.6456
3.6456
3.6405
3.6456
3.6456
3.6507
3.6507
3.6456
3.638
3.4419
3.098
2.6675
2.1886
1.7021
1.2359
0.77743
0.34185
-0.055525
-0.43761
-0.7713
-1.0846
-1.3572
-1.3877
-1.3928
-1.3928
-1.3954
-1.3979
-1.3928
-1.3954
-1.3928
-1.3928
-1.3979
-1.3954
-1.3877
-1.3903
-1.4005
-1.3928
-1.3877
-1.3852
-1.347
-0.80187
0.2425
1.4932
2.7286
3.6456
3.6456
3.638
3.6456
3.6507
3.6431
3.638
3.6456
3.638
3.6227
3.3986
3.0394
2.6013
2.1351
1.6588
1.2054
0.75705
0.33166
-0.058072
-0.41724
-0.75093
-1.0439
-1.3139
-1.3928
-1.3954
-1.3877
-1.3928
-1.3928
-1.3954
-1.3954
-1.4005
-1.3877
-1.3877
-1.3979
-1.3928
-1.3928
-1.3877
-1.3979
-1.3954
-1.3928
-1.3852
-1.3928
-1.3954
-1.2986
-0.83499
0.15335
1.4601
2.8127
3.6507
3.6482
3.6456
3.6456
3.6431
3.6456
3.6456
3.6456
3.6405
3.638
3.5412
3.261
2.8687
2.4408
1.9746
1.5085
1.0704
0.64497
0.23996
-0.12685
-0.46818
-0.77895
-1.0719
-1.3139
-1.4005
-1.3954
-1.3928
-1.3954
-1.403
-1.3877
-1.3954
-1.3954
-1.3928
-1.3928
-1.3979
-1.3928
-1.3928
-1.3979
-1.3954
-1.3928
-1.3903
-1.3954
-1.3903
-1.3877
-1.3801
-1.2731
-0.98782
-0.28987
0.83092
2.1912
3.5183
3.6405
3.6456
3.6431
3.6405
3.6405
3.6456
3.638
3.6405
3.6482
3.61
3.368
2.9986
2.5605
2.1071
1.6486
1.2156
0.78252
0.37751
-0.0071269
-0.35101
-0.67196
-0.96235
-1.2222
-1.3928
-1.3852
-1.3903
-1.4005
-1.3928
-1.4005
-1.3928
-1.3928
-1.3928
-1.3928
-1.3877
-1.3928
-1.3928
-1.3877
-1.3852
-1.4005
-1.3852
-1.3928
-1.3979
-1.3597
-1.2375
-0.94197
-0.27459
0.80545
2.1224
3.4317
3.6456
3.638
3.6482
3.6482
3.6456
3.6507
3.6456
3.6456
3.6456
3.5539
3.2788
2.8967
2.4586
2.0179
1.5543
1.1239
0.69337
0.296
-0.063167
-0.3994
-0.71272
-0.99037
-1.2324
-1.3928
-1.3954
-1.3954
-1.3928
-1.3954
-1.3928
-1.3928
-1.3877
-1.3928
-1.3928
-1.3954
-1.3903
-1.3954
-1.3852
-1.3903
-1.3928
-1.3979
-1.3903
-1.3342
-1.1228
-0.55224
0.46921
1.8116
3.1846
3.6456
3.6431
3.6507
3.6456
3.6507
3.6456
3.6431
3.638
3.6533
3.6507
3.6049
3.3425
2.9477
2.4866
2.0052
1.5085
1.0322
0.57874
0.14316
-0.25166
-0.62102
-0.93942
-1.2502
-1.3877
-1.3928
-1.3979
-1.3928
-1.3903
-1.3928
-1.4005
-1.3928
-1.3954
-1.4005
-1.3954
-1.3852
-1.3903
-1.3852
-1.3954
-1.3928
-1.3979
-1.3954
-1.4005
-1.3928
-1.3521
-1.0846
-0.35101
0.82583
2.1912
3.5183
3.6456
3.638
3.6507
3.6456
3.6456
3.6405
3.6431
3.6456
3.6456
3.6431
3.4597
3.1184
2.67
2.1988
1.7123
1.2334
0.76979
0.33166
-0.083545
-0.45799
-0.81206
-1.1177
-1.3852
-1.3928
-1.3954
-1.3928
-1.3954
-1.3928
-1.3877
-1.3954
-1.3954
-1.3928
-1.3928
-1.4005
-1.3928
-1.3852
-1.3979
-1.3979
-1.4005
-1.3903
-1.3954
-1.3979
-1.3877
-1.3674
-1.1814
-0.60573
0.41572
1.7327
3.0903
3.6431
3.6456
3.6405
3.6456
3.6482
3.6456
3.6456
3.6431
3.6456
3.6482
3.5157
3.2024
2.7745
2.3185
1.8422
1.3608
0.90224
0.46412
0.056555
-0.32299
-0.66941
-0.98527
-1.2757
-1.3979
-1.3928
-1.3928
-1.3954
-1.4005
-1.4005
-1.3877
-1.3954
-1.3852
-1.4005
-1.4005
-1.3928
-1.3903
-1.3877
-1.3928
-1.3928
-1.3928
-1.3928
-1.3979
-1.3928
-1.3699
-1.2196
-0.82989
0.0005149
1.1773
2.5223
3.6431
3.6456
3.6507
3.6482
3.6431
3.6456
3.6482
3.6533
3.638
3.6431
3.4954
3.182
2.7668
2.3134
1.8447
1.376
0.94045
0.50232
0.11259
-0.26695
-0.60319
-0.89867
-1.1789
-1.3928
-1.3928
-1.3877
-1.3928
-1.3928
-1.3928
-1.3903
-1.3928
-1.3903
-1.3877
-1.3852
-1.3928
-1.3979
-1.3979
-1.3954
-1.3928
-1.3979
-1.3954
-1.2604
-0.84008
0.038724
1.2589
2.6013
3.6507
3.6507
3.6456
3.6456
3.6456
3.6405
3.6507
3.6456
3.6456
3.6456
3.5565
3.2686
2.8687
2.4077
1.9364
1.4474
0.98121
0.53034
0.11769
-0.27204
-0.63121
-0.95471
-1.2527
-1.3852
-1.3903
-1.3928
-1.3954
-1.3954
-1.3928
-1.3928
-1.3928
-1.3928
-1.3928
-1.3954
-1.3877
-1.3852
-1.3928
-1.3928
-1.3928
-1.3877
-1.3979
-1.3826
-1.1356
-0.3994
0.76979
2.1428
3.4622
3.6507
3.6456
3.6507
3.6405
3.6456
3.6456
3.6456
3.6456
3.6431
3.6405
3.5488
3.2559
2.8585
2.3771
1.8829
1.399
0.90734
0.44629
0.0005149
-0.39686
-0.7713
-1.1024
-1.3928
-1.3877
-1.3928
-1.3928
-1.3954
-1.3877
-1.3979
-1.4005
-1.3877
-1.3852
-1.3852
-1.3877
-1.3928
-1.4005
-1.3954
-1.3979
-1.3928
-1.3877
-1.3979
-1.3928
-1.3521
-0.88338
0.074385
1.3633
2.7184
3.6507
3.6456
3.6456
3.6456
3.6456
3.6456
3.6456
3.6456
3.6507
3.638
3.5947
3.3374
2.9502
2.4841
1.9925
1.5085
1.0296
0.5711
0.13552
-0.26695
-0.63121
-0.98782
-1.2909
-1.3852
-1.3852
-1.4005
-1.3852
-1.3954
-1.3903
-1.4005
-1.3954
-1.3979
-1.3979
-1.3877
-1.3979
-1.3979
-1.4005
-1.3928
-1.4005
-1.3928
-1.3954
-1.3954
-1.3979
-1.3215
-0.88084
0.041271
1.3302
2.6802
3.6456
3.6507
3.6456
3.638
3.6456
3.6405
3.6456
3.6456
3.6456
3.6482
3.5565
3.2737
2.8713
2.4128
1.9364
1.4525
0.9914
0.53289
0.11005
-0.28478
-0.6363
-0.98018
-1.2731
-1.3979
-1.3928
-1.4005
-1.3928
-1.3954
-1.3954
-1.3954
-1.3979
-1.3954
-1.3928
-1.3852
-1.3979
-1.3928
-1.3928
-1.3928
-1.3852
-1.4005
-1.3903
-1.3928
-1.2731
-0.75347
0.23741
1.5263
2.8611
3.6507
3.6507
3.6456
3.638
3.6482
3.6405
3.6507
3.6456
3.6456
3.6253
3.4062
3.0598
2.6191
2.1657
1.6893
1.2232
0.78507
0.34949
-0.045336
-0.41214
-0.74838
-1.049
-1.319
-1.3928
-1.3928
-1.3928
-1.3852
-1.3877
-1.3877
-1.3852
-1.3928
-1.3928
-1.4005
-1.3903
-1.3928
-1.4005
-1.3877
-1.3954
-1.3979
-1.3852
-1.3444
-0.94452
-0.037694
1.2563
2.6471
3.6456
3.638
3.6456
3.6507
3.6456
3.6405
3.638
3.6456
3.6431
3.6482
3.6456
3.5285
3.2381
2.8433
2.3873
1.9161
1.4372
0.96338
0.50742
0.064196
-0.34846
-0.74074
-1.0872
-1.3852
-1.3979
-1.3928
-1.3979
-1.3979
-1.3928
-1.3928
-1.3903
-1.3928
-1.3877
-1.3928
-1.3877
-1.3979
-1.3928
-1.3928
-1.3979
-1.4005
-1.4005
-1.3979
-1.319
-0.77895
0.26288
1.5543
2.8407
3.638
3.6482
3.6456
3.6456
3.6456
3.6456
3.6456
3.638
3.6456
3.6125
3.3807
2.9859
2.5172
2.0078
1.483
0.97866
0.50232
0.041271
-0.38922
-0.7764
-1.1254
-1.3979
-1.4005
-1.4005
-1.3954
-1.3954
-1.3877
-1.3928
-1.3928
-1.3877
-1.3928
-1.4005
-1.3928
-1.3928
-1.3928
-1.3903
-1.3877
-1.3928
-1.3928
-1.3979
-1.3928
-1.3776
-1.1024
-0.36374
0.81819
2.1708
3.4699
3.6507
3.6456
3.6405
3.6456
3.6533
3.6456
3.638
3.6507
3.6456
3.5055
3.1922
2.7745
2.3211
1.8498
1.376
0.92772
0.48704
0.071838
-0.29751
-0.64904
-0.9598
-1.2425
-1.3928
-1.4005
-1.3954
-1.4005
-1.4005
-1.4005
-1.4005
-1.4005
-1.3954
-1.3903
-1.403
-1.3852
-1.3877
-1.3928
-1.3928
-1.3954
-1.1381
-0.39176
0.77488
2.1096
3.3858
3.6405
3.6456
3.6456
3.6456
3.6456
3.638
3.6456
3.6456
3.6482
3.5183
3.1973
2.7898
2.3236
1.8498
1.376
0.90734
0.46921
0.056555
-0.32553
-0.67451
-1.0006
-1.2884
-1.4005
-1.3979
-1.3954
-1.3928
-1.3877
-1.3928
-1.3928
-1.3852
-1.3928
-1.3954
-1.3928
-1.4005
-1.3979
-1.3979
-1.2324
-0.5013
0.63988
1.9135
3.0929
3.6482
3.6533
3.6507
3.6456
3.6456
3.6456
3.6533
3.6456
3.6304
3.4062
3.0318
2.5783
2.0867
1.5824
1.0984
0.62459
0.17882
-0.216
-0.59045
-0.92923
-1.2375
-1.3852
-1.3928
-1.3979
-1.3954
-1.3877
-1.3928
-1.3877
-1.4005
-1.3954
-1.3903
-1.3954
-1.3852
-1.3928
-1.3979
-1.3903
-1.375
-0.9114
0.092216
1.3608
2.6166
3.6456
3.6431
3.6456
3.6456
3.6405
3.638
3.638
3.6456
3.6456
3.6304
3.4011
3.0318
2.5783
2.102
1.6027
1.1264
0.67299
0.22467
-0.17525
-0.54715
-0.88593
-1.1941
-1.3928
-1.4005
-1.3928
-1.3954
-1.3852
-1.3954
-1.3979
-1.3979
-1.3954
-1.3928
-1.3928
-1.3954
-1.3877
-1.3928
-1.4005
-1.3979
-1.3928
-1.3903
-1.2425
-0.48601
0.70356
2.0281
3.2508
3.6507
3.6482
3.6507
3.6456
3.6507
3.6456
3.638
3.6456
3.6507
3.6125
3.3782
2.9961
2.5605
2.1071
1.6282
1.1799
0.73158
0.31892
-0.073356
-0.42742
-0.75093
-1.0439
-1.3011
-1.3852
-1.3903
-1.3979
-1.3928
-1.3852
-1.3928
-1.3903
-1.4005
-1.3954
-1.3954
-1.3954
-1.3928
-1.3979
-1.3928
-1.3852
-1.3979
-1.3903
-1.3979
-1.3852
-1.2043
-0.45544
0.71375
2.0001
3.1846
3.6507
3.6456
3.6431
3.6456
3.638
3.6456
3.6456
3.6456
3.6456
3.5208
3.2203
2.828
2.4026
1.9568
1.5187
1.1111
0.71884
0.34949
0.0030622
-0.30006
-0.58026
-0.83499
-1.0591
-1.2527
-1.3852
-1.3903
-1.3928
-1.3928
-1.3877
-1.3903
-1.3903
-1.4005
-1.3852
-1.3954
-1.3928
-1.3954
-1.3928
-1.3928
-1.3903
-1.4005
-1.3877
-1.3877
-1.3928
-1.3928
-1.3037
-1.0439
-0.30006
0.8513
2.1428
3.3247
3.6507
3.6405
3.6456
3.6507
3.6431
3.6482
3.6456
3.6431
3.6151
3.4062
3.0572
2.6522
2.2217
1.7963
1.3862
1.0067
0.65007
0.32911
0.036177
-0.22619
-0.47073
-0.68215
-0.86301
-1.0464
-1.1941
-1.3342
-1.3903
-1.3928
-1.3852
-1.3928
-1.3979
-1.3852
-1.3852
-1.3928
-1.3928
-1.4005
-1.3903
-1.3928
-1.3928
-1.3852
-1.3928
-1.3928
-1.3776
-1.347
-1.2808
-1.1636
-0.94197
-0.44271
0.5278
1.7658
2.9681
3.6456
3.6456
3.638
3.6456
3.6456
3.6405
3.6456
3.6507
3.5922
3.34
2.9808
2.5682
2.1555
1.7403
1.3735
1.0296
0.71629
0.41572
0.16354
-0.070808
-0.28478
-0.48601
-0.67196
-0.84008
-0.98782
-1.1152
-1.24
-1.3368
-1.3928
-1.3852
-1.3877
-1.3903
-1.3928
-1.3979
-1.3877
-1.3928
-1.3903
-1.3852
-1.3903
-1.3852
-1.3495
-1.3011
-1.2451
-1.1789
-1.1075
-1.0209
-0.90121
-0.71526
-0.33318
0.47431
1.6359
2.8407
3.638
3.6456
3.6456
3.6405
3.6507
3.6456
3.6456
3.6456
3.5972
3.3476
2.9935
2.5783
2.1784
1.7912
1.4219
1.0907
0.79017
0.51506
0.26288
0.038724
-0.18544
-0.37393
-0.55479
-0.72291
-0.88084
-1.0107
-1.1381
-1.2375
-1.3266
-1.3852
-1.3979
-1.3928
-1.3928
-1.3877
-1.3852
-1.3877
-1.3852
-1.3852
-1.3648
-1.3368
-1.2833
-1.2349
-1.1712
-1.0974
-1.0235
-0.91905
-0.75347
-0.47837
0.10495
1.1009
2.293
3.3986
3.6431
3.6482
3.6456
3.6456
3.6456
3.6456
3.6482
3.5998
3.3578
3.0037
2.5962
2.1988
1.8193
1.455
1.129
0.83347
0.54818
0.296
0.061649
-0.16506
-0.35865
-0.54969
-0.71272
-0.87574
-1.0235
-1.1356
-1.2476
-1.3342
-1.3852
-1.3979
-1.3928
-1.3928
-1.3954
-1.3928
-1.3928
-1.3877
-1.3674
-1.3241
-1.2782
-1.2273
-1.1407
-1.0719
-0.95471
-0.7764
-0.46563
0.18137
1.2181
2.3618
3.4164
3.6456
3.6456
3.6456
3.6456
3.6456
3.6482
3.638
3.4775
3.1795
2.8025
2.4153
2.0281
1.6843
1.3506
1.0423
0.7545
0.50997
0.25779
0.05146
-0.15742
-0.3612
-0.52677
-0.6847
-0.83244
-0.9598
-1.0668
-1.1661
-1.2476
-1.3139
-1.3521
-1.3877
-1.3903
-1.3852
-1.3776
-1.3623
-1.3292
-1.2859
-1.2476
-1.1789
-1.0999
-0.95216
-0.67451
-0.019863
1.0372
2.2217
3.3272
3.6482
3.6405
3.6431
3.6431
3.6456
3.6405
3.6405
3.6507
3.5387
3.2585
2.8738
2.4459
2.0128
1.6078
1.2181
0.87677
0.56091
0.28326
0.038724
-0.18034
-0.38412
-0.58281
-0.74583
-0.89867
-1.0464
-1.161
-1.2833
-1.375
-1.3928
-1.3877
-1.3928
-1.3928
-1.3877
-1.3928
-1.3903
-1.3979
-1.3903
-1.3928
-1.3928
-1.3979
-1.3623
-1.2451
-0.95471
-0.26185
0.8029
1.9568
2.9986
3.6456
3.6507
3.6456
3.6405
3.638
3.638
3.6507
3.6074
3.3986
3.0572
2.642
2.2217
1.7887
1.4015
1.0271
0.7112
0.40298
0.14316
-0.091186
-0.28987
-0.47073
-0.64904
-0.80442
-0.95216
-1.0693
-1.184
-1.2986
-1.375
-1.4005
-1.3903
-1.3979
-1.3979
-1.3928
-1.3903
-1.3903
-1.3928
-1.3852
-1.3954
-1.3852
-1.3852
-1.3393
-1.1941
-0.88084
-0.14468
0.94045
2.074
3.0954
3.6507
3.6405
3.638
3.6507
3.6431
3.6507
3.6482
3.5769
3.312
2.9528
2.5529
2.13
1.7327
1.3684
1.0347
0.71629
0.431
0.17882
-0.045336
-0.25676
-0.4478
-0.61592
-0.78659
-0.92669
-1.0515
-1.1712
-1.2757
-1.375
-1.3877
-1.3852
-1.3979
-1.3928
-1.3954
-1.3877
-1.3903
-1.3877
-1.3979
-1.3954
-1.3852
-1.3801
-1.3113
-1.1508
-0.7713
0.05146
1.157
2.3058
3.3018
3.6431
3.6507
3.6431
3.6405
3.6482
3.6456
3.6355
3.4546
3.1336
2.7439
2.3338
1.9262
1.5467
1.2028
0.87932
0.59657
0.32911
0.10495
-0.1243
-0.3128
-0.50894
-0.67196
-0.82734
-0.95725
-1.077
-1.1891
-1.2782
-1.347
-1.3928
-1.3928
-1.3979
-1.3928
-1.3903
-1.3903
-1.3979
-1.3725
-1.3342
-1.2553
-1.0566
-0.59045
0.31892
1.4474
2.5529
3.4852
3.6431
3.6507
3.6431
3.6507
3.6405
3.6482
3.6431
3.4648
3.1489
2.7566
2.3465
1.939
1.5442
1.1824
0.85385
0.55327
0.296
0.046366
-0.18289
-0.37903
-0.55988
-0.73819
-0.89103
-1.0286
-1.1585
-1.268
-1.3648
-1.3979
-1.3877
-1.3928
-1.3928
-1.3928
-1.4005
-1.3928
-1.3928
-1.3903
-1.3725
-1.2425
-0.78659
0.12533
1.2869
2.3975
3.3705
3.6456
3.6456
3.6533
3.6431
3.6482
3.6405
3.6456
3.6482
3.4954
3.205
2.8331
2.423
1.995
1.5976
1.213
0.85385
0.50487
0.20684
-0.07845
-0.32299
-0.55733
-0.75857
-0.92414
-1.0923
-1.2324
-1.3648
-1.3979
-1.3928
-1.4005
-1.3852
-1.3928
-1.3877
-1.3928
-1.3954
-1.3979
-1.3928
-1.3979
-1.3852
-1.3928
-1.2909
-0.78404
0.18137
1.3073
2.4026
3.312
3.6431
3.6431
3.6456
3.6507
3.6507
3.6405
3.6405
3.6151
3.4164
3.0929
2.7159
2.3083
1.888
1.4932
1.1162
0.7596
0.42591
0.11769
-0.15742
-0.4045
-0.62356
-0.82734
-1.0031
-1.1687
-1.3139
-1.3928
-1.3928
-1.3877
-1.4005
-1.4005
-1.3928
-1.3928
-1.3877
-1.3928
-1.3852
-1.3928
-1.4005
-1.3928
-1.3979
-1.3674
-1.1279
-0.38667
0.67809
1.8116
2.8407
3.6456
3.6507
3.6507
3.6456
3.6507
3.6482
3.6405
3.638
3.4673
3.1719
2.7974
2.4
1.9848
1.5926
1.2156
0.86149
0.53799
0.23232
-0.045336
-0.28733
-0.50894
-0.71272
-0.89867
-1.0693
-1.2094
-1.3495
-1.3954
-1.3877
-1.4005
-1.3877
-1.3903
-1.4005
-1.4005
-1.3979
-1.3979
-1.3928
-1.3928
-1.3877
-1.3979
-1.3852
-1.3903
-1.2935
-0.91395
-0.068261
1.0831
2.2472
3.2712
3.6456
3.6507
3.6456
3.638
3.6405
3.638
3.6507
3.6125
3.4087
3.0776
2.6879
2.288
1.8855
1.5009
1.1493
0.808
0.48959
0.20175
-0.068261
-0.29497
-0.51913
-0.71781
-0.89612
-1.0642
-1.2196
-1.347
-1.3928
-1.3928
-1.3979
-1.3928
-1.3928
-1.3979
-1.3928
-1.3979
-1.3979
-1.3979
-1.3979
-1.3979
-1.3979
-1.3979
-1.375
-1.2629
-0.95471
-0.19562
0.92772
2.1326
3.2024
3.6507
3.6405
3.6405
3.6507
3.6456
3.6405
3.6456
3.6278
3.4342
3.1107
2.7312
2.3262
1.9211
1.5289
1.1697
0.82583
0.52016
0.22722
-0.02241
-0.26695
-0.48856
-0.68215
-0.88084
-1.0439
-1.1865
-1.3241
-1.4005
-1.4005
-1.3903
-1.3979
-1.3928
-1.3928
-1.3852
-1.3928
-1.3979
-1.3877
-1.3928
-1.3979
-1.3852
-1.3852
-1.3674
-1.2833
-1.0693
-0.55733
0.40298
1.5951
2.7719
3.6456
3.6456
3.6456
3.6456
3.6456
3.6431
3.6456
3.6431
3.5641
3.3018
2.9401
2.5427
2.1351
1.7352
1.3684
1.0245
0.69082
0.3826
0.11005
-0.14468
-0.38412
-0.60573
-0.80442
-0.97763
-1.1407
-1.2909
-1.3852
-1.3928
-1.3852
-1.3903
-1.3928
-1.4005
-1.3852
-1.3928
-1.3852
-1.3928
-1.3903
-1.3979
-1.3852
-1.3928
-1.3801
-1.3164
-1.1432
-0.75602
0.056555
1.185
2.3847
3.4648
3.6507
3.6482
3.6456
3.638
3.6456
3.6456
3.6507
3.5667
3.3272
2.9706
2.5809
2.1886
1.8065
1.4295
1.0984
0.78507
0.47176
0.19411
-0.05043
-0.29242
-0.51658
-0.71526
-0.89357
-1.0439
-1.1992
-1.3139
-1.3928
-1.3903
-1.3903
-1.3903
-1.3928
-1.3877
-1.3954
-1.3928
-1.3852
-1.3877
-1.3877
-1.4005
-1.3546
-1.2247
-0.92159
-0.20581
0.89715
2.1224
3.2508
3.6533
3.6482
3.6456
3.6482
3.6456
3.638
3.638
3.6405
3.6049
3.3807
3.0496
2.6293
2.209
1.7861
1.3786
0.99904
0.65007
0.31892
0.020893
-0.25166
-0.49365
-0.73564
-0.93688
-1.1305
-1.3011
-1.3928
-1.3979
-1.3928
-1.3928
-1.3928
-1.4005
-1.3928
-1.3903
-1.3852
-1.3903
-1.3979
-1.3928
-1.3928
-1.3928
-1.3852
-1.3342
-1.0031
-0.22874
0.90224
2.1046
3.182
3.6405
3.6405
3.6405
3.638
3.6456
3.6507
3.6456
3.6405
3.5539
3.2865
2.9095
2.4943
2.0511
1.618
1.2207
0.83856
0.48449
0.16863
-0.1294
-0.3994
-0.65413
-0.8681
-1.0795
-1.2629
-1.3852
-1.3877
-1.3877
-1.3903
-1.3928
-1.3928
-1.3903
-1.3979
-1.3928
-1.3852
-1.3903
-1.3928
-1.3979
-1.3954
-1.3928
-1.3903
-1.2629
-0.80187
0.11514
1.2767
2.4459
3.4597
3.6456
3.638
3.638
3.6456
3.6431
3.6456
3.6456
3.6253
3.4164
3.0776
2.67
2.2396
1.8167
1.4091
1.0296
0.6628
0.32656
0.028535
-0.25166
-0.50639
-0.73819
-0.94452
-1.1407
-1.3215
-1.3928
-1.3928
-1.3928
-1.3852
-1.3928
-1.4005
-1.3979
-1.3877
-1.3954
-1.3903
-1.3979
-1.3903
-1.3928
-1.3928
-1.3928
-1.3826
-1.2502
-0.80697
0.07948
1.2563
2.4637
3.5183
3.6456
3.6482
3.6456
3.638
3.638
3.6405
3.6456
3.638
3.4673
3.1464
2.7541
2.3389
1.9262
1.5187
1.1213
0.76215
0.41827
0.11005
-0.18034
-0.43761
-0.67706
-0.89357
-1.0999
-1.2731
-1.3852
-1.3928
-1.4005
-1.3852
-1.3852
-1.3928
-1.3928
-1.3979
-1.3928
-1.3928
-1.3979
-1.3852
-1.3979
-1.3852
-1.3852
-1.3826
-1.2502
-0.83753
0.0081567
1.1646
2.372
3.4444
3.638
3.638
3.6482
3.6405
3.6482
3.6456
3.6456
3.638
3.4597
3.1311
2.7465
2.3338
1.9059
1.4983
1.1137
0.74686
0.41317
0.092216
-0.21345
-0.47073
-0.72545
-0.94961
-1.1458
-1.3164
-1.3928
-1.4005
-1.3928
-1.3852
-1.3852
-1.3928
-1.3954
-1.3979
-1.3979
-1.3877
-1.3979
-1.3928
-1.3979
-1.3852
-1.3801
-1.2833
-0.92669
-0.14213
0.97866
2.1912
3.2763
3.6456
3.6456
3.6533
3.6456
3.6456
3.638
3.6456
3.6355
3.4571
3.1387
2.7541
2.3389
1.9135
1.5034
1.1239
0.7545
0.42081
0.10241
-0.19053
-0.45799
-0.70762
-0.93688
-1.1305
-1.3037
-1.3928
-1.3852
-1.3877
-1.3903
-1.3928
-1.3877
-1.3928
-1.3877
-1.3979
-1.3928
-1.3903
-1.3928
-1.3979
-1.3928
-1.3852
-1.3241
-1.0388
-0.32553
0.79526
2.0663
3.2406
3.6507
3.6405
3.6482
3.6431
3.6456
3.6456
3.638
3.638
3.638
3.5157
3.2177
2.8254
2.3975
1.9492
1.5034
1.0882
0.69082
0.32147
-0.017316
-0.33827
-0.62356
-0.88593
-1.1254
-1.3444
-1.4005
-1.4005
-1.3877
-1.3954
-1.3979
-1.3979
-1.3877
-1.3979
-1.3979
-1.3979
-1.3954
-1.3979
-1.3928
-1.3979
-1.3877
-1.3928
-1.3572
-1.0719
-0.30006
0.85639
2.1071
3.2406
3.6507
3.6456
3.6507
3.6456
3.6456
3.6431
3.6431
3.6507
3.6202
3.4087
3.0674
2.6497
2.2013
1.7607
1.3276
0.91753
0.52525
0.16609
-0.16251
-0.45544
-0.73819
-0.99292
-1.2171
-1.3979
-1.3954
-1.3877
-1.3928
-1.3877
-1.3954
-1.3954
-1.3979
-1.3928
-1.3852
-1.3979
-1.3954
-1.3877
-1.3954
-1.3903
-1.3979
-1.3877
-1.3903
-1.2171
-0.64139
0.36477
1.5976
2.8101
3.6482
3.6431
3.6456
3.6456
3.6507
3.638
3.6456
3.6456
3.638
3.4801
3.1668
2.7668
2.3465
1.8982
1.483
1.0653
0.67809
0.31638
-0.02241
-0.32553
-0.62611
-0.88084
-1.1152
-1.3241
-1.3928
-1.3979
-1.3928
-1.3979
-1.3877
-1.3979
-1.3979
-1.3852
-1.3928
-1.4005
-1.3979
-1.4005
-1.3852
-1.3979
-1.3877
-1.3852
-1.3495
-1.0897
-0.4478
0.59912
1.8269
3.0037
3.6507
3.6482
3.6431
3.6456
3.6405
3.6405
3.6507
3.6507
3.5488
3.2763
2.8993
2.4866
2.0562
1.6409
1.2436
0.85385
0.49723
0.14571
-0.1676
-0.45544
-0.71272
-0.94707
-1.1738
-1.3572
-1.3928
-1.3852
-1.3979
-1.3954
-1.3928
-1.3852
-1.3877
-1.3979
-1.3852
-1.3979
-1.3928
-1.3928
-1.3979
-1.3725
-1.1585
-0.54715
0.47685
1.7097
2.8866
3.6456
3.6507
3.6456
3.6405
3.6507
3.6507
3.6482
3.6456
3.6253
3.424
3.0751
2.6751
2.237
1.7836
1.3684
0.97357
0.58638
0.24505
-0.075903
-0.36884
-0.64394
-0.88593
-1.1101
-1.3062
-1.3903
-1.3928
-1.3928
-1.3928
-1.3928
-1.3877
-1.3852
-1.4005
-1.3928
-1.3928
-1.3877
-1.3928
-1.3928
-1.3979
-1.296
-0.81206
0.13807
1.3225
2.507
3.5463
3.6456
3.6456
3.6456
3.6456
3.6405
3.6507
3.6456
3.6507
3.5667
3.3043
2.9579
2.5401
2.1122
1.6664
1.2308
0.81564
0.42591
0.056555
-0.28733
-0.59809
-0.87065
-1.1305
-1.3597
-1.3852
-1.3928
-1.3877
-1.3928
-1.3979
-1.3852
-1.3928
-1.3903
-1.3903
-1.3954
-1.3979
-1.3928
-1.3928
-1.3903
-1.3928
-1.2629
-0.66687
0.35204
1.5059
2.6242
3.5641
3.6456
3.6405
3.6456
3.6456
3.6456
3.6431
3.6405
3.5157
3.2152
2.828
2.3924
1.9594
1.5289
1.1162
0.72903
0.36732
0.033629
-0.27714
-0.55479
-0.80951
-1.0337
-1.2324
-1.3903
-1.3877
-1.3928
-1.3877
-1.3979
-1.3979
-1.3852
-1.3979
-1.3852
-1.3979
-1.3877
-1.3928
-1.3928
-1.2145
-0.56752
0.48195
1.646
2.7337
3.6533
3.6456
3.6456
3.6507
3.6456
3.6507
3.638
3.6456
3.6482
3.4903
3.1922
2.8178
2.4026
1.9797
1.5416
1.1239
0.71884
0.32911
-0.040241
-0.36629
-0.6796
-0.9598
-1.2171
-1.3928
-1.3979
-1.3852
-1.3928
-1.3877
-1.3979
-1.3877
-1.3954
-1.3877
-1.3979
-1.3954
-1.3928
-1.3572
-0.84518
0.082027
1.1824
2.2472
3.1668
3.6507
3.6456
3.6507
3.6507
3.6482
3.6482
3.6405
3.638
3.5845
3.3578
3.0292
2.6471
2.2294
1.8167
1.4015
0.99649
0.60167
0.22977
-0.13194
-0.47582
-0.79678
-1.0897
-1.3521
-1.3852
-1.3877
-1.3954
-1.3877
-1.3954
-1.3928
-1.4005
-1.3903
-1.3928
-1.3928
-1.3928
-1.3852
-1.3954
-1.0541
-0.26185
0.72394
1.697
2.5427
3.2203
3.6456
3.6456
3.6456
3.6456
3.6507
3.6023
3.396
3.07
2.7006
2.2829
1.86
1.4677
1.078
0.71375
0.35968
0.028535
-0.30006
-0.58535
-0.84772
-1.0948
-1.3139
-1.3852
-1.3928
-1.3928
-1.3852
-1.3928
-1.3928
-1.3928
-1.3877
-1.3877
-1.3979
-1.3928
-1.3928
-1.3928
-1.3877
-1.0591
-0.25421
0.80035
1.8498
2.7668
3.4954
3.638
3.6405
3.6456
3.638
3.6456
3.5769
3.3553
3.0139
2.6446
2.2676
1.888
1.5289
1.1723
0.83602
0.51251
0.21958
-0.060619
-0.31025
-0.54205
-0.74838
-0.93688
-1.105
-1.2502
-1.3801
-1.3852
-1.3852
-1.3877
-1.3979
-1.3928
-1.3928
-1.3928
-1.3979
-1.3903
-1.3572
-1.0388
-0.27714
0.73413
1.8014
2.721
3.4699
3.6507
3.6507
3.638
3.6507
3.6456
3.5718
3.3451
3.0165
2.6369
2.2472
1.8651
1.5059
1.1595
0.83602
0.52525
0.23486
-0.02241
-0.26695
-0.48856
-0.67706
-0.85282
-1.0031
-1.1407
-1.2629
-1.3521
-1.3852
-1.3979
-1.3903
-1.3928
-1.3979
-1.3928
-1.3979
-1.3852
-1.3292
-0.98273
-0.21345
0.77488
1.7887
2.6599
3.3578
3.6507
3.6456
3.6456
3.6507
3.5947
3.3731
3.0343
2.6471
2.2396
1.8422
1.4703
1.1239
0.79017
0.49214
0.22722
-0.027505
-0.25931
-0.46309
-0.64904
-0.80442
-0.96744
-1.0974
-1.2145
-1.319
-1.3928
-1.3903
-1.3954
-1.3903
-1.3903
-1.3852
-1.3979
-1.3852
-1.3852
-1.3521
-1.184
-0.65668
0.26034
1.348
2.4026
3.2814
3.6456
3.6405
3.6456
3.6456
3.6507
3.6023
3.3833
3.0394
2.6242
2.2115
1.8116
1.4244
1.0678
0.7545
0.46157
0.2043
-0.032599
-0.25166
-0.44526
-0.63121
-0.80442
-0.94707
-1.0923
-1.2018
-1.296
-1.3826
-1.3903
-1.3903
-1.3954
-1.3928
-1.3903
-1.3877
-1.3852
-1.3979
-1.3572
-1.2476
-0.88848
-0.093734
1.0016
2.1453
3.1566
3.6405
3.6456
3.6456
3.6507
3.6456
3.6482
3.6049
3.3705
3.0139
2.6038
2.1886
1.7785
1.399
1.0423
0.7112
0.41317
0.14571
-0.10647
-0.32553
-0.53186
-0.72545
-0.89103
-1.0413
-1.1763
-1.3011
-1.3979
-1.3928
-1.3928
-1.3903
-1.3852
-1.3852
-1.3852
-1.3852
-1.3954
-1.3903
-1.3852
-1.3521
-1.184
-0.74074
0.14571
1.3174
2.4739
3.4775
3.6482
3.6456
3.6533
3.6456
3.6456
3.6507
3.6023
3.3705
3.0139
2.6038
2.1708
1.7658
1.3786
1.0169
0.69337
0.37751
0.099858
-0.14213
-0.38157
-0.59554
-0.79168
-0.96999
-1.1305
-1.2578
-1.3826
-1.3852
-1.3954
-1.3928
-1.3903
-1.3928
-1.3928
-1.3903
-1.3852
-1.3928
-1.4005
-1.3979
-1.3852
-1.2986
-1.0719
-0.48856
0.51251
1.7021
2.8636
3.6456
3.6456
3.6456
3.638
3.6456
3.6431
3.6456
3.5896
3.3323
2.963
2.558
2.13
1.7301
1.3557
0.98376
0.6679
0.34949
0.071838
-0.18289
-0.42742
-0.64139
-0.85282
-1.0209
-1.1891
-1.3215
-1.3979
-1.3979
-1.3877
-1.3928
-1.3903
-1.3903
-1.3928
-1.3979
-1.3928
-1.3954
-1.3903
-1.3877
-1.3928
-1.3623
-1.2655
-1.0184
-0.44016
0.53799
1.7479
2.9222
3.6405
3.638
3.6507
3.638
3.6456
3.6456
3.6456
3.6074
3.3807
3.0419
2.6369
2.2192
1.8116
1.4372
1.0576
0.71884
0.39789
0.10495
-0.1676
-0.42742
-0.64904
-0.85536
-1.049
-1.2043
-1.347
-1.3852
-1.4005
-1.3979
-1.3954
-1.3979
-1.3877
-1.3852
-1.3979
-1.3852
-1.3979
-1.3903
-1.3903
-1.375
-1.3011
-1.1101
-0.68215
0.14826
1.2894
2.4765
3.5463
3.6405
3.6405
3.6482
3.6405
3.6456
3.6482
3.6431
3.475
3.1744
2.7872
2.3898
1.9848
1.5976
1.2257
0.87168
0.53799
0.22467
-0.05043
-0.3128
-0.55733
-0.76366
-0.96235
-1.1458
-1.2909
-1.3979
-1.3979
-1.3979
-1.3877
-1.3928
-1.3928
-1.3979
-1.3852
-1.3928
-1.3903
-1.3979
-1.3928
-1.3928
-1.3648
-1.268
-1.0006
-0.36374
0.70865
1.9848
3.2381
3.6507
3.6507
3.6405
3.6507
3.638
3.6533
3.638
3.6456
3.6456
3.4775
3.1668
2.7617
2.3185
1.8778
1.4525
1.0423
0.66026
0.30619
-0.02241
-0.32553
-0.593
-0.85791
-1.0744
-1.2884
-1.3877
-1.3852
-1.3903
-1.3877
-1.3852
-1.3979
-1.3928
-1.3928
-1.3877
-1.3903
-1.3877
-1.3928
-1.3928
-1.3954
-1.3954
-1.3928
-1.3623
-1.1075
-0.40959
0.69082
1.9441
3.1235
3.6533
3.6456
3.6482
3.6482
3.6456
3.6456
3.6507
3.6507
3.5845
3.3298
2.963
2.5299
2.0867
1.6613
1.2436
0.83347
0.46666
0.12788
-0.18289
-0.46054
-0.72036
-0.9649
-1.1789
-1.3623
-1.3903
-1.3954
-1.3903
-1.3928
-1.3877
-1.3979
-1.3928
-1.4005
-1.3877
-1.3979
-1.3852
-1.3877
-1.3928
-1.3979
-1.3928
-1.3852
-1.3979
-1.3011
-0.98273
-0.22874
0.90734
2.1708
3.3323
3.6533
3.6456
3.6456
3.6405
3.638
3.638
3.638
3.6405
3.5616
3.2814
2.9146
2.4866
2.0587
1.6409
1.2385
0.8462
0.4794
0.15335
-0.15232
-0.43507
-0.6847
-0.92669
-1.1305
-1.3113
-1.3979
-1.3877
-1.3928
-1.3877
-1.3928
-1.3928
-1.3852
-1.3954
-1.3928
-1.3877
-1.3903
-1.3852
-1.3979
-1.3877
-1.3852
-1.3928
-1.3903
-1.3113
-1.0617
-0.42997
0.59912
1.8422
3.0521
3.6482
3.638
3.6456
3.6456
3.6405
3.6507
3.6507
3.6456
3.582
3.3196
2.9655
2.5427
2.1198
1.6817
1.2716
0.88441
0.51251
0.17373
-0.14213
-0.43761
-0.69234
-0.93942
-1.161
-1.347
-1.3928
-1.3979
-1.4005
-1.3877
-1.3954
-1.4005
-1.3928
-1.3903
-1.3903
-1.4005
-1.3928
-1.3877
-1.3877
-1.3852
-1.3928
-1.3979
-1.3801
-1.2859
-1.0541
-0.50639
0.46157
1.669
2.9095
3.6456
3.6456
3.6431
3.6431
3.6456
3.6507
3.6431
3.6456
3.5998
3.3782
3.0394
2.6497
2.2294
1.8218
1.4295
1.0576
0.69337
0.36732
0.064196
-0.22619
-0.48856
-0.71526
-0.93688
-1.1254
-1.2884
-1.3979
-1.3928
-1.3877
-1.3852
-1.3979
-1.3928
-1.3979
-1.3928
-1.4005
-1.3979
-1.3852
-1.3928
-1.3928
-1.296
-0.96744
-0.18544
0.95319
2.2115
3.3629
3.6456
3.6456
3.638
3.6456
3.6456
3.6456
3.6456
3.6456
3.6304
3.4521
3.1158
2.721
2.2727
1.832
1.3964
0.96847
0.57874
0.20175
-0.13958
-0.45799
-0.73819
-0.99546
-1.2324
-1.3852
-1.3903
-1.3928
-1.3928
-1.3852
-1.3852
-1.3928
-1.3979
-1.3979
-1.3954
-1.3852
-1.3928
-1.3928
-1.3903
-1.3877
-1.3928
-1.3292
-0.87574
0.092216
1.3073
2.5299
3.5998
3.6456
3.6507
3.638
3.6456
3.6456
3.6507
3.638
3.6507
3.6176
3.4164
3.0802
2.6751
2.2345
1.7912
1.3557
0.92772
0.52525
0.1559
-0.20327
-0.51658
-0.80442
-1.0693
-1.3088
-1.3928
-1.3928
-1.3852
-1.3852
-1.3877
-1.3928
-1.3979
-1.3954
-1.3979
-1.3852
-1.3877
-1.3877
-1.3928
-1.3928
-1.3852
-1.3928
-1.3979
-1.1458
-0.38412
0.73413
1.9466
3.0521
3.6507
3.6533
3.6507
3.6456
3.6456
3.6405
3.6405
3.6456
3.6329
3.4444
3.1311
2.7439
2.3236
1.9008
1.4779
1.0653
0.6628
0.29345
-0.052978
-0.36374
-0.65923
-0.91905
-1.161
-1.3852
-1.3903
-1.3852
-1.3877
-1.3928
-1.4005
-1.3852
-1.3903
-1.3877
-1.3903
-1.3954
-1.3979
-1.3979
-1.3852
-1.3903
-1.3954
-1.3928
-1.4005
-1.2069
-0.52677
0.54053
1.7632
2.9044
3.6456
3.6405
3.6456
3.6456
3.6431
3.6456
3.6431
3.6405
3.6253
3.4138
3.0852
2.6904
2.2625
1.8269
1.4015
1.0016
0.6144
0.25779
-0.083545
-0.38922
-0.66941
-0.92414
-1.1458
-1.3623
-1.3928
-1.3852
-1.3877
-1.3928
-1.3954
-1.3928
-1.3954
-1.3954
-1.3928
-1.3928
-1.3928
-1.3979
-1.3928
-1.3928
-1.4005
-1.3113
-0.86555
0.041271
1.2181
2.4102
3.4673
3.638
3.6405
3.6482
3.6456
3.6456
3.6507
3.6405
3.6405
3.5234
3.2381
2.8738
2.4637
2.0409
1.6282
1.2207
0.82328
0.45902
0.10241
-0.20072
-0.49875
-0.77385
-1.0082
-1.2349
-1.4005
-1.3928
-1.3928
-1.3877
-1.3928
-1.3852
-1.3928
-1.3877
-1.3954
-1.3979
-1.3928
-1.3852
-1.3979
-1.3877
-1.3928
-1.2909
-0.74328
0.28836
1.5263
2.7388
3.6507
3.6507
3.6456
3.6507
3.6533
3.6507
3.6456
3.638
3.6456
3.6456
3.503
3.2126
2.8331
2.4204
1.9772
1.5569
1.1315
0.71629
0.32402
-0.05043
-0.37138
-0.68725
-0.97254
-1.2349
-1.3928
-1.3928
-1.3954
-1.4005
-1.3979
-1.3877
-1.3979
-1.3928
-1.3979
-1.3928
-1.3979
-1.3852
-1.3928
-1.3928
-1.3852
-1.3903
-1.3903
-1.0591
-0.19053
0.96593
2.1631
3.2406
3.6456
3.6507
3.6456
3.6507
3.6456
3.6456
3.6456
3.6456
3.6456
3.4954
3.1999
2.828
2.4102
1.9721
1.5365
1.1239
0.72394
0.32911
-0.032599
-0.36884
-0.68215
-0.96999
-1.2298
-1.3928
-1.3928
-1.3877
-1.3903
-1.3903
-1.3877
-1.3954
-1.3954
-1.3928
-1.3903
-1.3928
-1.3979
-1.3928
-1.3928
-1.3877
-1.3928
-1.3979
-1.3928
-1.3037
-0.73819
0.30873
1.5416
2.7312
3.6507
3.6456
3.6456
3.638
3.6507
3.6456
3.638
3.6405
3.6431
3.5972
3.368
3.0343
2.6344
2.2115
1.7861
1.3608
0.95828
0.56091
0.19411
-0.14977
-0.46818
-0.76112
-1.0184
-1.2578
-1.3877
-1.3928
-1.3877
-1.3979
-1.4005
-1.3928
-1.3903
-1.3954
-1.3877
-1.3928
-1.3928
-1.3979
-1.3903
-1.3928
-1.3928
-1.3979
-1.4005
-1.3928
-1.3801
-1.1101
-0.34846
0.8029
2.0867
3.2686
3.6507
3.6456
3.6405
3.6405
3.6456
3.6482
3.6405
3.6482
3.638
3.5106
3.2152
2.8382
2.4179
1.9746
1.5543
1.1315
0.73158
0.35204
-0.0020324
-0.32808
-0.63121
-0.89612
-1.1534
-1.3776
-1.3979
-1.3979
-1.3852
-1.3877
-1.3954
-1.3903
-1.4005
-1.3928
-1.3852
-1.3928
-1.3877
-1.3928
-1.3979
-1.3979
-1.3903
-1.3903
-1.3877
-1.3725
-1.1407
-0.48346
0.6144
1.8982
3.1285
3.6507
3.6456
3.6456
3.6456
3.6456
3.638
3.6507
3.6482
3.6329
3.4317
3.1107
2.7133
2.2778
1.8524
1.4244
1.0169
0.62459
0.26543
-0.075903
-0.37903
-0.66177
-0.91905
-1.1483
-1.3495
-1.3928
-1.3979
-1.3928
-1.3903
-1.3979
-1.3877
-1.3928
-1.3928
-1.3979
-1.3877
-1.3928
-1.3928
-1.3979
-1.3877
-1.3979
-1.3928
-1.3241
-0.97763
-0.11666
1.1315
2.4917
3.638
3.6405
3.6456
3.6456
3.6431
3.6507
3.6405
3.6507
3.6456
3.6507
3.6151
3.3833
3.0394
2.6115
2.1631
1.7148
1.2716
0.8462
0.4361
0.061649
-0.28733
-0.60828
-0.90631
-1.1661
-1.3903
-1.3928
-1.3928
-1.3979
-1.3903
-1.3852
-1.4005
-1.3928
-1.3903
-1.3928
-1.3928
-1.3928
-1.3954
-1.3928
-1.3852
-1.3852
-1.3979
-1.3877
-1.3928
-1.1407
-0.34846
0.85894
2.1912
3.424
3.6456
3.6507
3.6456
3.6507
3.6405
3.6456
3.6456
3.6507
3.6456
3.5947
3.3323
2.9579
2.5299
2.0714
1.618
1.157
0.72903
0.31638
-0.058072
-0.41469
-0.74328
-1.0362
-1.2884
-1.3979
-1.3928
-1.3877
-1.3954
-1.3903
-1.4005
-1.4005
-1.3979
-1.4005
-1.3928
-1.3928
-1.4005
-1.4005
-1.3852
-1.3954
-1.4005
-1.3877
-1.3877
-1.3852
-1.3699
-1.0744
-0.27459
0.93536
2.2701
3.5081
3.6456
3.6405
3.6456
3.6456
3.6456
3.6533
3.6431
3.6456
3.6507
3.5208
3.2203
2.828
2.3873
1.9364
1.483
1.0551
0.63733
0.25015
-0.10902
-0.43761
-0.74328
-1.0209
-1.2731
-1.3852
-1.4005
-1.4005
-1.3928
-1.3979
-1.4005
-1.3928
-1.3903
-1.3928
-1.3928
-1.3852
-1.3928
-1.3903
-1.3928
-1.3928
-1.3979
-1.3877
-1.3852
-1.3928
-1.3648
-1.1407
-0.51913
0.54308
1.8575
3.1642
3.638
3.6405
3.6456
3.6405
3.6405
3.6456
3.6482
3.6507
3.6405
3.5616
3.2941
2.9171
2.4765
2.0281
1.5849
1.1417
0.73158
0.33421
-0.02241
-0.3561
-0.66177
-0.94452
-1.1891
-1.4005
-1.3954
-1.3903
-1.4005
-1.3928
-1.3928
-1.3954
-1.3979
-1.3928
-1.3928
-1.3877
-1.3979
-1.3903
-1.3928
-1.3852
-1.3877
-1.3979
-1.3979
-1.3979
-1.3139
-1.0591
-0.42997
0.60422
1.8906
3.1668
3.6431
3.6456
3.6456
3.6431
3.6507
3.638
3.6431
3.6456
3.6355
3.4648
3.1489
2.7643
2.3313
1.9008
1.4652
1.05
0.65771
0.27562
-0.060619
-0.37648
-0.66177
-0.92159
-1.1534
-1.3623
-1.3928
-1.3852
-1.3852
-1.3877
-1.3852
-1.4005
-1.3852
-1.3877
-1.3928
-1.3903
-1.3979
-1.3903
-1.3852
-1.3954
-1.3928
-1.3928
-1.3776
-1.2731
-0.98273
-0.24147
0.91243
2.2599
3.5769
3.6456
3.6431
3.6456
3.6456
3.6482
3.6482
3.638
3.6507
3.6456
3.6278
3.4087
3.0445
2.6115
2.1504
1.6741
1.2334
0.79017
0.38006
-0.012221
-0.3561
-0.68215
-0.97509
-1.2425
-1.3928
-1.3928
-1.3928
-1.4005
-1.3928
-1.3928
-1.3928
-1.3928
-1.3852
-1.3954
-1.3979
-1.3877
-1.3877
-1.3979
-1.3852
-1.3954
-1.3979
-1.3928
-1.4005
-1.375
-1.2069
-0.63375
0.39279
1.697
3.0216
3.6456
3.6533
3.6507
3.6507
3.6482
3.638
3.6405
3.6456
3.6507
3.6304
3.4215
3.0598
2.6369
2.1708
1.6893
1.2334
0.79017
0.3826
0.0005149
-0.3612
-0.6847
-0.97509
-1.2553
-1.3928
-1.3852
-1.3979
-1.3852
-1.3852
-1.3954
-1.3928
-1.3877
-1.3979
-1.4005
-1.3928
-1.3928
-1.3979
-1.3877
-1.3979
-1.3979
-1.3928
-1.3928
-1.3979
-1.3852
-1.3776
-1.2375
-0.85536
-0.02241
1.1544
2.4892
3.6456
3.6456
3.6405
3.6405
3.6456
3.6456
3.6456
3.6456
3.6507
3.638
3.5259
3.2075
2.8152
2.3695
1.9186
1.4652
1.0296
0.6144
0.22467
-0.13449
-0.47073
-0.76366
-1.0362
-1.2833
-1.3954
-1.3954
-1.3928
-1.4005
-1.3877
-1.3928
-1.4005
-1.3954
-1.3928
-1.3928
-1.3954
-1.3903
-1.3979
-1.3928
-1.3928
-1.3877
-1.3877
-1.3954
-1.3903
-1.3852
-1.2706
-1.0413
-0.52167
0.39789
1.6053
2.884
3.6431
3.6507
3.6456
3.6456
3.6405
3.6456
3.6456
3.6456
3.6507
3.5871
3.317
2.9604
2.5223
2.0944
1.6359
1.2156
0.79526
0.39279
0.036177
-0.29242
-0.60573
-0.88084
-1.1254
-1.3393
-1.3954
-1.4005
-1.3903
-1.3928
-1.3928
-1.3852
-1.3928
-1.3852
-1.4005
-1.3928
-1.3928
-1.3979
-1.3979
-1.3979
-1.3979
-1.3979
-1.3928
-1.3699
-1.2859
-1.1024
-0.73564
-0.02241
1.0194
2.2039
3.3909
3.6507
3.6456
3.6405
3.6456
3.6456
3.6507
3.6456
3.6507
3.5692
3.3298
2.9681
2.5656
2.1351
1.7225
1.3047
0.90224
0.53799
0.19156
-0.11156
-0.3994
-0.65158
-0.88084
-1.0846
-1.268
-1.3928
-1.3877
-1.3903
-1.3903
-1.3877
-1.3954
-1.3877
-1.3954
-1.3979
-1.3852
-1.3928
-1.3928
-1.3852
-1.3928
-1.3572
-1.1585
-0.63121
0.32147
1.5798
2.8866
3.638
3.638
3.6533
3.6456
3.6456
3.6405
3.638
3.6456
3.6456
3.6405
3.5157
3.2075
2.8178
2.3746
1.9211
1.4652
1.0143
0.59148
0.20175
-0.16251
-0.50384
-0.81716
-1.105
-1.3597
-1.3928
-1.3928
-1.3979
-1.3928
-1.3852
-1.3877
-1.3928
-1.3928
-1.3979
-1.3954
-1.3877
-1.3979
-1.3979
-1.3928
-1.3928
-1.3852
-1.3419
-0.91905
-0.052978
1.1009
2.3058
3.3986
3.6456
3.6456
3.6405
3.6456
3.6482
3.6507
3.6405
3.6456
3.5565
3.2788
2.8662
2.4
1.9186
1.4295
0.96593
0.51761
0.10495
-0.2644
-0.61337
-0.92414
-1.2171
-1.3903
-1.3928
-1.3928
-1.3852
-1.3979
-1.3852
-1.3928
-1.3954
-1.3928
-1.3852
-1.3979
-1.3928
-1.3954
-1.4005
-1.3928
-1.3928
-1.3928
-1.3852
-1.3088
-0.85791
0.020893
1.185
2.4153
3.5132
3.6456
3.6533
3.6405
3.6507
3.6456
3.6482
3.638
3.6507
3.5412
3.2508
2.8764
2.4561
2.0052
1.5645
1.1391
0.72903
0.34439
-0.019863
-0.34591
-0.64394
-0.9165
-1.161
-1.3776
-1.4005
-1.3852
-1.3852
-1.3928
-1.3979
-1.3954
-1.3928
-1.3877
-1.3954
-1.4005
-1.3877
-1.3928
-1.3954
-1.3979
-1.3954
-1.3266
-0.97763
-0.17779
0.943
2.1504
3.2865
3.6507
3.6405
3.6507
3.6456
3.6456
3.6405
3.6507
3.6456
3.5539
3.2916
2.9273
2.507
2.0689
1.6282
1.2105
0.82073
0.43864
0.074385
-0.23638
-0.5395
-0.81716
-1.0566
-1.2655
-1.3903
-1.4005
-1.3852
-1.3877
-1.3903
-1.3928
-1.3979
-1.3928
-1.3928
-1.3852
-1.3979
-1.3979
-1.4005
-1.3954
-1.3572
-1.0158
-0.22364
0.88187
2.0638
3.1489
3.6482
3.638
3.6405
3.638
3.6507
3.6456
3.6456
3.6431
3.4546
3.1566
2.7847
2.3669
1.9466
1.5416
1.1417
0.7596
0.39534
0.056555
-0.25676
-0.54715
-0.80442
-1.0413
-1.2629
-1.3928
-1.3877
-1.3852
-1.3877
-1.3903
-1.3903
-1.3954
-1.3928
-1.3979
-1.3928
-1.4005
-1.3979
-1.3164
-0.79932
0.14826
1.3047
2.4255
3.4037
3.6405
3.6456
3.6533
3.6507
3.6482
3.6456
3.6456
3.6507
3.5285
3.2508
2.9018
2.5019
2.0918
1.6664
1.2512
0.85894
0.45902
0.084574
-0.25421
-0.58535
-0.8681
-1.1508
-1.3928
-1.3928
-1.3877
-1.3852
-1.3903
-1.3877
-1.3852
-1.3852
-1.3928
-1.4005
-1.3928
-1.3877
-1.4005
-1.3954
-1.3852
-1.0744
-0.216
0.8997
2.0383
3.0623
3.6456
3.6507
3.6482
3.6507
3.6507
3.6482
3.6405
3.6507
3.6278
3.4648
3.154
2.7719
2.3593
1.939
1.5059
1.1086
0.69846
0.31128
-0.055525
-0.3994
-0.71272
-1.0184
-1.2731
-1.3979
-1.3979
-1.3928
-1.4005
-1.3877
-1.3877
-1.3928
-1.3979
-1.3877
-1.3954
-1.4005
-1.3903
-1.3877
-1.3954
-1.3877
-1.3928
-1.1738
-0.40959
0.68063
1.8396
2.8917
3.6507
3.6507
3.6405
3.638
3.6456
3.638
3.6482
3.6456
3.6456
3.4979
3.2152
2.8534
2.4433
2.0358
1.6308
1.2207
0.83092
0.44629
0.084574
-0.2644
-0.58281
-0.8732
-1.1458
-1.3826
-1.3979
-1.3903
-1.3877
-1.3928
-1.3928
-1.3979
-1.3852
-1.3877
-1.4005
-1.3903
-1.3877
-1.3928
-1.3979
-1.3928
-1.3928
-1.3979
-1.3903
-1.2859
-0.65413
0.39279
1.6002
2.7516
3.6456
3.638
3.6482
3.6456
3.6456
3.6507
3.6507
3.6507
3.6482
3.5488
3.2916
2.9401
2.535
2.1224
1.7097
1.3022
0.8997
0.51251
0.14061
-0.20327
-0.51403
-0.79932
-1.0591
-1.2935
-1.3979
-1.3979
-1.3928
-1.3979
-1.3928
-1.3954
-1.3954
-1.3928
-1.3954
-1.3877
-1.4005
-1.3928
-1.3903
-1.3852
-1.3928
-1.3928
-1.3877
-1.3979
-1.375
-1.0821
-0.3077
0.85894
2.1198
3.2763
3.6456
3.6405
3.6456
3.6482
3.6456
3.6456
3.6405
3.6482
3.5998
3.368
3.0088
2.5885
2.1708
1.725
1.3149
0.91243
0.52525
0.17628
-0.14213
-0.44526
-0.72036
-0.95725
-1.1763
-1.3674
-1.3852
-1.3852
-1.3903
-1.3852
-1.3979
-1.3852
-1.3979
-1.3954
-1.3954
-1.3903
-1.3928
-1.3979
-1.3877
-1.3928
-1.3903
-1.3877
-1.3088
-0.93433
-0.075903
1.1366
2.4408
3.6253
3.6456
3.6456
3.6507
3.6456
3.6405
3.6507
3.6456
3.6456
3.6329
3.4521
3.1235
2.7235
2.3083
1.8753
1.4423
1.0347
0.65261
0.28326
-0.045336
-0.35865
-0.62866
-0.89103
-1.1254
-1.3266
-1.4005
-1.3979
-1.3979
-1.3877
-1.3928
-1.3928
-1.3954
-1.3852
-1.3928
-1.3979
-1.3928
-1.3928
-1.3928
-1.3979
-1.4005
-1.3928
-1.347
-0.99546
-0.11411
1.1366
2.4714
3.6431
3.6482
3.6533
3.6482
3.638
3.6507
3.6456
3.6456
3.6533
3.6456
3.5896
3.3425
2.963
2.5299
2.0791
1.6333
1.1875
0.76215
0.36223
-0.02241
-0.36884
-0.67706
-0.96235
-1.2324
-1.3877
-1.3928
-1.3928
-1.3928
-1.3928
-1.3928
-1.3979
-1.3954
-1.3979
-1.3954
-1.3928
-1.4005
-1.3903
-1.3928
-1.3979
-1.3877
-1.3979
-1.3852
-1.3979
-1.3393
-0.88338
0.10241
1.3939
2.7133
3.6507
3.6405
3.6507
3.6456
3.638
3.6482
3.6456
3.6456
3.6507
3.6482
3.5132
3.1999
2.8
2.3618
1.9059
1.4474
1.0143
0.59657
0.20684
-0.14723
-0.48601
-0.78659
-1.0617
-1.3037
-1.3979
-1.3852
-1.3877
-1.4005
-1.3979
-1.3877
-1.3928
-1.3979
-1.3928
-1.3954
-1.3877
-1.3928
-1.3852
-1.3903
-1.3928
-1.3928
-1.3979
-1.3928
-1.3852
-1.3877
-1.3062
-0.88593
0.018346
1.2945
2.6267
3.6456
3.6533
3.6507
3.6456
3.6456
3.6456
3.6405
3.638
3.638
3.6482
3.4877
3.1566
2.7617
2.3185
1.8626
1.4193
1.0016
0.60422
0.23232
-0.1243
-0.44526
-0.73564
-1.0006
-1.2451
-1.4005
-1.3877
-1.3928
-1.3877
-1.3979
-1.3954
-1.3928
-1.3928
-1.3954
-1.3979
-1.3903
-1.3954
-1.3928
-1.3979
-1.3903
-1.3852
-1.3852
-1.3928
-1.3979
-1.3928
-1.3139
-1.077
-0.46563
0.58129
1.8982
3.2203
3.6507
3.6507
3.6456
3.6507
3.6507
3.6456
3.6456
3.6533
3.6507
3.5514
3.2763
2.8942
2.4663
2.0307
1.5875
1.1621
0.7596
0.3826
0.043818
-0.28478
-0.57007
-0.84518
-1.0821
-1.2986
-1.3979
-1.3903
-1.3954
-1.3903
-1.3979
-1.3852
-1.4005
-1.3852
-1.3852
-1.3852
-1.3928
-1.3928
-1.3877
-1.3877
-1.3928
-1.3877
-1.3903
-1.3011
-0.99292
-0.26185
0.89206
2.2217
3.4903
3.6456
3.6456
3.6405
3.6507
3.6456
3.638
3.6507
3.6507
3.6456
3.5412
3.2381
2.8407
2.4
1.9466
1.4983
1.0678
0.65261
0.26288
-0.088639
-0.41724
-0.71781
-1.0031
-1.2451
-1.3877
-1.3954
-1.3928
-1.4005
-1.3928
-1.3979
-1.3954
-1.3928
-1.3928
-1.3877
-1.3877
-1.3903
-1.3928
-1.3877
-1.3852
-1.3852
-1.3928
-1.3979
-1.268
-0.74838
0.26543
1.5824
2.9146
3.638
3.6456
3.6405
3.6456
3.6507
3.6507
3.6405
3.638
3.6482
3.6533
3.5488
3.2432
2.8382
2.372
1.9059
1.4372
0.98121
0.54053
0.13807
-0.24402
-0.5879
-0.89612
-1.1814
-1.3877
-1.3928
-1.3979
-1.3954
-1.3928
-1.3928
-1.3954
-1.4005
-1.3954
-1.3928
-1.3979
-1.3928
-1.3928
-1.3903
-1.3954
-1.3954
-1.3954
-1.3954
-1.3954
-1.3801
-1.0948
-0.32553
0.85894
2.2013
3.4622
3.6405
3.6456
3.6533
3.6507
3.6507
3.6507
3.6456
3.638
3.6507
3.5794
3.312
2.9171
2.4714
2.0128
1.5263
1.0806
0.65007
0.23232
-0.14723
-0.48601
-0.81206
-1.0897
-1.3495
-1.3979
-1.3979
-1.3928
-1.3928
-1.3979
-1.3928
-1.3928
-1.3852
-1.3954
-1.3852
-1.3928
-1.4005
-1.3928
-1.3928
-1.3928
-1.3877
-1.3928
-1.3903
-1.3979
-1.3852
-1.212
-0.65668
0.36223
1.669
2.9935
3.6456
3.6507
3.6456
3.638
3.6405
3.6482
3.6456
3.6456
3.6456
3.6074
3.3782
3.0165
2.5809
2.1147
1.6511
1.2079
0.77488
0.37241
-0.014769
-0.36629
-0.68725
-0.97763
-1.2502
-1.3877
-1.3928
-1.3928
-1.3928
-1.3954
-1.3979
-1.3877
-1.3928
-1.4005
-1.3877
-1.3903
-1.4005
-1.3928
-1.3903
-1.3877
-1.3903
-1.3877
-1.3954
-1.3928
-1.3776
-1.1967
-0.75093
0.12278
1.3149
2.6369
3.6533
3.6456
3.6507
3.6456
3.6431
3.6482
3.638
3.6482
3.6456
3.6023
3.3578
2.9986
2.5707
2.13
1.6893
1.2614
0.83347
0.43864
0.069291
-0.26949
-0.58026
-0.85791
-1.1126
-1.3342
-1.4005
-1.3928
-1.3852
-1.3877
-1.3954
-1.3852
-1.3877
-1.3928
-1.3852
-1.3877
-1.3979
-1.4005
-1.3979
-1.3979
-1.3903
-1.3826
-1.2527
-0.8248
0.05146
1.2716
2.5962
3.6456
3.6507
3.6533
3.6533
3.6431
3.6405
3.638
3.6456
3.6456
3.6482
3.4724
3.126
2.6981
2.2345
1.753
1.2945
0.85385
0.42845
0.025987
-0.34337
-0.68725
-0.99037
-1.2757
-1.3928
-1.3928
-1.3928
-1.3928
-1.3979
-1.3928
-1.4005
-1.3928
-1.3928
-1.3954
-1.3928
-1.3903
-1.3954
-1.3979
-1.3928
-1.3928
-1.3877
-1.3877
-1.3623
-1.0693
-0.30516
0.86404
2.2268
3.5106
3.6482
3.6456
3.6507
3.6405
3.6456
3.6507
3.6405
3.6456
3.6456
3.5947
3.34
2.9528
2.4917
2.0001
1.5085
1.0474
0.59148
0.17882
-0.216
-0.56752
-0.88848
-1.1916
-1.3979
-1.3928
-1.3954
-1.3852
-1.3928
-1.3877
-1.3903
-1.3954
-1.4005
-1.3928
-1.3852
-1.3852
-1.3954
-1.4005
-1.3877
-1.3954
-1.3928
-1.3928
-1.3928
-1.3776
-1.1483
-0.5013
0.5762
1.8829
3.1999
3.6456
3.638
3.6405
3.6456
3.6456
3.6507
3.6507
3.638
3.6456
3.6023
3.3272
2.9451
2.4968
2.0128
1.5365
1.0678
0.63733
0.21958
-0.16506
-0.51913
-0.84772
-1.1356
-1.3852
-1.3928
-1.3979
-1.3979
-1.3903
-1.3928
-1.3928
-1.3852
-1.3852
-1.3877
-1.3928
-1.3852
-1.3852
-1.3903
-1.3903
-1.3903
-1.3928
-1.3928
-1.3903
-1.3903
-1.296
-0.95216
-0.21345
0.91753
2.2141
3.4928
3.6456
3.6456
3.6507
3.6405
3.6456
3.6405
3.6507
3.6405
3.6405
3.4775
3.1464
2.7312
2.2701
1.804
1.3429
0.88187
0.46666
0.05146
-0.30261
-0.64904
-0.95725
-1.2324
-1.3928
-1.3877
-1.3979
-1.3852
-1.3954
-1.3852
-1.3979
-1.3903
-1.3928
-1.3979
-1.3903
-1.3928
-1.3903
-1.3877
-1.3852
-1.3877
-1.3979
-1.3852
-1.347
-1.1483
-0.67706
0.17882
1.3124
2.5783
3.6456
3.6456
3.6456
3.6507
3.6405
3.6405
3.6456
3.6456
3.6405
3.5361
3.2483
2.8662
2.4331
1.9772
1.5365
1.0984
0.67554
0.28581
-0.088639
-0.41978
-0.71526
-1.0006
-1.2425
-1.3852
-1.3928
-1.3877
-1.3928
-1.3979
-1.3928
-1.3928
-1.3928
-1.4005
-1.4005
-1.3928
-1.3979
-1.3852
-1.3979
-1.3877
-1.3852
-1.3317
-1.1101
-0.5395
0.45138
1.7327
3.0598
3.6405
3.6482
3.6456
3.6533
3.6456
3.6482
3.6533
3.6456
3.6405
3.6431
3.4546
3.098
2.6599
2.1886
1.697
1.2156
0.74941
0.31383
-0.10647
-0.47837
-0.8248
-1.1432
-1.3928
-1.3954
-1.3979
-1.3877
-1.3954
-1.3979
-1.3954
-1.3954
-1.3954
-1.3852
-1.3852
-1.3928
-1.3979
-1.3979
-1.3954
-1.3954
-1.3979
-1.3979
-1.3928
-1.2273
-0.6796
0.30873
1.5773
2.884
3.6456
3.6456
3.6482
3.6456
3.6507
3.6456
3.6456
3.6456
3.638
3.6125
3.3705
2.9859
2.5172
2.0307
1.5442
1.0602
0.59912
0.16863
-0.23383
-0.59809
-0.93433
-1.24
-1.3852
-1.3954
-1.3979
-1.3979
-1.4005
-1.3954
-1.3877
-1.3954
-1.3979
-1.4005
-1.3877
-1.3928
-1.3877
-1.3877
-1.3928
-1.3954
-1.3928
-1.3903
-1.3852
-1.3597
-1.133
-0.53441
0.46921
1.7327
3.0343
3.6456
3.6456
3.6456
3.6482
3.6456
3.6456
3.6456
3.6456
3.6456
3.5743
3.289
2.8891
2.4459
1.9721
1.4805
1.0296
0.58129
0.16099
-0.22364
-0.57517
-0.90121
-1.1916
-1.3928
-1.3903
-1.4005
-1.3928
-1.3954
-1.4005
-1.3954
-1.4005
-1.4005
-1.3852
-1.3928
-1.3928
-1.3852
-1.3877
-1.3877
-1.3979
-1.3979
-1.3877
-1.3852
-1.3419
-1.1254
-0.64139
0.22977
1.3913
2.6624
3.638
3.6482
3.638
3.6456
3.6507
3.6431
3.6456
3.6456
3.6456
3.5845
3.3069
2.9324
2.4917
2.0332
1.562
1.106
0.6679
0.26034
-0.13449
-0.47328
-0.80187
-1.0744
-1.3419
-1.3877
-1.3928
-1.3852
-1.3852
-1.4005
-1.3903
-1.3928
-1.3852
-1.3903
-1.3928
-1.3979
-1.3928
-1.3979
-1.3979
-1.3954
-1.3852
-1.3903
-1.2909
-1.049
-0.51148
0.36987
1.5238
2.7465
3.6507
3.6507
3.6533
3.6507
3.6456
3.6507
3.6456
3.6456
3.6456
3.5004
3.1769
2.777
2.3389
1.8778
1.4142
0.97102
0.55836
0.15335
-0.21345
-0.54205
-0.84518
-1.1152
-1.347
-1.3928
-1.3928
-1.3877
-1.3877
-1.3928
-1.3903
-1.3954
-1.3852
-1.3979
-1.3928
-1.4005
-1.3877
-1.3979
-1.3979
-1.3852
-1.3928
-1.2935
-1.0235
-0.3612
0.69337
2.0001
3.3323
3.6456
3.6456
3.6507
3.6456
3.638
3.6507
3.638
3.6456
3.6456
3.6304
3.4342
3.0751
2.6115
2.1326
1.6308
1.1417
0.68063
0.21958
-0.18798
-0.57517
-0.91905
-1.24
-1.3928
-1.3979
-1.3877
-1.3928
-1.3928
-1.3928
-1.4005
-1.4005
-1.3877
-1.3979
-1.3877
-1.3852
-1.3954
-1.3979
-1.4005
-1.3928
-1.3877
-1.3928
-1.3903
-1.2094
-0.62356
0.40553
1.6893
3.0088
3.6507
3.6456
3.6456
3.6456
3.6507
3.6507
3.6456
3.638
3.6456
3.6151
3.3603
2.9681
2.5019
2.0078
1.5161
1.0271
0.55582
0.11769
-0.29497
-0.66941
-1.0133
-1.3088
-1.3928
-1.3928
-1.3877
-1.3979
-1.4005
-1.3877
-1.3954
-1.3877
-1.3928
-1.3979
-1.3877
-1.4005
-1.4005
-1.3928
-1.3928
-1.3903
-1.3928
-1.3877
-1.3852
-1.3139
-0.96744
-0.16506
0.99649
2.3134
3.5922
3.6405
3.6482
3.6482
3.6456
3.6405
3.6456
3.6456
3.6482
3.6355
3.4495
3.098
2.6599
2.1708
1.6843
1.1952
0.72648
0.28581
-0.11411
-0.5013
-0.84263
-1.1458
-1.3928
-1.3903
-1.3928
-1.3928
-1.3979
-1.3877
-1.3877
-1.3954
-1.3954
-1.3877
-1.3979
-1.3979
-1.3928
-1.3928
-1.3928
-1.3928
-1.3979
-1.3903
-1.3903
-1.3725
-1.2043
-0.75857
0.071838
1.2156
2.5045
3.6533
3.6507
3.6405
3.6405
3.6482
3.6533
3.6507
3.6507
3.6456
3.5743
3.2967
2.9069
2.4663
1.9848
1.5085
1.05
0.61186
0.19156
-0.18544
-0.5395
-0.86046
-1.1305
-1.3852
-1.3877
-1.3979
-1.3852
-1.4005
-1.3979
-1.3877
-1.3928
-1.3979
-1.3877
-1.3852
-1.3928
-1.3852
-1.3954
-1.3928
-1.3852
-1.3954
-1.3266
-1.0846
-0.49365
0.49978
1.753
3.0572
3.6456
3.6507
3.6456
3.638
3.6456
3.6456
3.6456
3.6482
3.638
3.5361
3.233
2.8356
2.3771
1.888
1.4117
0.95064
0.49723
0.082027
-0.30006
-0.64394
-0.9598
-1.2451
-1.3903
-1.4005
-1.3928
-1.3928
-1.3954
-1.3852
-1.3979
-1.3954
-1.3928
-1.3852
-1.3852
-1.3979
-1.3928
-1.3877
-1.3954
-1.3928
-1.3954
-1.2069
-0.57007
0.53034
1.8906
3.2585
3.6431
3.638
3.6405
3.6482
3.6456
3.6456
3.6456
3.6405
3.6405
3.6507
3.4801
3.1235
2.6751
2.1759
1.6639
1.157
0.67044
0.20175
-0.22874
-0.62356
-0.98273
-1.3113
-1.3928
-1.3928
-1.4005
-1.3928
-1.3877
-1.3954
-1.3954
-1.3877
-1.3877
-1.4005
-1.3877
-1.3928
-1.4005
-1.3954
-1.3877
-1.3877
-1.3852
-1.3928
-1.3648
-0.9649
-0.027505
1.2665
2.6497
3.6456
3.6405
3.6507
3.6533
3.638
3.6405
3.638
3.6482
3.6405
3.6456
3.4928
3.1362
2.6853
2.1784
1.6715
1.1723
0.68063
0.22213
-0.20327
-0.593
-0.95216
-1.2833
-1.3852
-1.3877
-1.3877
-1.3928
-1.3979
-1.3979
-1.3877
-1.3903
-1.3928
-1.3928
-1.3928
-1.3979
-1.3877
-1.3877
-1.3928
-1.3877
-1.3979
-1.3852
-1.3928
-1.3877
-1.1992
-0.52677
0.59148
1.9517
3.3094
3.6456
3.6533
3.6507
3.638
3.6482
3.6456
3.6456
3.6456
3.6456
3.5769
3.2916
2.8891
2.4051
1.9084
1.4142
0.93791
0.46921
0.036177
-0.3561
-0.72291
-1.0566
-1.3495
-1.3979
-1.4005
-1.3928
-1.3877
-1.3954
-1.4005
-1.3877
-1.3903
-1.3928
-1.3903
-1.3979
-1.3877
-1.3979
-1.4005
-1.4005
-1.3928
-1.3979
-1.3903
-1.3903
-1.3699
-1.1814
-0.62866
0.37496
1.6766
3.0368
3.6482
3.6456
3.638
3.6456
3.6456
3.6456
3.6456
3.6456
3.6507
3.5845
3.3018
2.9069
2.451
1.9823
1.5034
1.0322
0.5762
0.15844
-0.23893
-0.58281
-0.89867
-1.1967
-1.3979
-1.3903
-1.3928
-1.3954
-1.3877
-1.3852
-1.3928
-1.3928
-1.3954
-1.3928
-1.3954
-1.3954
-1.3928
-1.4005
-1.3852
-1.3954
-1.3852
-1.3979
-1.3139
-0.98018
-0.22619
0.95828
2.3338
3.6482
3.6456
3.6431
3.6405
3.6533
3.6482
3.6456
3.6456
3.6507
3.6482
3.5565
3.2636
2.8382
2.3669
1.8702
1.3735
0.8997
0.431
0.0081567
-0.37903
-0.74328
-1.0719
-1.375
-1.3877
-1.3928
-1.3928
-1.4005
-1.3877
-1.3928
-1.3877
-1.3877
-1.3852
-1.3954
-1.3877
-1.3877
-1.3852
-1.3928
-1.3852
-1.3852
-1.3979
-1.3979
-1.3877
-1.3444
-1.0719
-0.33572
0.84366
2.2727
3.6456
3.6456
3.6482
3.6533
3.6456
3.6456
3.638
3.6507
3.6456
3.6507
3.638
3.5055
3.1668
2.7083
2.209
1.6995
1.185
0.69082
0.22213
-0.20836
-0.60828
-0.98018
-1.3037
-1.3852
-1.3877
-1.3877
-1.403
-1.3928
-1.3928
-1.3979
-1.3979
-1.4005
-1.3979
-1.3928
-1.3877
-1.3979
-1.3928
-1.4005
-1.3979
-1.3852
-1.3928
-1.3852
-1.3928
-1.3877
-1.2018
-0.60828
0.45393
1.8116
3.2203
3.6533
3.6405
3.6456
3.6533
3.6405
3.6456
3.638
3.6482
3.6533
3.6456
3.475
3.1184
2.6675
2.1784
1.6639
1.1621
0.67809
0.21703
-0.19308
-0.593
-0.93942
-1.268
-1.3979
-1.3954
-1.3979
-1.3928
-1.3928
-1.3954
-1.3979
-1.3954
-1.3928
-1.3928
-1.4005
-1.3954
-1.3877
-1.3903
-1.4005
-1.3979
-1.3852
-1.3852
-1.3852
-1.3903
-1.3928
-1.296
-0.99801
-0.25421
0.89206
2.2701
3.6304
3.6456
3.6456
3.6456
3.6456
3.6482
3.6431
3.6533
3.6456
3.6456
3.5514
3.2585
2.8382
2.3567
1.8651
1.3811
0.90734
0.45138
0.02344
-0.37138
-0.72545
-1.0617
-1.347
-1.3954
-1.3928
-1.4005
-1.3928
-1.4005
-1.4005
-1.3852
-1.3852
-1.3979
-1.3928
-1.3877
-1.3903
-1.3928
-1.3852
-1.3852
-1.3979
-1.3979
-1.3877
-1.3979
-1.2986
-1.0235
-0.33827
0.7545
2.0969
3.4597
3.6456
3.6456
3.6482
3.6405
3.6456
3.6456
3.6558
3.6456
3.6456
3.5565
3.2636
2.8636
2.4
1.9211
1.4321
0.97866
0.52016
0.11259
-0.28733
-0.6363
-0.96235
-1.2476
-1.3903
-1.3928
-1.3954
-1.3877
-1.3979
-1.3877
-1.3979
-1.3877
-1.3979
-1.3877
-1.3954
-1.3928
-1.3852
-1.3979
-1.3979
-1.3903
-1.3928
-1.3903
-1.3342
-1.0413
-0.28223
0.91753
2.344
3.6405
3.6405
3.6507
3.6405
3.6456
3.6456
3.638
3.6456
3.6405
3.6456
3.6456
3.4597
3.0802
2.6166
2.1046
1.5976
1.0907
0.59912
0.1508
-0.28223
-0.66687
-1.0286
-1.347
-1.4005
-1.3979
-1.3928
-1.3954
-1.3954
-1.3979
-1.3928
-1.3877
-1.3877
-1.3928
-1.3979
-1.3928
-1.3877
-1.3979
-1.3979
-1.3954
-1.4005
-1.4005
-1.3928
-1.3903
-1.2018
-0.5395
0.57365
1.9492
3.3043
3.6456
3.6456
3.6456
3.6533
3.6456
3.6456
3.6507
3.6456
3.6456
3.6151
3.3578
2.9655
2.4917
1.9797
1.4754
0.96847
0.49214
0.048913
-0.3612
-0.74583
-1.0923
-1.3928
-1.3877
-1.3877
-1.3877
-1.3979
-1.3877
-1.3852
-1.3979
-1.3852
-1.3928
-1.3928
-1.3979
-1.3928
-1.4005
-1.3954
-1.3903
-1.3877
-1.3928
-1.3903
-1.3954
-1.3903
-1.2527
-0.8248
0.059102
1.3047
2.67
3.6482
3.6456
3.6456
3.6456
3.638
3.6507
3.6456
3.6482
3.638
3.6431
3.4393
3.0802
2.6395
2.1377
1.6409
1.157
0.68827
0.2425
-0.17015
-0.55224
-0.89612
-1.2145
-1.3877
-1.3877
-1.3979
-1.3852
-1.3954
-1.403
-1.3852
-1.4005
-1.3979
-1.3877
-1.3903
-1.4005
-1.3852
-1.3852
-1.3928
-1.3852
-1.3877
-1.3979
-1.3903
-1.3139
-1.0617
-0.44526
0.53289
1.7581
3.0292
3.6507
3.6456
3.6405
3.6456
3.6507
3.6507
3.6456
3.6507
3.6304
3.4368
3.0929
2.6802
2.2243
1.7454
1.2741
0.83856
0.40298
0.013251
-0.35101
-0.6796
-0.98018
-1.2375
-1.4005
-1.3852
-1.3928
-1.4005
-1.3954
-1.3852
-1.3954
-1.4005
-1.3979
-1.3928
-1.3979
-1.3903
-1.4005
-1.3903
-1.3877
-1.3928
-1.3342
-1.1152
-0.54969
0.42081
1.697
3.0445
3.6507
3.638
3.6507
3.6456
3.6456
3.6456
3.6456
3.6456
3.6456
3.6278
3.3935
3.0165
2.5631
2.0689
1.5747
1.0806
0.61186
0.15844
-0.24657
-0.61847
-0.9649
-1.2808
-1.4005
-1.3928
-1.3852
-1.3877
-1.3877
-1.3928
-1.4005
-1.3928
-1.3928
-1.3979
-1.3877
-1.3954
-1.4005
-1.3928
-1.3954
-1.3877
-1.3928
-1.3979
-1.2502
-0.68979
0.33421
1.6537
3.0292
3.6482
3.6482
3.6456
3.6533
3.6456
3.6405
3.6482
3.6456
3.6482
3.6456
3.447
3.0852
2.6242
2.1275
1.6155
1.106
0.61695
0.16099
-0.25931
-0.64904
-1.0107
-1.3215
-1.3979
-1.3979
-1.3954
-1.3954
-1.3877
-1.3877
-1.3852
-1.3928
-1.3979
-1.3852
-1.3928
-1.403
-1.3903
-1.3877
-1.3877
-1.3877
-1.3928
-1.3903
-1.3623
-0.97509
-0.10392
1.1213
2.4612
3.6507
3.6507
3.6456
3.6456
3.6507
3.6533
3.6456
3.6405
3.6456
3.6304
3.4291
3.0598
2.6089
2.1198
1.6129
1.1264
0.65007
0.20939
-0.20836
-0.58281
-0.92923
-1.2451
-1.3928
-1.3877
-1.3928
-1.3979
-1.3979
-1.3928
-1.3979
-1.3928
-1.3954
-1.3979
-1.3928
-1.4005
-1.4005
-1.3954
-1.3903
-1.3979
-1.3903
-1.3979
-1.3852
-1.1763
-0.55733
0.48195
1.7836
3.0954
3.6533
3.6456
3.6456
3.6456
3.6431
3.6507
3.6456
3.6533
3.638
3.4852
3.1489
2.721
2.2599
1.7632
1.2971
0.82837
0.40298
-0.0096741
-0.38412
-0.73055
-1.0388
-1.3062
-1.3928
-1.3877
-1.3928
-1.3979
-1.3954
-1.4005
-1.3928
-1.3852
-1.3852
-1.3877
-1.3877
-1.3903
-1.3979
-1.3979
-1.3928
-1.3877
-1.3826
-1.2069
-0.62356
0.38515
1.6613
2.9528
3.6456
3.6507
3.638
3.6456
3.6456
3.6456
3.6456
3.6431
3.6482
3.4521
3.1107
2.6981
2.2345
1.7683
1.2971
0.85385
0.42336
0.025987
-0.33827
-0.6847
-0.99546
-1.2604
-1.3928
-1.403
-1.3979
-1.3979
-1.3903
-1.3954
-1.3877
-1.3852
-1.3928
-1.3928
-1.3928
-1.3877
-1.3928
-1.3928
-1.3877
-1.3852
-1.1585
-0.44271
0.70865
2.074
3.3807
3.6456
3.6507
3.6507
3.6456
3.6533
3.6456
3.638
3.638
3.6456
3.61
3.3502
2.9655
2.4994
2.0078
1.5009
1.0118
0.53799
0.1075
-0.3077
-0.6847
-1.0235
-1.3393
-1.3903
-1.3928
-1.403
-1.3979
-1.4005
-1.4005
-1.3928
-1.3928
-1.3928
-1.3928
-1.3877
-1.3979
-1.4005
-1.3979
-1.4005
-1.3979
-1.3903
-1.2604
-0.5879
0.55072
1.8931
3.1922
3.6456
3.638
3.6456
3.6456
3.6456
3.6507
3.6456
3.6431
3.6456
3.5998
3.3553
2.9681
2.5121
2.0179
1.5085
1.0271
0.55582
0.12024
-0.29242
-0.66941
-1.0133
-1.3241
-1.3954
-1.3903
-1.4005
-1.3954
-1.3903
-1.4005
-1.3877
-1.3928
-1.3928
-1.3954
-1.4005
-1.4005
-1.3928
-1.3928
-1.3928
-1.3877
-1.3928
-1.3928
-1.0795
-0.2211
1.0245
2.3746
3.6023
3.6405
3.6456
3.6482
3.6456
3.6456
3.6456
3.6456
3.6456
3.6405
3.4954
3.1769
2.7516
2.2803
1.8142
1.3276
0.85639
0.41827
0.0005149
-0.38667
-0.74583
-1.0795
-1.3674
-1.3979
-1.3852
-1.3979
-1.4005
-1.4005
-1.3954
-1.3954
-1.4005
-1.3928
-1.3928
-1.4005
-1.3928
-1.3979
-1.3928
-1.3954
-1.3903
-1.3928
-1.4005
-1.1814
-0.43761
0.74686
2.0969
3.3833
3.6456
3.6456
3.6456
3.6507
3.6405
3.6456
3.6456
3.6482
3.6456
3.4954
3.1642
2.7643
2.3109
1.8447
1.3862
0.94045
0.51251
0.097311
-0.26695
-0.61847
-0.93433
-1.2196
-1.3928
-1.3852
-1.3979
-1.3979
-1.3877
-1.3852
-1.3877
-1.3954
-1.3928
-1.3928
-1.3928
-1.3903
-1.3877
-1.3852
-1.3979
-1.3954
-1.3928
-1.1458
-0.34591
0.86404
2.2013
3.4597
3.6456
3.6482
3.638
3.6507
3.6456
3.6456
3.6456
3.6482
3.6456
3.5234
3.2024
2.8
2.344
1.8549
1.3888
0.93281
0.48449
0.071838
-0.32044
-0.66687
-0.98527
-1.2859
-1.3928
-1.3954
-1.3852
-1.3852
-1.3928
-1.4005
-1.4005
-1.3928
-1.3877
-1.3928
-1.3928
-1.3928
-1.3852
-1.3877
-1.3979
-1.3928
-1.3928
-1.3928
-1.2655
-0.58281
0.59148
1.9925
3.3374
3.6507
3.6533
3.6507
3.6405
3.6405
3.6533
3.6533
3.6405
3.6456
3.6431
3.5285
3.2152
2.7949
2.3287
1.8294
1.3429
0.86913
0.40808
-0.019863
-0.41724
-0.7764
-1.1254
-1.3928
-1.3852
-1.3928
-1.3928
-1.3877
-1.3954
-1.3877
-1.3979
-1.3954
-1.3928
-1.3979
-1.3903
-1.4005
-1.3877
-1.4005
-1.3928
-1.3852
-1.3903
-1.3979
-1.3928
-1.1967
-0.43761
0.79526
2.1937
3.5055
3.6507
3.6507
3.638
3.6405
3.6456
3.6431
3.6405
3.6507
3.6456
3.61
3.3629
2.9757
2.5198
2.023
1.5289
1.0449
0.58384
0.15844
-0.24402
-0.61592
-0.95725
-1.2553
-1.3852
-1.3928
-1.3877
-1.3928
-1.3852
-1.3954
-1.3877
-1.3954
-1.4005
-1.4005
-1.3928
-1.3954
-1.3928
-1.3903
-1.3852
-1.3979
-1.3928
-1.3903
-1.3852
-1.3979
-1.347
-0.99292
-0.11666
1.1544
2.5605
3.6456
3.6405
3.638
3.6456
3.6405
3.6456
3.6456
3.6405
3.6456
3.6456
3.4724
3.1438
2.7184
2.2396
1.7581
1.2792
0.82583
0.39534
-0.0096741
-0.38667
-0.71781
-1.0362
-1.3088
-1.3903
-1.3877
-1.3852
-1.3954
-1.3928
-1.3877
-1.3903
-1.3903
-1.3928
-1.3877
-1.3979
-1.4005
-1.3928
-1.3928
-1.3928
-1.3928
-1.3954
-1.3928
-1.3826
-1.1814
-0.58026
0.47685
1.832
3.1999
3.6456
3.6482
3.6456
3.6405
3.6405
3.638
3.6507
3.6431
3.6507
3.5514
3.2559
2.8534
2.3975
1.9186
1.455
1.0041
0.56346
0.15335
-0.23129
-0.56752
-0.88084
-1.1738
-1.3903
-1.3852
-1.3928
-1.3877
-1.3928
-1.3928
-1.3877
-1.3877
-1.3928
-1.3877
-1.3979
-1.3928
-1.3954
-1.3928
-1.3903
-1.3852
-1.3877
-1.3852
-1.3928
-1.2604
-0.80187
0.15335
1.4983
2.9579
3.6456
3.6405
3.6456
3.6456
3.6405
3.6507
3.6456
3.6533
3.6405
3.6482
3.61
3.3451
2.9375
2.4535
1.9441
1.4448
0.95828
0.48449
0.038724
-0.3612
-0.7331
-1.077
-1.3877
-1.3979
-1.3852
-1.3903
-1.3852
-1.3852
-1.3852
-1.3979
-1.3954
-1.3928
-1.3954
-1.4005
-1.3928
-1.3928
-1.3903
-1.4005
-1.3928
-1.3928
-1.3979
-1.3979
-1.3928
-1.2502
-0.71272
0.32911
1.6944
3.1133
3.6456
3.6507
3.638
3.6507
3.6456
3.6507
3.6507
3.6456
3.6507
3.638
3.4673
3.1005
2.6497
2.1555
1.646
1.157
0.67809
0.21958
-0.20581
-0.59045
-0.93688
-1.2502
-1.3877
-1.3852
-1.3928
-1.3903
-1.3903
-1.3928
-1.3954
-1.3954
-1.3979
-1.3979
-1.3928
-1.3928
-1.3852
-1.4005
-1.3852
-1.3979
-1.3928
-1.3928
-1.3928
-1.3928
-1.3877
-1.2935
-0.99037
-0.26949
0.87677
2.2523
3.6227
3.6431
3.6456
3.6405
3.6456
3.638
3.6405
3.6507
3.6507
3.6456
3.5667
3.2737
2.8687
2.3924
1.9084
1.427
0.943
0.49468
0.069291
-0.32299
-0.68215
-1.0158
-1.3037
-1.3979
-1.3928
-1.3979
-1.3928
-1.4005
-1.3954
-1.3877
-1.3928
-1.4005
-1.3903
-1.3852
-1.3979
-1.3928
-1.3928
-1.3928
-1.3852
-1.3979
-1.3877
-1.3877
-1.3877
-1.3241
-1.161
-0.84263
-0.1727
0.86404
2.1453
3.4571
3.6456
3.6533
3.638
3.6405
3.638
3.6507
3.6456
3.6533
3.6456
3.5055
3.1897
2.7719
2.316
1.8244
1.3455
0.87422
0.42081
0.0030622
-0.37903
-0.72036
-1.0311
-1.3037
-1.3979
-1.3903
-1.3928
-1.3928
-1.3928
-1.3928
-1.3877
-1.3852
-1.3928
-1.3928
-1.3928
-1.3852
-1.3979
-1.3954
-1.3928
-1.3979
-1.3979
-1.3699
-1.2731
-1.0719
-0.65413
0.16354
1.3073
2.6038
3.6456
3.6507
3.638
3.6456
3.6533
3.6482
3.6456
3.6456
3.6533
3.6151
3.3935
3.0368
2.5885
2.1275
1.6511
1.1799
0.73413
0.31383
-0.080997
-0.45035
-0.76876
-1.0668
-1.3292
-1.3928
-1.3979
-1.3928
-1.3852
-1.3954
-1.3979
-1.3979
-1.3954
-1.3852
-1.3979
-1.3928
-1.3928
-1.4005
-1.3928
-1.3928
-1.3928
-1.3928
-1.3113
-1.0133
-0.27968
0.87677
2.2829
3.638
3.6456
3.6405
3.6482
3.6405
3.6405
3.6456
3.6507
3.638
3.6456
3.6507
3.4979
3.1362
2.6955
2.1988
1.6868
1.1824
0.70101
0.23486
-0.19562
-0.593
-0.94961
-1.2833
-1.3877
-1.3928
-1.3979
-1.3877
-1.4005
-1.3928
-1.3852
-1.3979
-1.3877
-1.3903
-1.4005
-1.3979
-1.4005
-1.3928
-1.3928
-1.3979
-1.3903
-1.4005
-1.3928
-1.3623
-1.0006
-0.13449
1.1137
2.4943
3.6456
3.6456
3.6456
3.6482
3.6405
3.6405
3.6456
3.6507
3.6456
3.6456
3.5514
3.2483
2.828
2.3313
1.8218
1.3251
0.84111
0.36732
-0.068261
-0.46563
-0.84518
-1.1763
-1.3903
-1.3928
-1.4005
-1.3979
-1.3928
-1.3928
-1.3928
-1.3928
-1.3852
-1.3928
-1.3877
-1.3928
-1.3928
-1.3928
-1.3903
-1.3877
-1.3928
-1.4005
-1.3928
-1.3928
-1.3877
-1.2757
-0.79423
0.17373
1.4499
2.8229
3.6431
3.6456
3.6456
3.6456
3.638
3.6405
3.6405
3.638
3.6456
3.638
3.4495
3.0954
2.6649
2.1835
1.6893
1.213
0.74431
0.31128
-0.10647
-0.48346
-0.82225
-1.1432
-1.3928
-1.4005
-1.3979
-1.3979
-1.4005
-1.4005
-1.3979
-1.3877
-1.3877
-1.3928
-1.3928
-1.3928
-1.3877
-1.3877
-1.3979
-1.3928
-1.3877
-1.3954
-1.3979
-1.2527
-0.74328
0.18137
1.4295
2.7439
3.6507
3.6533
3.6456
3.6507
3.6482
3.6456
3.638
3.6507
3.6507
3.5514
3.2508
2.8484
2.4026
1.9313
1.4677
1.0143
0.58638
0.18392
-0.20581
-0.5395
-0.84518
-1.1279
-1.3776
-1.3979
-1.3954
-1.3928
-1.3852
-1.3903
-1.3903
-1.3877
-1.3979
-1.3979
-1.3903
-1.3928
-1.3928
-1.3928
-1.3852
-1.3954
-1.3852
-1.1763
-0.50639
0.59657
1.9543
3.2788
3.638
3.6456
3.6456
3.6456
3.6507
3.6405
3.6405
3.6507
3.6482
3.6253
3.4138
3.047
2.5885
2.0995
1.6027
1.1162
0.64752
0.19665
-0.21345
-0.59554
-0.95216
-1.2655
-1.3877
-1.3979
-1.3954
-1.3954
-1.3877
-1.3928
-1.3877
-1.3928
-1.4005
-1.3954
-1.3954
-1.3903
-1.3903
-1.3928
-1.3928
-1.3979
-1.3903
-1.3979
-1.3317
-0.79168
0.24505
1.5722
2.935
3.6507
3.6405
3.6456
3.6456
3.638
3.6482
3.6456
3.6482
3.6533
3.6456
3.4954
3.1617
2.7184
2.2345
1.7327
1.2385
0.75705
0.296
-0.12685
-0.52167
-0.88593
-1.2145
-1.3954
-1.3928
-1.3928
-1.3877
-1.3852
-1.3928
-1.3954
-1.3979
-1.3928
-1.3928
-1.3903
-1.3954
-1.4005
-1.3928
-1.3903
-1.3877
-1.3877
-1.3877
-1.3877
-1.3674
-0.97509
-0.080997
1.1799
2.5478
3.6456
3.6405
3.6456
3.6507
3.6456
3.6507
3.638
3.6507
3.6456
3.638
3.4571
3.0954
2.6471
2.1657
1.6741
1.1697
0.7112
0.26288
-0.16251
-0.53696
-0.88848
-1.2069
-1.3928
-1.3928
-1.3979
-1.3928
-1.3877
-1.3877
-1.3903
-1.3979
-1.4005
-1.3979
-1.3928
-1.3928
-1.3954
-1.4005
-1.4005
-1.3979
-1.3979
-1.4005
-1.3877
-1.3597
-1.049
-0.28733
0.88187
2.2243
3.5259
3.6456
3.6456
3.6405
3.6507
3.6456
3.6456
3.6456
3.638
3.6278
3.4342
3.0751
2.6471
2.1861
1.7123
1.2461
0.80035
0.37496
-0.014769
-0.37648
-0.71272
-1.0184
-1.2808
-1.3877
-1.3954
-1.3928
-1.4005
-1.3979
-1.3928
-1.3928
-1.3979
-1.4005
-1.3852
-1.3903
-1.3928
-1.3928
-1.3852
-1.3877
-1.3903
-1.3928
-1.2375
-0.64904
0.40043
1.7428
3.1056
3.6456
3.6456
3.638
3.6456
3.6456
3.638
3.638
3.6482
3.6456
3.638
3.4673
3.1184
2.6802
2.2039
1.6995
1.2105
0.73158
0.29854
-0.1243
-0.50894
-0.85791
-1.1865
-1.3877
-1.3928
-1.3877
-1.3877
-1.3954
-1.3928
-1.3928
-1.3928
-1.3928
-1.3954
-1.4005
-1.3954
-1.3979
-1.3852
-1.403
-1.3903
-1.3877
-1.3903
-1.375
-1.0158
-0.11156
1.1824
2.5809
3.6405
3.6507
3.638
3.6482
3.6456
3.6482
3.6456
3.6456
3.6507
3.6456
3.6074
3.3603
2.963
2.4968
1.9797
1.4728
0.98121
0.50487
0.061649
-0.35355
-0.7331
-1.0821
-1.3979
-1.3877
-1.3877
-1.3928
-1.3877
-1.3928
-1.3877
-1.3852
-1.3877
-1.3928
-1.4005
-1.3928
-1.3903
-1.3903
-1.3877
-1.3877
-1.3954
-1.3979
-1.3979
-1.3979
-1.2018
-0.47328
0.70611
2.0893
3.4215
3.6456
3.6456
3.6482
3.6456
3.6482
3.6456
3.6456
3.6482
3.6405
3.6227
3.3858
3.0114
2.558
2.0587
1.5594
1.0729
0.59148
0.14826
-0.2644
-0.64649
-0.99546
-1.3113
-1.3979
-1.3852
-1.3928
-1.3852
-1.3979
-1.3979
-1.3877
-1.3928
-1.3928
-1.3852
-1.3954
-1.3979
-1.3928
-1.3954
-1.3928
-1.3979
-1.3928
-1.3954
-1.3852
-1.3928
-1.3139
-0.84518
0.12788
1.4321
2.8356
3.6533
3.6482
3.6507
3.6456
3.6456
3.6507
3.6533
3.6482
3.6456
3.6456
3.4724
3.1209
2.6828
2.2039
1.7199
1.2436
0.77233
0.32402
-0.093734
-0.47837
-0.8197
-1.133
-1.3928
-1.3928
-1.3979
-1.3979
-1.3954
-1.3928
-1.3852
-1.3928
-1.3928
-1.3928
-1.3954
-1.3979
-1.3979
-1.3979
-1.3928
-1.3979
-1.3979
-1.3877
-1.4005
-1.3113
-0.87829
0.028535
1.2818
2.6649
3.6405
3.6507
3.6507
3.6405
3.6456
3.6456
3.6456
3.6507
3.6456
3.6176
3.3909
3.0216
2.5783
2.1096
1.6282
1.1672
0.71629
0.2909
-0.11156
-0.47582
-0.81461
-1.1177
-1.3826
-1.3928
-1.3954
-1.4005
-1.4005
-1.3928
-1.4005
-1.3877
-1.3928
-1.3852
-1.3877
-1.3979
-1.3928
-1.3928
-1.3979
-1.3903
-1.3852
-1.3928
-1.3342
-0.98273
-0.10392
1.1977
2.6267
3.6456
3.6507
3.638
3.6405
3.6507
3.6507
3.6456
3.6507
3.6456
3.6405
3.6278
3.4011
3.019
2.558
2.0562
1.5416
1.0449
0.56601
0.11514
-0.31025
-0.68215
-1.0388
-1.3648
-1.3877
-1.3877
-1.3877
-1.4005
-1.3954
-1.3928
-1.3928
-1.3877
-1.3928
-1.3928
-1.3928
-1.3852
-1.3979
-1.3877
-1.3877
-1.3877
-1.3979
-1.3928
-1.3979
-1.3292
-0.80697
0.22213
1.5951
3.0037
3.6507
3.6456
3.6405
3.6456
3.6456
3.6456
3.6456
3.6507
3.6456
3.6456
3.5132
3.1719
2.7337
2.2548
1.7428
1.2334
0.76215
0.28836
-0.12685
-0.52167
-0.88848
-1.212
-1.3877
-1.3928
-1.3928
-1.4005
-1.4005
-1.3928
-1.3928
-1.3852
-1.4005
-1.3928
-1.3954
-1.3954
-1.3928
-1.3928
-1.4005
-1.3928
-1.3928
-1.3954
-1.3928
-1.3852
-1.3903
-1.2425
-0.64649
0.44119
1.8116
3.2304
3.6405
3.6482
3.6482
3.6456
3.6405
3.6507
3.6507
3.6507
3.6456
3.6278
3.4011
3.019
2.5631
2.0663
1.5747
1.0907
0.63733
0.20175
-0.21345
-0.58026
-0.92414
-1.2349
-1.3852
-1.3979
-1.3954
-1.3928
-1.4005
-1.3877
-1.3928
-1.3852
-1.3877
-1.3979
-1.3877
-1.3954
-1.3979
-1.3928
-1.3852
-1.3928
-1.3852
-1.3903
-1.4005
-1.3928
-1.3826
-1.2935
-0.98782
-0.26949
0.87168
2.2523
3.6202
3.6456
3.6456
3.6507
3.6456
3.638
3.6456
3.6456
3.6456
3.6482
3.5055
3.1846
2.7668
2.2905
1.8167
1.3404
0.88696
0.44883
0.033629
-0.34591
-0.6847
-0.99037
-1.2578
-1.3877
-1.3852
-1.3928
-1.3954
-1.3954
-1.3954
-1.3928
-1.3954
-1.3877
-1.3979
-1.3928
-1.3928
-1.3903
-1.3979
-1.3877
-1.3877
-1.3979
-1.3903
-1.347
-1.1636
-0.69998
0.22977
1.5136
2.9018
3.6456
3.6456
3.6456
3.6456
3.6456
3.6507
3.6507
3.638
3.6456
3.6202
3.3807
3.0139
2.5732
2.0969
1.6053
1.1391
0.67809
0.25524
-0.14468
-0.51658
-0.84008
-1.1534
-1.3903
-1.3954
-1.3928
-1.3979
-1.3928
-1.3928
-1.3877
-1.3954
-1.3877
-1.3954
-1.3928
-1.3928
-1.3903
-1.3877
-1.3928
-1.3852
-1.3928
-1.3979
-1.3928
-1.3164
-0.99801
-0.216
1.0092
2.4637
3.6456
3.6405
3.6456
3.6456
3.6507
3.6507
3.6456
3.638
3.6507
3.6507
3.6431
3.4571
3.0852
2.6293
2.1275
1.6104
1.1188
0.62714
0.16863
-0.24402
-0.63121
-0.99037
-1.3113
-1.3928
-1.3928
-1.3928
-1.3954
-1.3928
-1.3928
-1.3928
-1.3928
-1.4005
-1.3928
-1.3877
-1.3954
-1.3928
-1.3877
-1.3979
-1.3877
-1.3877
-1.3903
-1.3928
-1.3928
-1.3011
-0.79423
0.20939
1.5569
2.9834
3.6456
3.6507
3.6482
3.6482
3.6456
3.6482
3.6507
3.6456
3.6533
3.638
3.4699
3.1082
2.6471
2.1479
1.6206
1.1162
0.63988
0.17882
-0.24147
-0.6363
-0.99292
-1.3088
-1.3979
-1.3979
-1.3979
-1.3877
-1.3954
-1.3928
-1.3954
-1.3979
-1.3954
-1.4005
-1.3979
-1.3877
-1.3928
-1.3877
-1.3928
-1.4005
-1.3903
-1.3928
-1.3877
-1.3852
-1.3699
-1.1661
-0.54715
0.53544
1.9313
3.3425
3.6456
3.6456
3.6507
3.6507
3.638
3.6456
3.638
3.6456
3.6456
3.6355
3.4189
3.0572
2.6115
2.13
1.6333
1.157
0.69082
0.25779
-0.14213
-0.51913
-0.8681
-1.1814
-1.3903
-1.3877
-1.3954
-1.3928
-1.4005
-1.3928
-1.3954
-1.3928
-1.3928
-1.3954
-1.3928
-1.3903
-1.3928
-1.3954
-1.3928
-1.4005
-1.3877
-1.3928
-1.4005
-1.3979
-1.3215
-1.0388
-0.30516
0.82837
2.1733
3.5106
3.6482
3.6482
3.6456
3.6405
3.6482
3.6456
3.6456
3.6507
3.6355
3.424
3.0674
2.6446
2.1759
1.6919
1.2232
0.76724
0.34694
-0.05043
-0.41214
-0.75347
-1.0439
-1.3037
-1.3928
-1.3954
-1.3903
-1.4005
-1.3979
-1.3979
-1.4005
-1.3979
-1.3979
-1.3877
-1.3979
-1.3928
-1.3979
-1.3954
-1.3877
-1.3877
-1.3928
-1.3623
-1.1483
-0.56752
0.44629
1.7403
3.098
3.6431
3.6456
3.6482
3.6405
3.638
3.638
3.6507
3.6507
3.638
3.5055
3.182
2.7566
2.2981
1.8244
1.3531
0.89206
0.45902
0.05146
-0.32808
-0.65923
-0.97763
-1.2425
-1.3903
-1.3903
-1.3928
-1.3954
-1.3954
-1.3903
-1.3954
-1.3877
-1.3954
-1.4005
-1.3877
-1.3903
-1.3928
-1.3852
-1.3928
-1.3979
-1.3928
-1.3546
-1.0337
-0.22874
0.99904
2.4331
3.6405
3.6456
3.6482
3.6405
3.6482
3.6456
3.638
3.6507
3.6507
3.6456
3.6304
3.3909
3.0165
2.5452
2.0358
1.5263
1.0398
0.56091
0.12024
-0.30516
-0.6847
-1.0286
-1.3623
-1.3954
-1.3954
-1.4005
-1.3928
-1.3877
-1.3903
-1.3928
-1.3928
-1.3928
-1.3903
-1.3852
-1.3852
-1.4005
-1.3928
-1.3877
-1.3903
-1.3954
-1.3979
-1.3292
-0.80442
0.23741
1.5849
2.9451
3.6507
3.6456
3.6456
3.6431
3.6405
3.6456
3.6456
3.6431
3.638
3.6355
3.4189
3.0394
2.5656
2.0612
1.5518
1.0551
0.58129
0.12788
-0.28478
-0.66687
-1.0286
-1.3368
-1.3877
-1.3954
-1.3979
-1.4005
-1.3979
-1.3877
-1.3954
-1.3954
-1.3954
-1.3928
-1.3877
-1.3903
-1.4005
-1.4005
-1.3852
-1.4005
-1.3954
-1.3877
-1.3928
-1.184
-0.46054
0.71375
2.102
3.4266
3.6456
3.6456
3.638
3.6431
3.638
3.6456
3.6507
3.6405
3.6456
3.5361
3.2228
2.7923
2.3185
1.8167
1.3225
0.85639
0.40043
-0.0096741
-0.40705
-0.76621
-1.0872
-1.3826
-1.3928
-1.3928
-1.4005
-1.3954
-1.3928
-1.3877
-1.3877
-1.3928
-1.4005
-1.3852
-1.3954
-1.3979
-1.3852
-1.3928
-1.3903
-1.3979
-1.3928
-1.3928
-1.3648
-1.0642
-0.2644
0.93791
2.3211
3.638
3.638
3.6507
3.638
3.6507
3.6456
3.6405
3.6456
3.6507
3.6304
3.424
3.0649
2.6216
2.1479
1.6664
1.1875
0.72648
0.30109
-0.096281
-0.46563
-0.80951
-1.1024
-1.3852
-1.4005
-1.4005
-1.3852
-1.3954
-1.4005
-1.3954
-1.3852
-1.3979
-1.3877
-1.3877
-1.3979
-1.3852
-1.3928
-1.4005
-1.3903
-1.3928
-1.3877
-1.1687
-0.49875
0.63224
1.9772
3.3018
3.638
3.6456
3.6456
3.638
3.6456
3.6456
3.6456
3.638
3.6431
3.4597
3.1056
2.6751
2.2115
1.7327
1.2538
0.81309
0.37496
-0.027505
-0.4045
-0.74328
-1.0439
-1.3215
-1.3877
-1.3954
-1.3877
-1.3979
-1.3877
-1.3928
-1.3877
-1.4005
-1.4005
-1.3877
-1.3928
-1.3852
-1.3877
-1.3928
-1.3979
-1.3877
-1.2629
-0.61337
0.53034
1.9288
3.3043
3.6456
3.6482
3.6456
3.6456
3.6507
3.6456
3.6507
3.6507
3.6456
3.6507
3.4648
3.0954
2.6497
