1.86
1.8753
1.8498
1.7734
1.6537
1.5161
1.3658
1.2105
1.0576
0.91243
0.79781
0.68827
0.59657
0.52525
0.45647
0.39534
0.34694
0.30364
0.25524
0.20939
0.16609
0.12024
0.082027
0.036177
-0.0096741
-0.040241
-0.058072
-0.014769
0.14061
0.38006
0.67809
0.9914
1.2767
1.5136
1.6919
1.8065
1.8626
1.8575
1.8116
1.725
1.5951
1.4474
1.2869
1.1366
0.98885
0.86658
0.74686
0.66026
0.5711
0.50742
0.431
0.37751
0.32147
0.27052
0.22977
0.17118
0.12533
0.07948
0.031082
-0.0071269
-0.052978
-0.088639
-0.10902
-0.073356
0.056555
0.27817
0.5762
0.89715
1.1977
1.4423
1.6333
1.7632
1.8294
1.8345
1.7963
1.7021
1.5926
1.4346
1.2843
1.1213
0.98885
0.85639
0.73413
0.63733
0.55072
0.48959
0.41572
0.36477
0.31128
0.25524
0.19665
0.15844
0.097311
0.059102
0.0005149
-0.042789
-0.080997
-0.1243
-0.15742
-0.13704
-0.02241
0.17628
0.46157
0.76724
1.0602
1.3098
1.4958
1.6104
1.669
1.6715
1.6155
1.5289
1.4066
1.2614
1.0984
0.9481
0.82073
0.70356
0.60422
0.51251
0.44629
0.39534
0.34694
0.29854
0.26034
0.22722
0.18137
0.14316
0.11259
0.066744
0.031082
0.0005149
-0.030052
-0.037694
0.038724
0.20684
0.43864
0.71884
0.97102
1.2028
1.3608
1.4626
1.5085
1.4881
1.4219
1.3073
1.1799
1.0372
0.88441
0.75705
0.63988
0.54563
0.46921
0.41317
0.36732
0.32147
0.29345
0.27817
0.26288
0.23996
0.21194
0.20175
0.17118
0.1559
0.12278
0.094763
0.082027
0.1075
0.22977
0.43864
0.70865
0.99904
1.2512
1.4703
1.6409
1.7479
1.7785
1.776
1.7097
1.6078
1.4805
1.3251
1.1697
1.0194
0.88951
0.76724
0.67044
0.58129
0.5227
0.47176
0.42591
0.36987
0.33166
0.30619
0.26288
0.21958
0.18137
0.14061
0.10241
0.066744
0.064196
0.10241
0.23486
0.45138
0.70356
0.9863
1.2207
1.427
1.562
1.6537
1.6792
1.6664
1.5976
1.4932
1.3709
1.2257
1.0704
0.93791
0.81309
0.69592
0.59657
0.52016
0.46921
0.40808
0.36477
0.33166
0.28326
0.25269
0.21448
0.18392
0.14571
0.10241
0.069291
0.033629
-0.0045796
-0.014769
-0.0020324
0.099858
0.28581
0.54818
0.84875
1.1213
1.3633
1.5492
1.669
1.7225
1.7327
1.6868
1.6027
1.4754
1.3327
1.1799
1.0372
0.90734
0.77998
0.68318
0.59403
0.52525
0.46412
0.42591
0.3826
0.33675
0.28836
0.25015
0.22213
0.17882
0.13807
0.099858
0.061649
0.025987
-0.0096741
-0.037694
-0.0071269
0.084574
0.27562
0.53544
0.82073
1.0907
1.3225
1.4856
1.5926
1.6359
1.6308
1.5696
1.4677
1.3302
1.1875
1.0347
0.89715
0.7545
0.65261
0.56091
0.48959
0.43355
0.39279
0.34694
0.31892
0.28581
0.25779
0.22467
0.19665
0.16609
0.13297
0.10241
0.071838
0.041271
0.020893
0.025987
0.092216
0.2476
0.48704
0.75705
1.0322
1.269
1.4474
1.5696
1.6155
1.5976
1.5416
1.4372
1.2971
1.1493
1.0067
0.87677
0.7596
0.66535
0.58893
0.5278
0.47431
0.44374
0.41827
0.37751
0.35713
0.32911
0.29345
0.26543
0.2476
0.2043
0.18137
0.13807
0.13043
0.16609
0.296
0.5278
0.79526
1.0678
1.3174
1.5212
1.6562
1.7276
1.7505
1.7276
1.6409
1.5263
1.3837
1.2257
1.0806
0.93791
0.81309
0.70356
0.62459
0.55327
0.49214
0.45647
0.41827
0.38006
0.35968
0.32656
0.296
0.25524
0.21448
0.18646
0.15844
0.13552
0.15335
0.27307
0.46921
0.73158
1.0194
1.269
1.4805
1.6308
1.7148
1.753
1.7403
1.6766
1.5773
1.4423
1.292
1.1391
0.9914
0.85385
0.74177
0.64242
0.56091
0.49468
0.4361
0.3877
0.34949
0.30873
0.26798
0.23486
0.19156
0.15335
0.11769
0.071838
0.041271
0.0056094
-0.012221
0.033629
0.17882
0.39279
0.67554
0.96847
1.241
1.4575
1.6257
1.725
1.7607
1.753
1.6944
1.59
1.4575
1.3174
1.1621
1.0194
0.88441
0.76215
0.6679
0.58893
0.51251
0.46412
0.40553
0.36732
0.31892
0.27562
0.24505
0.1992
0.16609
0.11514
0.074385
0.041271
0.0030622
-0.024958
0.020893
0.16354
0.39279
0.6628
0.9481
1.2181
1.4219
1.5798
1.6741
1.7072
1.6843
1.618
1.5187
1.3862
1.2461
1.0907
0.94045
0.81309
0.69082
0.59148
0.50997
0.44629
0.38006
0.32402
0.27307
0.22722
0.18901
0.15335
0.10495
0.069291
0.031082
-0.02241
-0.052978
-0.10392
-0.12175
-0.11411
-0.042789
0.13043
0.39025
0.70101
1.0041
1.2538
1.4474
1.5645
1.6308
1.6231
1.5696
1.4703
1.3429
1.2003
1.0449
0.91753
0.79526
0.68063
0.59148
0.52016
0.46157
0.41317
0.38006
0.34185
0.30109
0.27307
0.24505
0.2043
0.18392
0.14316
0.097311
0.069291
0.046366
0.082027
0.22467
0.45138
0.7112
0.99904
1.2487
1.4372
1.5824
1.6588
1.669
1.6257
1.5416
1.4193
1.2716
1.1213
0.97866
0.8462
0.73413
0.63224
0.55836
0.50487
0.45647
0.40808
0.39025
0.35458
0.31892
0.29854
0.26034
0.22213
0.18137
0.14061
0.11259
0.099858
0.18901
0.35204
0.6195
0.90479
1.1875
1.4321
1.6129
1.7352
1.804
1.8193
1.7709
1.6843
1.5594
1.4142
1.2538
1.0958
0.94555
0.80545
0.69592
0.61186
0.53289
0.46412
0.41317
0.36732
0.32656
0.28071
0.23741
0.19156
0.15335
0.11005
0.056555
0.015798
0.0030622
0.05146
0.1992
0.42591
0.70611
1.0041
1.2538
1.4525
1.5976
1.6893
1.7123
1.6792
1.6155
1.5059
1.3684
1.2207
1.0704
0.93281
0.79017
0.67554
0.59148
0.50487
0.43864
0.38515
0.33166
0.28581
0.2425
0.20175
0.1508
0.11259
0.066744
0.031082
-0.0096741
-0.05043
-0.088639
-0.091186
-0.0071269
0.17118
0.43864
0.74941
1.0602
1.3225
1.5492
1.7021
1.7938
1.8167
1.7963
1.7174
1.6104
1.4652
1.3149
1.1493
1.0092
0.87168
0.7545
0.65261
0.5711
0.49978
0.4361
0.3826
0.32402
0.27562
0.22722
0.19156
0.14316
0.084574
0.048913
0.0005149
-0.05043
-0.073356
-0.045336
0.069291
0.29345
0.56855
0.86149
1.1391
1.3557
1.5187
1.6308
1.6792
1.669
1.6104
1.5059
1.3811
1.2308
1.0856
0.943
0.80035
0.67809
0.58129
0.48959
0.41572
0.35458
0.30873
0.26034
0.21194
0.16354
0.12278
0.07948
0.033629
-0.0071269
-0.05043
-0.096281
-0.1294
-0.14977
-0.093734
0.059102
0.31383
0.62459
0.93791
1.2054
1.4168
1.5645
1.6409
1.6511
1.6104
1.5187
1.3913
1.241
1.0856
0.93791
0.79781
0.69337
0.60167
0.51761
0.45647
0.39534
0.34694
0.30364
0.27052
0.23486
0.1992
0.16354
0.12788
0.082027
0.043818
0.0005149
-0.0096741
0.028535
0.15335
0.37241
0.65261
0.943
1.213
1.4219
1.5824
1.6613
1.6741
1.6384
1.5569
1.4397
1.292
1.1468
0.98885
0.84875
0.74177
0.63478
0.56091
0.48959
0.43355
0.39025
0.36223
0.32147
0.28836
0.26543
0.23232
0.18901
0.15335
0.11514
0.082027
0.071838
0.1559
0.31892
0.58893
0.88696
1.1799
1.4423
1.6409
1.781
1.8575
1.8728
1.8371
1.7607
1.6308
1.4856
1.3251
1.1621
1.0143
0.87677
0.74941
0.65007
0.5711
0.49978
0.4361
0.3877
0.33421
0.28836
0.23996
0.1992
0.14571
0.099858
0.05146
0.010704
0.015798
0.092216
0.27052
0.52016
0.79781
1.078
1.3174
1.5161
1.6409
1.7199
1.7327
1.6944
1.6078
1.4983
1.3506
1.1926
1.0474
0.89206
0.76979
0.65007
0.54818
0.46666
0.39789
0.34694
0.30364
0.25015
0.2043
0.16354
0.11259
0.074385
0.028535
-0.014769
-0.070808
-0.10138
-0.12685
-0.075903
0.076933
0.32147
0.61186
0.93026
1.2308
1.4754
1.6588
1.781
1.8422
1.8371
1.7785
1.6843
1.5594
1.4091
1.2589
1.0958
0.95064
0.82583
0.71375
0.62459
0.53799
0.46157
0.40808
0.34439
0.30109
0.2425
0.1992
0.14316
0.084574
0.038724
-0.0045796
-0.060619
-0.083545
-0.075903
0.020893
0.22722
0.48959
0.78507
1.0704
1.3124
1.511
1.6486
1.7072
1.7276
1.6944
1.6053
1.4856
1.3455
1.2003
1.0347
0.90224
0.77233
0.66535
0.5762
0.49723
0.42591
0.37241
0.31892
0.26543
0.21448
0.16099
0.11005
0.061649
0.0081567
-0.037694
-0.086092
-0.12685
-0.13449
-0.068261
0.11005
0.36223
0.66026
0.95064
1.2207
1.4244
1.5747
1.6537
1.6613
1.6282
1.5416
1.4168
1.2716
1.1086
0.96083
0.82073
0.69846
0.59148
0.50487
0.42591
0.36732
0.31383
0.27307
0.22213
0.17373
0.13297
0.089669
0.05146
0.013251
-0.030052
-0.088639
-0.12175
-0.14468
-0.14213
-0.058072
0.12278
0.39534
0.69082
0.99395
1.2385
1.4193
1.5492
1.6078
1.6002
1.534
1.427
1.292
1.1417
0.9914
0.84366
0.7112
0.6144
0.53034
0.46921
0.41062
0.35968
0.33675
0.30109
0.26798
0.2425
0.2043
0.17373
0.13297
0.084574
0.046366
0.02344
0.036177
0.13297
0.34694
0.62459
0.93791
1.213
1.4525
1.6359
1.7479
1.7912
1.7912
1.7403
1.6257
1.4881
1.3455
1.185
1.0423
0.90479
0.78507
0.68827
0.60931
0.53289
0.47431
0.42336
0.3826
0.33675
0.29854
0.25015
0.2043
0.15335
0.11005
0.066744
0.048913
0.082027
0.2043
0.431
0.71375
1.0194
1.292
1.5263
1.6919
1.7938
1.8498
1.8345
1.7709
1.669
1.5289
1.3786
1.2207
1.05
0.8997
0.76724
0.64752
0.55327
0.46921
0.40553
0.34439
0.28326
0.2425
0.18137
0.13807
0.097311
0.046366
0.0056094
-0.030052
-0.083545
-0.11411
-0.1243
-0.045336
0.13043
0.39534
0.70865
1.0169
1.2945
1.5212
1.6893
1.7938
1.8244
1.8142
1.7301
1.6282
1.4856
1.3327
1.1621
1.0092
0.86658
0.73922
0.62714
0.53799
0.45902
0.39534
0.33166
0.27307
0.22722
0.18137
0.13297
0.087122
0.041271
-0.0096741
-0.058072
-0.10138
-0.12175
-0.091186
0.038724
0.26034
0.55836
0.85639
1.1442
1.376
1.5696
1.6868
1.753
1.7556
1.7097
1.6206
1.4907
1.348
1.1824
1.0296
0.88441
0.75705
0.65007
0.55072
0.46666
0.39534
0.33421
0.27307
0.21958
0.18137
0.13297
0.089669
0.038724
-0.017316
-0.058072
-0.10392
-0.13449
-0.13194
-0.052978
0.13297
0.38515
0.69592
0.9914
1.2614
1.4728
1.6257
1.7199
1.7479
1.7148
1.6333
1.5161
1.376
1.213
1.0474
0.90989
0.76215
0.64752
0.54053
0.46412
0.37751
0.31638
0.26543
0.21703
0.16609
0.12278
0.076933
0.02344
-0.02241
-0.063167
-0.12175
-0.1676
-0.18798
-0.20072
-0.1243
0.05146
0.32402
0.62969
0.95319
1.2257
1.4474
1.5926
1.6664
1.6944
1.6409
1.5594
1.4321
1.2767
1.129
0.9863
0.83856
0.72394
0.6144
0.53034
0.45138
0.40043
0.36223
0.31383
0.27307
0.23486
0.1992
0.16099
0.11769
0.07948
0.036177
-0.0045796
-0.024958
0.015798
0.14571
0.38006
0.67554
0.98376
1.2461
1.4652
1.6129
1.7174
1.7301
1.6995
1.6282
1.5085
1.3709
1.2079
1.0602
0.91753
0.79017
0.68318
0.59657
0.51506
0.45902
0.39789
0.35713
0.30873
0.27562
0.24505
0.20175
0.14571
0.11514
0.069291
0.028535
0.020893
0.097311
0.26798
0.52525
0.83856
1.134
1.4066
1.618
1.7709
1.8549
1.9008
1.8677
1.7989
1.6843
1.5263
1.3735
1.2054
1.0525
0.89715
0.76979
0.65261
0.56601
0.48195
0.41572
0.35713
0.30109
0.2425
0.2043
0.1508
0.10495
0.059102
0.010704
-0.042789
-0.073356
-0.086092
-0.035147
0.13297
0.37751
0.68573
0.99904
1.2843
1.5187
1.6919
1.8142
1.8549
1.8498
1.7887
1.6868
1.5492
1.3888
1.2283
1.0602
0.90479
0.77998
0.65771
0.56601
0.47431
0.39279
0.33421
0.27052
0.22467
0.16863
0.12278
0.074385
0.038724
-0.0071269
-0.047883
-0.091186
-0.1243
-0.10647
-0.0045796
0.21448
0.49723
0.81054
1.1111
1.3608
1.5722
1.7097
1.7938
1.7963
1.7683
1.6715
1.5442
1.3964
1.2436
1.0831
0.92262
0.79781
0.6679
0.58129
0.48449
0.42081
0.35204
0.29345
0.24505
0.19665
0.1508
0.10241
0.048913
0.010704
-0.040241
-0.091186
-0.14213
-0.1676
-0.14468
-0.0020324
0.23486
0.54308
0.85385
1.1442
1.3862
1.5747
1.6893
1.7556
1.7352
1.6868
1.5773
1.4397
1.2843
1.1213
0.96593
0.82328
0.69592
0.58384
0.49978
0.42845
0.35458
0.30364
0.25269
0.20175
0.15844
0.11259
0.064196
0.02344
-0.019863
-0.065714
-0.11411
-0.13704
-0.15742
-0.083545
0.074385
0.34439
0.63478
0.95064
1.2207
1.4244
1.5696
1.6613
1.6613
1.6308
1.534
1.4091
1.2563
1.1162
0.95828
0.81819
0.7112
0.60167
0.50997
0.45138
0.3877
0.34694
0.30619
0.27562
0.22977
0.19665
0.16609
0.13297
0.087122
0.05146
0.036177
0.082027
0.22977
0.45902
0.73922
1.0347
1.3124
1.5238
1.6817
1.7734
1.8193
1.7989
1.7301
1.6053
1.4703
1.3149
1.157
0.99649
0.85385
0.72903
0.62205
0.52525
0.46412
0.39279
0.34439
0.29854
0.2476
0.2043
0.15844
0.11259
0.069291
0.028535
-0.014769
0.02344
0.13297
0.35968
0.65261
0.9481
1.2283
1.4575
1.6435
1.7658
1.8065
1.8142
1.7479
1.6511
1.5212
1.3735
1.2028
1.0423
0.8946
0.7545
0.63224
0.53034
0.44629
0.35968
0.296
0.22977
0.18137
0.13043
0.089669
0.036177
-0.0045796
-0.047883
-0.093734
-0.13704
-0.17015
-0.13958
-0.02241
0.20175
0.50232
0.83856
1.1468
1.4117
1.6257
1.7709
1.8677
1.8778
1.8422
1.7658
1.6435
1.4932
1.3251
1.1595
1.0041
0.85385
0.72903
0.61695
0.5278
0.43355
0.35968
0.30109
0.23741
0.19156
0.14316
0.097311
0.048913
-0.0045796
-0.05043
-0.098828
-0.13958
-0.15232
-0.080997
0.084574
0.34439
0.65007
0.96593
1.2563
1.4856
1.6562
1.7658
1.8142
1.7963
1.7327
1.6206
1.4881
1.3302
1.1697
1.0118
0.86913
0.74431
0.64242
0.53799
0.46921
0.39789
0.32656
0.26543
0.21194
0.16354
0.11769
0.069291
0.020893
-0.035147
-0.07845
-0.1243
-0.15996
-0.15487
-0.058072
0.13297
0.42336
0.73922
1.0449
1.3149
1.5161
1.6715
1.7377
1.7658
1.7276
1.6333
1.5034
1.3557
1.2028
1.0398
0.89206
0.7545
0.63988
0.53544
0.45902
0.39025
0.32147
0.25779
0.21958
0.1559
0.11259
0.061649
0.020893
-0.027505
-0.075903
-0.12175
-0.15742
-0.19562
-0.18034
-0.073356
0.14571
0.42845
0.75705
1.0602
1.3149
1.5034
1.6282
1.6817
1.6868
1.6155
1.5059
1.3684
1.2207
1.0602
0.90479
0.77233
0.67299
0.57365
0.50232
0.42081
0.37241
0.32656
0.28071
0.23486
0.2043
0.16609
0.11514
0.084574
0.041271
-0.0071269
-0.040241
0.0056094
0.13552
0.36223
0.64752
0.94555
1.2334
1.4677
1.6384
1.7505
1.8065
1.8014
1.7327
1.6409
1.5034
1.3378
1.185
1.022
0.88951
0.7545
0.63988
0.55072
0.47176
0.40553
0.34185
0.30364
0.24505
0.1992
0.16354
0.10495
0.069291
0.025987
-0.017316
-0.037694
0.033629
0.19156
0.44883
0.75705
1.0755
1.3353
1.562
1.7327
1.8269
1.8753
1.8498
1.7709
1.6664
1.5085
1.3506
1.1824
1.0169
0.85894
0.71375
0.59912
0.48959
0.40298
0.32656
0.26288
0.20684
0.15335
0.10241
0.056555
0.010704
-0.037694
-0.080997
-0.12175
-0.16506
-0.18544
-0.13704
-0.0071269
0.2476
0.55582
0.87932
1.185
1.4474
1.6308
1.7658
1.8371
1.8549
1.8167
1.7199
1.5951
1.4372
1.2716
1.1009
0.94555
0.808
0.67809
0.5762
0.47431
0.39534
0.33675
0.27562
0.22213
0.16099
0.11769
0.059102
0.018346
-0.032599
-0.083545
-0.1294
-0.18289
-0.20327
-0.1727
-0.045336
0.2043
0.51761
0.8513
1.185
1.4499
1.6664
1.8116
1.9059
1.9161
1.8778
1.7887
1.6511
1.4958
1.3276
1.1595
1.0041
0.86404
0.72139
0.62205
0.51761
0.43355
0.36477
0.296
0.2425
0.19156
0.13297
0.084574
0.038724
-0.014769
-0.060619
-0.098828
-0.14977
-0.18544
-0.17779
-0.073356
0.14571
0.44119
0.77233
1.0856
1.3684
1.5824
1.7377
1.8371
1.8473
1.8218
1.7327
1.6002
1.455
1.2869
1.1239
0.95574
0.81564
0.69082
0.58384
0.48449
0.41062
0.34694
0.27562
0.21958
0.17118
0.12533
0.074385
0.010704
-0.037694
-0.07845
-0.13958
-0.18289
-0.22364
-0.23638
-0.1727
0.010704
0.28326
0.6144
0.95064
1.2512
1.4907
1.6588
1.7632
1.7887
1.7581
1.6766
1.5569
1.3964
1.2385
1.078
0.91498
0.77488
0.65516
0.55072
0.46666
0.39025
0.32147
0.27562
0.22722
0.17373
0.13043
0.099858
0.048913
-0.0045796
-0.037694
-0.088639
-0.13194
-0.1676
-0.17015
-0.070808
0.13297
0.42845
0.74941
1.0653
1.3251
1.5289
1.6613
1.7123
1.7123
1.6486
1.5416
1.4041
1.2461
1.0933
0.93791
0.8029
0.68318
0.58638
0.50487
0.4361
0.3826
0.32656
0.29345
0.2425
0.21703
0.17373
0.13043
0.099858
0.061649
0.025987
-0.012221
0.025987
0.16354
0.40298
0.71375
1.0296
1.32
1.5747
1.7454
1.8702
1.9059
1.9033
1.8294
1.7276
1.5773
1.4168
1.2436
1.0806
0.93281
0.79781
0.67299
0.57365
0.49978
0.42845
0.36477
0.32402
0.27562
0.22467
0.19411
0.14061
0.099858
0.056555
0.0005149
-0.017316
-0.0020324
0.14061
0.36732
0.68318
1.0143
1.3124
1.5645
1.753
1.8778
1.9364
1.9288
1.8855
1.7683
1.6409
1.4626
1.3047
1.1213
0.96083
0.81819
0.69592
0.59912
0.49978
0.42845
0.35968
0.29854
0.24505
0.19411
0.1508
0.10495
0.043818
0.0005149
-0.05043
-0.091186
-0.13194
-0.14723
-0.063167
0.1075
0.38515
0.72139
1.0474
1.3353
1.5798
1.7479
1.8728
1.9059
1.9008
1.8371
1.7276
1.5798
1.4219
1.2589
1.0882
0.94045
0.79781
0.67809
0.57874
0.48959
0.41062
0.35713
0.296
0.2425
0.18392
0.13043
0.087122
0.02344
-0.014769
-0.068261
-0.12175
-0.14213
-0.093734
0.043818
0.29345
0.58893
0.90479
1.1926
1.4295
1.6053
1.7276
1.781
1.7861
1.7225
1.6206
1.4779
1.3353
1.1697
1.0143
0.85639
0.73667
0.62714
0.5278
0.44883
0.36987
0.31638
0.25524
0.20939
0.1508
0.10495
0.056555
0.0056094
-0.042789
-0.086092
-0.14468
-0.19308
-0.19308
-0.1243
0.07948
0.35458
0.67809
0.9914
1.2767
1.4958
1.6359
1.7377
1.7556
1.7174
1.6308
1.5009
1.3633
1.2028
1.0296
0.88951
0.75196
0.63478
0.53289
0.44883
0.38515
0.32402
0.27562
0.23232
0.18901
0.14061
0.094763
0.05146
0.0056094
-0.037694
-0.075903
-0.11411
-0.14213
-0.10138
0.031082
0.26034
0.55582
0.86913
1.157
1.3888
1.5518
1.6435
1.6639
1.6435
1.5518
1.4423
1.292
1.1366
0.98885
0.84111
0.72394
0.62205
0.53799
0.46666
0.41572
0.36223
0.32147
0.28326
0.23996
0.21703
0.17373
0.13552
0.094763
0.046366
0.0056094
-0.0096741
0.061649
0.22213
0.47685
0.78762
1.0907
1.3506
1.562
1.7123
1.8014
1.8142
1.7861
1.7123
1.5875
1.4397
1.2843
1.1213
0.97866
0.83856
0.71629
0.60422
0.52016
0.43864
0.3826
0.31638
0.27817
0.21703
0.18137
0.12533
0.094763
0.046366
0.0081567
-0.047883
-0.086092
-0.096281
-0.052978
0.11005
0.36732
0.68827
1.0118
1.3174
1.5594
1.7428
1.8804
1.9339
1.9288
1.8651
1.7632
1.6359
1.4575
1.3047
1.1315
0.97102
0.83347
0.70865
0.59403
0.50997
0.42336
0.35204
0.2909
0.23741
0.18392
0.13297
0.092216
0.036177
-0.019863
-0.068261
-0.11156
-0.14977
-0.16506
-0.10138
0.056555
0.32147
0.63224
0.96593
1.2461
1.4881
1.6588
1.776
1.8142
1.8142
1.7403
1.646
1.5059
1.3404
1.1773
1.0118
0.85894
0.72903
0.60931
0.51251
0.431
0.35204
0.2909
0.22722
0.17882
0.14316
0.094763
0.038724
-0.0071269
-0.063167
-0.10647
-0.16251
-0.19308
-0.19562
-0.12685
0.056555
0.34949
0.67299
0.99649
1.2869
1.4983
1.6664
1.7632
1.7836
1.7581
1.669
1.5391
1.3862
1.2257
1.0525
0.89715
0.74941
0.63224
0.51506
0.43864
0.36477
0.31892
0.26034
0.21703
0.17118
0.12278
0.092216
0.036177
0.0030622
-0.045336
-0.083545
-0.12685
-0.15996
-0.14213
-0.0096741
0.21958
0.5227
0.84111
1.1366
1.3811
1.5594
1.669
1.7097
1.6817
1.6002
1.4983
1.3455
1.1926
1.0347
0.88951
0.75705
0.65007
0.54818
0.46412
0.39789
0.34949
0.30109
0.26288
0.21703
0.17118
0.13807
0.1075
0.069291
0.020893
-0.024958
-0.045336
-0.027505
0.10241
0.34185
0.65007
0.96847
1.2665
1.5136
1.6919
1.8091
1.86
1.8371
1.7683
1.6435
1.5009
1.3353
1.1672
1.0041
0.85894
0.72648
0.63224
0.53544
0.46157
0.39789
0.34949
0.30619
0.26798
0.22722
0.19156
0.14826
0.10495
0.066744
0.010704
-0.0045796
0.031082
0.17373
0.42591
0.73158
1.0474
1.3455
1.59
1.7632
1.8753
1.9262
1.9084
1.8371
1.7327
1.5849
1.4117
1.2359
1.0755
0.91498
0.76724
0.65007
0.54563
0.44629
0.3826
0.31128
0.26288
0.19665
0.1559
0.11769
0.064196
0.028535
-0.027505
-0.058072
-0.11411
-0.15232
-0.13194
-0.042789
0.17882
0.46157
0.808
1.1391
1.4091
1.6409
1.8014
1.8931
1.9084
1.8855
1.7912
1.669
1.5085
1.3378
1.1697
1.0041
0.84111
0.70865
0.60167
0.50997
0.41827
0.35458
0.28581
0.23741
0.18392
0.14061
0.094763
0.046366
-0.012221
-0.063167
-0.10138
-0.15742
-0.18544
-0.19308
-0.083545
0.13807
0.45647
0.77998
1.1111
1.3939
1.6155
1.7658
1.8524
1.8753
1.832
1.7632
1.618
1.4677
1.3073
1.1315
0.97612
0.82073
0.68827
0.5762
0.48959
0.40808
0.33675
0.27307
0.21958
0.16863
0.11259
0.064196
0.018346
-0.030052
-0.065714
-0.11921
-0.15742
-0.20327
-0.21345
-0.12685
0.061649
0.35458
0.69337
1.0296
1.3353
1.5747
1.7403
1.8473
1.8829
1.8626
1.781
1.6664
1.5161
1.3455
1.1773
1.0118
0.85639
0.72394
0.60676
0.50997
0.42591
0.35458
0.28326
0.22977
0.17373
0.12024
0.071838
0.0056094
-0.040241
-0.091186
-0.15232
-0.21345
-0.25676
-0.27968
-0.25931
-0.10647
0.14316
0.48959
0.83602
1.157
1.4321
1.6308
1.7632
1.8091
1.7938
1.7327
1.618
1.4728
1.3022
1.1213
0.97102
0.81564
0.69082
0.56601
0.48704
0.40298
0.34185
0.28071
0.22722
0.17373
0.13807
0.089669
0.054007
0.013251
-0.035147
-0.086092
-0.13194
-0.17779
-0.20072
-0.16251
-0.0020324
0.25524
0.60422
0.9481
1.269
1.5187
1.6868
1.7912
1.832
1.7887
1.7046
1.5747
1.4219
1.2436
1.0831
0.92262
0.79271
0.67809
0.56855
0.49468
0.42591
0.37241
0.32147
0.27817
0.23996
0.1992
0.16354
0.12024
0.082027
0.028535
-0.0071269
-0.032599
0.028535
0.18646
0.45902
0.78507
1.1213
1.4244
1.6588
1.8396
1.939
1.967
1.9415
1.86
1.7403
1.5849
1.4142
1.2385
1.0627
0.91243
0.77233
0.6679
0.5711
0.48449
0.41827
0.35204
0.30109
0.26034
0.20684
0.15335
0.11005
0.05146
0.015798
-0.035147
-0.058072
-0.019863
0.13297
0.39789
0.73158
1.0551
1.3658
1.6104
1.804
1.911
1.967
1.9543
1.8804
1.7683
1.6206
1.4677
1.2767
1.1137
0.95828
0.81309
0.68573
0.5762
0.49214
0.41572
0.33675
0.28071
0.21958
0.1559
0.11005
0.059102
0.0030622
-0.040241
-0.093734
-0.14977
-0.20072
-0.20836
-0.13194
0.05146
0.34439
0.68318
1.0271
1.3327
1.5926
1.7709
1.8957
1.9415
1.9237
1.8524
1.7454
1.6078
1.427
1.2589
1.0907
0.93536
0.78507
0.6679
0.5711
0.4794
0.40808
0.33421
0.27307
0.20939
0.16354
0.11259
0.061649
0.0081567
-0.047883
-0.093734
-0.14723
-0.18798
-0.17779
-0.07845
0.12533
0.42845
0.76469
1.0831
1.3709
1.5849
1.753
1.8345
1.8575
1.8269
1.7301
1.6104
1.4626
1.2869
1.1188
0.96083
0.8029
0.68063
0.57365
0.47685
0.40043
0.33166
0.26798
0.21958
0.15335
0.11005
0.064196
0.0030622
-0.045336
-0.11156
-0.14977
-0.21091
-0.24402
-0.2211
-0.10138
0.13297
0.44629
0.78762
1.1086
1.3786
1.5926
1.725
1.7938
1.7963
1.7352
1.6206
1.4856
1.3302
1.157
0.98885
0.83856
0.71375
0.59657
0.51251
0.42336
0.35204
0.2909
0.24505
0.19411
0.14826
0.097311
0.056555
0.010704
-0.035147
-0.086092
-0.13194
-0.17015
-0.19053
-0.17779
-0.063167
0.18137
0.4794
0.82583
1.1417
1.3913
1.5798
1.6995
1.7454
1.7327
1.646
1.5391
1.3939
1.2308
1.0704
0.91753
0.77743
0.67299
0.58638
0.50487
0.44883
0.40043
0.36477
0.32656
0.28581
0.24505
0.1992
0.14571
0.11005
0.061649
0.0081567
-0.0096741
0.033629
0.18392
0.431
0.73413
1.0423
1.32
1.5467
1.7225
1.8167
1.8677
1.832
1.7709
1.6613
1.5009
1.3455
1.1773
1.0143
0.86658
0.74177
0.62205
0.52525
0.44119
0.37241
0.30109
0.2476
0.1992
0.14061
0.099858
0.05146
0.0056094
-0.042789
-0.093734
-0.13704
-0.18034
-0.14468
-0.019863
0.22213
0.55836
0.90734
1.2487
1.5416
1.7683
1.911
1.995
2.0179
1.967
1.8626
1.7403
1.5671
1.3913
1.2156
1.0296
0.87932
0.73413
0.62714
0.51251
0.42845
0.35968
0.28581
0.22467
0.17882
0.11769
0.064196
0.010704
-0.040241
-0.088639
-0.14723
-0.19817
-0.2211
-0.19817
-0.045336
0.20175
0.52016
0.84875
1.1646
1.4244
1.6257
1.7505
1.8167
1.8218
1.7632
1.6715
1.5263
1.3557
1.1901
1.0194
0.86913
0.71375
0.59912
0.49468
0.41062
0.32656
0.26288
0.2043
0.1559
0.10241
0.056555
0.018346
-0.035147
-0.086092
-0.12685
-0.18544
-0.21855
-0.2211
-0.14213
0.069291
0.37496
0.70865
1.0525
1.3378
1.5696
1.7123
1.7963
1.804
1.7658
1.6562
1.5212
1.3531
1.185
1.0245
0.87422
0.73667
0.62205
0.5278
0.44629
0.37241
0.31128
0.26034
0.22213
0.16863
0.13297
0.087122
0.043818
0.0005149
-0.055525
-0.098828
-0.098828
-0.024958
0.15844
0.4361
0.76215
1.0933
1.3786
1.6002
1.7581
1.8396
1.86
1.8193
1.7276
1.6027
1.4346
1.264
1.1009
0.9481
0.81054
0.68827
0.57874
0.50232
0.42591
0.37241
0.32656
0.26543
0.22722
0.18901
0.14061
0.094763
0.05146
0.0030622
-0.042789
-0.024958
0.071838
0.28326
0.59657
0.91498
1.2359
1.511
1.7123
1.8549
1.939
1.9594
1.9135
1.8142
1.6843
1.5238
1.3429
1.1595
0.99904
0.83347
0.70356
0.57874
0.48704
0.40298
0.32911
0.26798
0.20684
0.1508
0.10241
0.059102
0.0030622
-0.045336
-0.086092
-0.14213
-0.19308
-0.20072
-0.15996
0.0030622
0.27307
0.59912
0.93281
1.2487
1.5085
1.7097
1.832
1.8931
1.8829
1.8244
1.7174
1.5773
1.4066
1.241
1.0704
0.90479
0.7545
0.63733
0.52525
0.44119
0.35968
0.28836
0.22722
0.17628
0.13043
0.082027
0.028535
-0.02241
-0.07845
-0.11921
-0.1676
-0.21091
-0.23129
-0.18034
-0.0045796
0.26288
0.59403
0.94555
1.2487
1.5136
1.7123
1.832
1.8982
1.8931
1.8294
1.7199
1.5824
1.427
1.264
1.0907
0.93791
0.79781
0.67299
0.56091
0.46921
0.39534
0.32656
0.26798
0.2043
0.14826
0.11005
0.05146
0.0030622
-0.058072
-0.10138
-0.15232
-0.19053
-0.19562
-0.093734
0.11005
0.40043
0.72394
1.0423
1.3251
1.5518
1.7021
1.781
1.8116
1.7709
1.6868
1.562
1.4066
1.2359
1.0627
0.90734
0.75705
0.63478
0.54053
0.44119
0.35968
0.29345
0.22977
0.17373
0.12788
0.07948
0.02344
-0.024958
-0.073356
-0.12175
-0.17015
-0.22364
-0.26185
-0.28733
-0.22619
-0.032599
0.2425
0.59657
0.94555
1.2589
1.5161
1.6766
1.7938
1.8167
1.781
1.6919
1.5569
1.4041
1.2385
1.0678
0.92008
0.78252
0.66026
0.56346
0.47685
0.40553
0.34439
0.2909
0.2425
0.21194
0.16354
0.11259
0.066744
0.025987
-0.02241
-0.080997
-0.10647
-0.096281
0.0081567
0.21958
0.51251
0.82837
1.134
1.3862
1.5747
1.6919
1.7403
1.7174
1.6486
1.5391
1.3913
1.2385
1.0755
0.92772
0.79781
0.67044
0.56855
0.48449
0.41827
0.35968
0.30619
0.26543
0.22977
0.2043
0.16609
0.13043
0.082027
0.041271
-0.0071269
-0.030052
0.013251
0.1559
0.41062
0.7545
1.0856
1.3939
1.6537
1.8447
1.9594
2.0205
2.0078
1.9441
1.8218
1.669
1.4856
1.3225
1.1417
0.98885
0.84875
0.72139
0.62205
0.53289
0.46157
0.40298
0.33166
0.28581
0.22722
0.17882
0.13807
0.082027
0.036177
-0.017316
-0.070808
-0.10647
-0.07845
0.064196
0.30364
0.61695
0.9481
1.2716
1.5263
1.7352
1.8753
1.9441
1.9517
1.8957
1.7938
1.6588
1.4983
1.3251
1.157
1.0067
0.86404
0.73158
0.62205
0.53289
0.44629
0.36987
0.31383
0.26034
0.1992
0.14571
0.092216
0.038724
-0.017316
-0.068261
-0.11156
-0.15742
-0.14468
-0.027505
0.20175
0.48959
0.82583
1.1417
1.4015
1.6155
1.7658
1.8473
1.86
1.8244
1.7327
1.5976
1.4474
1.2818
1.1111
0.95064
0.80545
0.68063
0.5711
0.48195
0.40298
0.33675
0.27562
0.21958
0.15335
0.11005
0.059102
0.013251
-0.040241
-0.093734
-0.13194
-0.19308
-0.21345
-0.18034
-0.052978
0.1992
0.50487
0.83347
1.1264
1.3837
1.5849
1.7097
1.7734
1.7607
1.6919
1.59
1.4525
1.2894
1.1213
0.95319
0.81054
0.68063
0.56091
0.47176
0.39789
0.32656
0.26288
0.20939
0.16354
0.10495
0.061649
0.015798
-0.030052
-0.070808
-0.12175
-0.1727
-0.20836
-0.21345
-0.15742
0.020893
0.28581
0.60422
0.91753
1.2079
1.4244
1.5824
1.6715
1.6843
1.6384
1.5391
1.4015
1.2512
1.0984
0.93791
0.80035
0.68318
0.58129
0.49978
0.42591
0.37241
0.32911
0.28836
0.25524
0.21194
0.17118
0.13043
0.082027
0.041271
-0.0071269
-0.037694
-0.040241
0.038724
0.25015
0.52525
0.8513
1.157
1.4244
1.6359
1.7683
1.8549
1.8524
1.8142
1.7072
1.5849
1.4219
1.2614
1.0882
0.94555
0.80035
0.68318
0.58129
0.50487
0.43864
0.36732
0.32656
0.26543
0.22213
0.18137
0.12533
0.082027
0.02344
-0.014769
-0.060619
-0.10138
-0.058072
0.076933
0.34694
0.66535
1.0067
1.3276
1.5849
1.781
1.9211
1.9874
1.9874
1.9262
1.832
1.6817
1.5161
1.3225
1.1493
0.98376
0.82583
0.69846
0.57874
0.48195
0.41062
0.33675
0.27052
0.21448
0.15335
0.097311
0.043818
-0.0096741
-0.068261
-0.11156
-0.16251
-0.18034
-0.15742
-0.012221
0.22722
0.54308
0.86658
1.1773
1.4244
1.6104
1.7479
1.8116
1.8142
1.7658
1.6562
1.5263
1.3557
1.185
1.0194
0.87422
0.73413
0.60676
0.50997
0.431
0.34694
0.28581
0.21958
0.17118
0.12278
0.074385
0.015798
-0.032599
-0.070808
-0.13449
-0.17779
-0.21091
-0.19562
-0.080997
0.15335
0.46921
0.808
1.1417
1.4168
1.6486
1.804
1.8855
1.8982
1.8728
1.7683
1.6511
1.4881
1.3149
1.1468
0.98376
0.83602
0.70865
0.59403
0.49468
0.42336
0.34439
0.27307
0.22213
0.16863
0.11259
0.066744
0.010704
-0.045336
-0.098828
-0.14977
-0.19053
-0.216
-0.16251
-0.02241
0.25269
0.56855
0.89206
1.2054
1.4474
1.6384
1.7632
1.8014
1.7963
1.7301
1.6257
1.4754
1.32
1.1493
0.98121
0.83092
0.69592
0.5762
0.4794
0.40553
0.32402
0.25779
0.21448
0.1559
0.10495
0.056555
0.0005149
-0.045336
-0.098828
-0.14213
-0.20327
-0.24912
-0.26185
-0.19053
0.0056094
0.28836
0.63224
0.97866
1.2792
1.5085
1.669
1.7709
1.7938
1.753
1.6588
1.5314
1.3658
1.2003
1.0347
0.87168
0.73158
0.6144
0.51506
0.431
0.35204
0.29345
0.23996
0.20175
0.15335
0.11259
0.066744
0.015798
-0.02241
-0.068261
-0.11666
-0.1676
-0.18544
-0.13449
0.015798
0.28836
0.60676
0.93536
1.2359
1.4907
1.6613
1.7632
1.7887
1.753
1.6613
1.5289
1.3735
1.2028
1.0449
0.89715
0.76724
0.65007
0.55582
0.4794
0.41827
0.36732
0.30619
0.27307
0.22977
0.18392
0.15335
0.10241
0.048913
0.0056094
-0.032599
-0.040241
0.05146
0.24505
0.54053
0.85894
1.185
1.4856
1.7097
1.8753
1.9594
1.9925
1.9492
1.8677
1.7428
1.5773
1.4117
1.2308
1.0755
0.91753
0.79017
0.68827
0.57874
0.49468
0.4361
0.36477
0.30619
0.24505
0.2043
0.14571
0.097311
0.038724
-0.017316
-0.07845
-0.12175
-0.13449
-0.05043
0.1559
0.44119
0.78507
1.129
1.4346
1.6792
1.8473
1.9543
1.995
1.9746
1.8855
1.7683
1.6129
1.4295
1.264
1.0882
0.92517
0.78507
0.6679
0.55072
0.46157
0.37496
0.31128
0.25269
0.17628
0.13043
0.069291
0.010704
-0.052978
-0.10138
-0.1676
-0.20836
-0.24657
-0.19562
-0.035147
0.22977
0.56601
0.90479
1.2156
1.4601
1.6409
1.7505
1.7861
1.7632
1.6817
1.5594
1.3964
1.2359
1.0653
0.91753
0.76979
0.65771
0.55582
0.46921
0.40298
0.33675
0.27307
0.22722
0.17628
0.13043
0.07948
0.036177
-0.0096741
-0.060619
-0.10138
-0.091186
0.010704
0.22213
0.51761
0.83092
1.1264
1.3888
1.5798
1.7123
1.781
1.7709
1.7021
1.5926
1.4448
1.2792
1.1009
0.93791
0.79271
0.67809
0.5711
0.48195
0.41572
0.35968
0.30873
0.25524
0.21703
0.18137
0.13807
0.089669
0.048913
0.0030622
-0.032599
-0.035147
0.074385
0.28071
0.5762
0.90734
1.2283
1.5085
1.7301
1.8778
1.967
1.9976
1.967
1.8702
1.7428
1.5722
1.4142
1.2359
1.078
0.91753
0.78762
0.66026
0.56091
0.47431
0.40553
0.32656
0.27052
0.21703
0.1508
0.094763
0.036177
-0.019863
-0.065714
-0.11666
-0.13449
-0.060619
0.12533
0.39279
0.71375
1.0322
1.3276
1.5543
1.7377
1.8626
1.911
1.8957
1.832
1.7174
1.5798
1.4091
1.2308
1.0525
0.87932
0.73922
0.60931
0.49723
0.40043
0.32402
0.25269
0.19411
0.12788
0.064196
0.013251
-0.035147
-0.091186
-0.15232
-0.19817
-0.22364
-0.22364
-0.10647
0.11769
0.41317
0.73413
1.0449
1.3225
1.5289
1.6843
1.781
1.8091
1.7632
1.6893
1.5594
1.4041
1.2308
1.0602
0.89715
0.74431
0.60931
0.50232
0.40553
0.32402
0.25524
0.1992
0.12788
0.082027
0.033629
-0.02241
-0.070808
-0.1243
-0.1676
-0.22364
-0.24657
-0.21345
-0.060619
0.17882
0.48959
0.82073
1.1315
1.4015
1.6027
1.7479
1.8218
1.8396
1.7989
1.7097
1.5722
1.4091
1.2359
1.0627
0.90734
0.76469
0.64242
0.53544
0.44374
0.35713
0.296
0.22213
0.15844
0.10495
0.056555
-0.0096741
-0.060619
-0.11156
-0.14723
-0.20836
-0.24147
-0.23129
-0.14723
0.066744
0.36223
0.69337
1.0143
1.3073
1.5416
1.7174
1.8142
1.8575
1.8218
1.7479
1.6257
1.4626
1.3022
1.129
0.95574
0.81309
0.67809
0.56601
0.46921
0.3826
0.30619
0.23232
0.18392
0.11259
0.064196
0.0081567
-0.047883
-0.10138
-0.15487
-0.20327
-0.25676
-0.29242
-0.28223
-0.17015
0.061649
0.36987
0.71884
1.0398
1.3276
1.5365
1.6919
1.7734
1.7912
1.7479
1.6409
1.5059
1.3455
1.1697
0.9863
0.83347
0.69592
0.5711
0.46921
0.3826
0.30619
0.2425
0.19411
0.13297
0.097311
0.043818
-0.0096741
-0.058072
-0.093734
-0.13704
-0.18798
-0.22364
-0.25931
-0.21345
-0.060619
0.19156
0.52525
0.86913
1.1824
1.4448
1.6257
1.7352
1.7734
1.753
1.6639
1.5416
1.3862
1.2156
1.0474
0.89206
0.75705
0.63733
0.5278
0.45138
0.37751
0.31383
0.26034
0.21448
0.17373
0.12533
0.084574
0.038724
0.0005149
-0.05043
-0.083545
-0.10138
-0.019863
0.17882
0.47685
0.808
1.1417
1.4244
1.6613
1.8193
1.9161
1.9313
1.8931
1.7938
1.669
1.5059
1.3225
1.1519
0.9863
0.83856
0.70101
0.58893
0.49723
0.42336
0.35713
0.30109
0.25015
0.19411
0.14826
0.094763
0.046366
-0.0071269
-0.055525
-0.091186
-0.070808
0.064196
0.31638
0.62714
0.96847
1.2716
1.5391
1.7327
1.8549
1.9084
1.9033
1.8422
1.7225
1.5696
1.3964
1.2181
1.0525
0.87677
0.72903
0.59403
0.49214
0.40808
0.32656
0.24505
0.1992
0.13043
0.092216
0.028535
-0.012221
-0.060619
-0.10392
-0.16251
-0.21091
-0.24912
-0.216
-0.096281
0.16609
0.50997
0.86913
1.213
1.5059
1.7352
1.8957
1.9746
1.995
1.9492
1.8524
1.7072
1.5314
1.3531
1.185
1.0041
0.85385
0.72394
0.60676
0.49978
0.42845
0.34439
0.2909
0.23486
0.18137
0.12278
0.071838
0.02344
-0.037694
-0.091186
-0.13958
-0.16506
-0.11156
0.059102
0.3393
0.6679
0.99904
1.2996
1.5365
1.7174
1.8218
1.8447
1.8091
1.7225
1.5798
1.4066
1.2028
1.0118
0.82073
0.65007
0.49978
0.3826
0.27052
0.2043
0.14316
0.094763
0.059102
0.020893
0.0056094
-0.024958
-0.063167
-0.10138
-0.13958
-0.16506
-0.14977
-0.035147
0.18392
0.48449
0.81564
1.1264
1.3811
1.5696
1.6715
1.7072
1.6919
1.5926
1.4728
1.3124
1.1442
0.9863
0.83347
0.69846
0.5762
0.48195
0.40553
0.34185
0.29345
0.25269
0.22977
0.19156
0.16354
0.12788
0.092216
0.043818
0.0030622
-0.012221
0.020893
0.15844
0.40553
0.74686
1.0806
1.4041
1.6613
1.8575
1.9772
2.0256
2.0128
1.9313
1.8091
1.6613
1.4805
1.292
1.1239
0.96847
0.81819
0.70356
0.60167
0.50997
0.43864
0.38515
0.32147
0.27052
0.22467
0.16863
0.12024
0.066744
0.018346
-0.019863
0.031082
0.16099
0.40808
0.71884
1.0245
1.3124
1.534
1.6944
1.7938
1.832
1.7963
1.7225
1.6002
1.4423
1.2716
1.1035
0.943
0.77488
0.63988
0.53034
0.42591
0.33421
0.26798
0.2043
0.14571
0.10495
0.048913
0.0005149
-0.052978
-0.093734
-0.13958
-0.18034
-0.20836
-0.19308
-0.045336
0.21958
0.54818
0.88696
1.2156
1.4805
1.6715
1.804
1.8702
1.86
1.7836
1.669
1.5187
1.3557
1.1723
1.0041
0.84111
0.71375
0.58638
0.49723
0.42081
0.34185
0.296
0.23232
0.18392
0.1508
0.099858
0.054007
0.010704
-0.045336
-0.05043
-0.0045796
0.16099
0.40298
0.68827
0.96338
1.2207
1.4219
1.5492
1.618
1.6257
1.5773
1.4932
1.3506
1.2054
1.0423
0.89206
0.73667
0.60676
0.49978
0.40298
0.33675
0.27052
0.21703
0.17628
0.13043
0.089669
0.048913
0.0081567
-0.042789
-0.088639
-0.13194
-0.14468
-0.11921
0.043818
0.30109
0.62969
0.96847
1.2843
1.5289
1.7123
1.8371
1.8829
1.8626
1.7912
1.6613
1.5059
1.3327
1.1595
0.99649
0.83856
0.72139
0.59912
0.51251
0.431
0.36987
0.30619
0.25269
0.1992
0.1508
0.10241
0.05146
-0.0045796
-0.045336
-0.098828
-0.093734
0.0056094
0.2043
0.48449
0.79526
1.0933
1.3506
1.5442
1.6664
1.7199
1.7225
1.6715
1.5671
1.4193
1.264
1.1009
0.93281
0.78252
0.64497
0.54053
0.45138
0.36477
0.30619
0.2476
0.21194
0.16099
0.12788
0.071838
0.043818
-0.012221
-0.05043
-0.091186
-0.10647
-0.042789
0.12278
0.38515
0.71375
1.0271
1.3174
1.5365
1.6944
1.7861
1.804
1.7658
1.6511
1.5187
1.3608
1.1977
1.0322
0.87168
0.74431
0.62714
0.53544
0.45138
0.36732
0.31128
0.26288
0.21448
0.16354
0.12278
0.07948
0.025987
-0.012221
-0.063167
-0.11666
-0.15487
-0.13958
-0.030052
0.2043
0.49978
0.83856
1.134
1.3913
1.5849
1.7174
1.7607
1.7327
1.6664
1.5492
1.3939
1.2257
1.05
0.8997
0.7545
0.63988
0.53034
0.45902
0.38515
0.32656
0.27817
0.2425
0.19411
0.16354
0.12533
0.084574
0.038724
-0.0045796
-0.05043
-0.091186
-0.096281
-0.042789
0.14571
0.42336
0.74941
1.0576
1.3302
1.5442
1.669
1.7327
1.7352
1.6766
1.5518
1.4117
1.2461
1.0831
0.92262
0.78507
0.67299
0.57365
0.4794
0.41572
0.35968
0.31892
0.27817
0.2476
0.20939
0.17118
0.12278
0.082027
0.033629
-0.0096741
-0.032599
0.028535
0.17628
0.431
0.74431
1.0449
1.3276
1.5492
1.7123
1.7963
1.8091
1.7709
1.6792
1.5543
1.3964
1.2308
1.0653
0.90734
0.76724
0.64752
0.55072
0.46921
0.3877
0.32656
0.28071
0.22722
0.18392
0.1508
0.10495
0.069291
0.020893
-0.035147
-0.070808
-0.11411
-0.10392
-0.0045796
0.22467
0.54563
0.90734
1.2359
1.5263
1.7607
1.9059
1.9848
2.0001
1.9466
1.8371
1.6817
1.5187
1.3251
1.1544
0.98121
0.83856
0.71375
0.59403
0.50487
0.431
0.36477
0.30619
0.25524
0.20175
0.14061
0.097311
0.05146
-0.0020324
-0.052978
-0.10138
-0.14977
-0.16506
-0.11156
0.076933
0.34949
0.68573
1.0169
1.3225
1.5594
1.7301
1.8345
1.86
1.832
1.7327
1.6104
1.4499
1.2792
1.1111
0.95064
0.79526
0.67554
0.5711
0.47685
0.40298
0.34439
0.28581
0.22722
0.17118
0.12788
0.07948
0.031082
-0.012221
-0.065714
-0.12175
-0.16506
-0.18034
-0.12175
0.054007
0.32402
0.67044
1.0169
1.3174
1.5569
1.725
1.8218
1.8294
1.7989
1.6944
1.5594
1.3913
1.2359
1.0551
0.90989
0.76469
0.63478
0.53799
0.46666
0.3826
0.32147
0.26543
0.22213
0.16354
0.13043
0.076933
0.02344
-0.012221
-0.060619
-0.10902
-0.16506
-0.17015
-0.10647
0.071838
0.36732
0.70356
1.022
1.32
1.5442
1.6919
1.7658
1.7836
1.7199
1.6206
1.4856
1.32
1.1468
0.99904
0.8513
0.72903
0.62205
0.53544
0.45647
0.39789
0.34694
0.30619
0.26288
0.22977
0.18137
0.13297
0.097311
0.043818
-0.012221
-0.032599
0.0081567
0.14826
0.41062
0.73667
1.0704
1.3735
1.6282
1.8091
1.9288
1.9721
1.9517
1.8728
1.7505
1.5976
1.4193
1.2512
1.0933
0.93536
0.80545
0.68827
0.59403
0.51761
0.4361
0.38515
0.32147
0.26543
0.21703
0.14826
0.10241
0.05146
-0.0020324
-0.037694
-0.032599
0.089669
0.30873
0.6195
0.95064
1.2563
1.5238
1.7301
1.8728
1.9415
1.9645
1.9161
1.8218
1.6843
1.5187
1.3327
1.1646
0.98121
0.83347
0.70611
0.58893
0.49214
0.40808
0.32656
0.26288
0.21448
0.1508
0.089669
0.036177
-0.0096741
-0.055525
-0.10647
-0.15487
-0.18289
-0.15742
-0.035147
0.20175
0.50742
0.85385
1.1646
1.4346
1.6639
1.8142
1.911
1.939
1.9008
1.8167
1.6843
1.5136
1.3404
1.1697
1.0092
0.8513
0.72903
0.60931
0.50997
0.41572
0.34439
0.27562
0.2043
0.16099
0.089669
0.028535
-0.019863
-0.080997
-0.13958
-0.18034
-0.2211
-0.19817
-0.086092
0.14061
0.44119
0.76469
1.0729
1.3608
1.5747
1.7327
1.8371
1.8728
1.8498
1.7683
1.646
1.4958
1.3251
1.1442
0.98121
0.83092
0.69082
0.5762
0.47685
0.39025
0.31383
0.2476
0.17882
0.12278
0.061649
0.0056094
-0.052978
-0.10392
-0.14977
-0.19817
-0.24402
-0.25931
-0.19308
-0.019863
0.25524
0.5762
0.91243
1.2156
1.4601
1.6639
1.7887
1.8524
1.8345
1.776
1.669
1.5187
1.3633
1.1824
1.0092
0.85639
0.72139
0.59912
0.49723
0.40043
0.32147
0.24505
0.18392
0.12024
0.056555
0.0030622
-0.060619
-0.11411
-0.16251
-0.21345
-0.2644
-0.30516
-0.33318
-0.31535
-0.1727
0.064196
0.39279
0.74177
1.0602
1.3276
1.5594
1.697
1.7709
1.781
1.7327
1.6231
1.4881
1.3149
1.1391
0.97866
0.82328
0.68827
0.57874
0.4794
0.39789
0.32402
0.26543
0.21958
0.15844
0.11514
0.064196
0.010704
-0.030052
-0.070808
-0.12175
-0.15996
-0.21091
-0.24657
-0.23893
-0.14213
0.056555
0.35204
0.70356
1.0474
1.3327
1.562
1.7199
1.8065
1.8142
1.753
1.6511
1.5161
1.3506
1.1723
1.0118
0.85894
0.72139
0.62714
0.53034
0.45393
0.3877
0.32147
0.28581
0.22977
0.18901
0.14316
0.092216
0.056555
0.0005149
-0.042789
-0.080997
-0.11156
-0.088639
0.048913
0.30619
0.63224
0.97102
1.2843
1.5492
1.753
1.8906
1.9517
1.9594
1.8957
1.7938
1.6511
1.4779
1.2945
1.1035
0.93281
0.77998
0.65261
0.55072
0.46157
0.38515
0.32656
0.25779
0.2043
0.15844
0.1075
0.069291
0.020893
-0.032599
-0.083545
-0.1243
-0.098828
0.028535
0.28071
0.58638
0.91753
1.241
1.5136
1.7097
1.8498
1.9237
1.9288
1.8702
1.7734
1.6282
1.4601
1.2741
1.078
0.90479
0.74941
0.60931
0.49978
0.39279
0.30873
0.23741
0.17373
0.12024
0.069291
0.020893
-0.030052
-0.073356
-0.12175
-0.17015
-0.216
-0.26185
-0.28987
-0.25676
-0.12175
0.13807
0.46921
0.84875
1.2028
1.5059
1.7352
1.9033
2.0052
2.0281
1.9823
1.8906
1.7479
1.5747
1.3913
1.2003
1.0169
0.86658
0.72394
0.59657
0.50232
0.41572
0.33166
0.27052
0.2043
0.14316
0.092216
0.033629
-0.024958
-0.070808
-0.13194
-0.1676
-0.23383
-0.26185
-0.26185
-0.15996
0.066744
0.39279
0.7596
1.1111
1.4295
1.6868
1.8753
1.9772
2.0256
2.0027
1.9262
1.781
1.6231
1.4295
1.2436
1.0678
0.90989
0.76469
0.63478
0.52525
0.43864
0.36732
0.30109
0.23232
0.18392
0.13043
0.071838
0.020893
-0.024958
-0.086092
-0.13704
-0.18544
-0.22364
-0.22619
-0.16506
0.031082
0.34694
0.69337
1.0474
1.3684
1.6308
1.8269
1.9339
1.9772
1.9645
1.888
1.7632
1.5976
1.4168
1.2232
1.0602
0.88696
0.7545
0.62205
0.52525
0.42591
0.34185
0.27817
0.21448
0.1508
0.092216
0.036177
-0.030052
-0.080997
-0.13704
-0.19308
-0.23893
-0.29497
-0.33318
-0.33318
-0.25676
-0.030052
0.2909
0.65771
1.0322
1.3608
1.6053
1.7963
1.8906
1.9237
1.8753
1.776
1.6308
1.4652
1.2665
1.0958
0.93026
0.77488
0.66026
0.54308
0.45902
0.38515
0.32402
0.26798
0.22467
0.17118
0.12533
0.07948
0.028535
-0.02241
-0.065714
-0.11156
-0.15232
-0.14468
-0.030052
0.19665
0.50742
0.84111
1.1697
1.4372
1.6486
1.7785
1.8269
1.8244
1.7556
1.6282
1.4779
1.3124
1.134
0.96338
0.80545
0.6628
0.55327
0.46157
0.38515
0.31383
0.27052
0.21703
0.18392
0.14316
0.11769
0.074385
0.031082
-0.0096741
-0.042789
-0.086092
-0.080997
0.033629
0.28326
0.60422
0.97357
1.3047
1.6053
1.8396
1.995
2.074
2.0893
2.0307
1.9211
1.781
1.6002
1.4168
1.2334
1.0449
0.89206
0.75705
0.62969
0.53799
0.45393
0.36732
0.31128
0.26034
0.18901
0.1508
0.089669
0.043818
-0.024958
-0.070808
-0.11666
-0.12685
-0.027505
0.18392
0.48195
0.81819
1.1468
1.4448
1.6664
1.8244
1.9135
1.9364
1.8982
1.8142
1.6639
1.5085
1.3251
1.1366
0.95574
0.8029
0.66535
0.54308
0.44374
0.36223
0.29854
0.23486
0.17373
0.12024
0.069291
0.028535
-0.024958
-0.073356
-0.13194
-0.1727
-0.216
-0.25166
-0.20836
-0.032599
0.25015
0.6144
0.97866
1.3174
1.6027
1.8244
1.9594
2.0332
2.0485
1.9874
1.86
1.7123
1.5314
1.3455
1.1595
0.9914
0.82583
0.70865
0.58893
0.48704
0.41062
0.33166
0.26288
0.2043
0.1508
0.089669
0.041271
-0.017316
-0.070808
-0.13449
-0.18544
-0.22619
-0.23383
-0.15232
0.046366
0.3393
0.68827
1.0245
1.3327
1.5849
1.7683
1.8829
1.9161
1.9033
1.8142
1.7021
1.5442
1.3658
1.1824
1.0194
0.86149
0.71884
0.60167
0.51761
0.41827
0.35204
0.29345
0.22467
0.16099
0.1075
0.059102
0.0056094
-0.045336
-0.098828
-0.14468
-0.20327
-0.23383
-0.24402
-0.16251
0.036177
0.33675
0.69082
1.0322
1.3404
1.5696
1.7428
1.8498
1.888
1.8447
1.7607
1.6333
1.4728
1.2843
1.1086
0.94555
0.79526
0.67044
0.55582
0.47685
0.3877
0.32402
0.26288
0.20684
0.15844
0.10241
0.056555
0.0081567
-0.052978
-0.098828
-0.14468
-0.18289
-0.216
-0.19308
-0.083545
0.13807
0.44883
0.77488
1.078
1.3302
1.5391
1.6562
1.7046
1.7046
1.6231
1.5187
1.3531
1.1926
1.022
0.87422
0.73158
0.60676
0.5227
0.43355
0.36987
0.31383
0.27052
0.23741
0.20175
0.16099
0.12788
0.084574
0.031082
-0.0045796
-0.05043
-0.068261
-0.0071269
0.15844
0.42845
0.74431
1.0602
1.3353
1.5747
1.7377
1.8345
1.8651
1.832
1.7505
1.6231
1.4652
1.292
1.1188
0.95574
0.81819
0.69846
0.59912
0.49978
0.4361
0.38006
0.32147
0.27307
0.22213
0.18392
0.14316
0.087122
0.05146
-0.0020324
-0.042789
-0.040241
0.071838
0.28836
0.57874
0.91243
1.2054
1.4805
1.6741
1.8294
1.9059
1.9135
1.8702
1.7709
1.6409
1.4779
1.3022
1.1239
0.94555
0.79781
0.67044
0.56091
0.46157
0.3877
0.32402
0.26034
0.20684
0.16354
0.11259
0.059102
0.0030622
-0.035147
-0.075903
-0.11921
-0.14977
-0.14213
-0.019863
0.20939
0.52016
0.84875
1.1621
1.4423
1.6511
1.8091
1.8855
1.9059
1.8626
1.7683
1.6486
1.4805
1.3022
1.1239
0.95828
0.82328
0.68318
0.5762
0.48449
0.40298
0.3393
0.26798
0.20939
0.1508
0.097311
0.056555
0.0030622
-0.045336
-0.096281
-0.13449
-0.18544
-0.20327
-0.15232
0.020893
0.296
0.6195
0.94555
1.2512
1.4983
1.6944
1.8294
1.8906
1.8906
1.8345
1.7301
1.5798
1.4142
1.2487
1.0755
0.91753
0.77233
0.65261
0.55072
0.46666
0.39279
0.32402
0.26288
0.1992
0.14061
0.089669
0.031082
-0.0096741
-0.058072
-0.10138
-0.13704
-0.18034
-0.19053
-0.13194
0.046366
0.32656
0.65516
0.98121
1.269
1.5085
1.6843
1.7912
1.8396
1.8218
1.7658
1.6409
1.4907
1.3174
1.1468
0.98885
0.82837
0.70356
0.58384
0.48704
0.40553
0.33675
0.26543
0.21194
0.14826
0.087122
0.036177
-0.0096741
-0.060619
-0.11156
-0.15742
-0.21091
-0.24657
-0.28223
-0.26949
-0.15232
0.074385
0.3826
0.72139
1.0602
1.3429
1.5722
1.725
1.8014
1.8167
1.7683
1.6588
1.5212
1.3531
1.1773
1.0067
0.8462
0.70865
0.60676
0.50487
0.4361
0.35458
0.296
0.2476
0.20175
0.14826
0.099858
0.061649
0.0030622
-0.042789
-0.07845
-0.12685
-0.17525
-0.20327
-0.20581
-0.11666
0.082027
0.38006
0.73413
1.0602
1.3557
1.5798
1.7377
1.8091
1.8167
1.7734
1.6664
1.5161
1.3404
1.1723
0.99904
0.8513
0.72648
0.60931
0.51761
0.45138
0.39534
0.34439
0.29345
0.25524
0.21448
0.17628
0.14316
0.094763
0.048913
-0.0045796
-0.037694
-0.047883
0.033629
0.23486
0.52016
0.8462
1.1672
1.4423
1.6639
1.804
1.8906
1.9161
1.8702
1.7658
1.6308
1.4703
1.2818
1.1035
0.93791
0.78762
0.65007
0.54563
0.45902
0.38515
0.32656
0.25779
0.21703
0.16354
0.12024
0.071838
0.025987
-0.02241
-0.070808
-0.11666
-0.13194
-0.040241
0.14826
0.45393
0.78762
1.1188
1.4041
1.6359
1.8014
1.9008
1.9186
1.888
1.8014
1.6588
1.4881
1.3073
1.1213
0.9481
0.77998
0.64242
0.53034
0.42845
0.34185
0.27052
0.20939
0.1559
0.10495
0.054007
0.0056094
-0.042789
-0.080997
-0.13704
-0.18544
-0.23129
-0.26949
-0.29497
-0.23129
-0.058072
0.25269
0.62205
1.0067
1.3429
1.6231
1.8396
1.9874
2.0485
2.0434
1.9925
1.8651
1.7072
1.5289
1.3251
1.1417
0.97102
0.81564
0.69846
0.58384
0.48449
0.40553
0.3393
0.27817
0.22467
0.16354
0.1075
0.048913
0.0030622
-0.045336
-0.11411
-0.1676
-0.216
-0.23893
-0.17779
-0.017316
0.28071
0.62714
0.98885
1.3174
1.5849
1.781
1.8957
1.9517
1.9313
1.8575
1.7225
1.5594
1.3862
1.2028
1.0271
0.87422
0.72139
0.6144
0.50742
0.42591
0.35204
0.28326
0.22467
0.17882
0.12533
0.076933
0.031082
-0.024958
-0.080997
-0.11921
-0.1676
-0.21855
-0.24912
-0.21855
-0.07845
0.19156
0.54818
0.91243
1.2589
1.5416
1.7734
1.9084
1.967
1.9415
1.8702
1.7327
1.5722
1.3964
1.213
1.0398
0.87422
0.72394
0.59657
0.49978
0.42081
0.34185
0.27817
0.22467
0.17118
0.12533
0.071838
0.031082
-0.024958
-0.070808
-0.12175
-0.17779
-0.22874
-0.26185
-0.23129
-0.093734
0.16609
0.50997
0.88441
1.2181
1.5034
1.7225
1.832
1.8804
1.8498
1.7709
1.6333
1.4652
1.2869
1.1035
0.93791
0.78252
0.66026
0.56601
0.48195
0.40553
0.34949
0.296
0.26543
0.22213
0.16863
0.13297
0.089669
0.046366
-0.012221
-0.055525
-0.086092
-0.052978
0.087122
0.34439
0.69846
1.0551
1.3786
1.6613
1.86
1.9746
2.0281
2.0001
1.9186
1.7938
1.6257
1.4448
1.264
1.0907
0.92772
0.79781
0.68318
0.58129
0.50232
0.42845
0.37751
0.32402
0.27307
0.22977
0.18646
0.12788
0.07948
0.031082
-0.030052
-0.032599
0.041271
0.23232
0.53544
0.88441
1.2257
1.5289
1.7632
1.9339
2.0307
2.0562
2.0179
1.9161
1.7938
1.6129
1.4346
1.2487
1.0729
0.91753
0.77233
0.65261
0.54563
0.46157
0.38515
0.31638
0.25015
0.19156
0.13297
0.082027
0.013251
-0.040241
-0.086092
-0.13449
-0.19053
-0.21091
-0.16506
0.02344
0.31383
0.65516
1.0118
1.3404
1.6104
1.8065
1.9288
1.9899
1.9823
1.9237
1.8091
1.646
1.4779
1.2996
1.1137
0.95319
0.808
0.69082
0.57365
0.47431
0.39534
0.32147
0.26543
0.1992
0.13807
0.082027
0.015798
-0.027505
-0.093734
-0.13704
-0.19308
-0.23638
-0.20836
-0.080997
0.17882
0.49978
0.8462
1.1748
1.4525
1.6766
1.8269
1.9262
1.9339
1.8931
1.8014
1.6588
1.5059
1.3174
1.1493
0.97612
0.82583
0.70101
0.58129
0.49978
0.41827
0.33675
0.27562
0.20939
0.14316
0.092216
0.036177
-0.014769
-0.070808
-0.13194
-0.18544
-0.23383
-0.24147
-0.16251
0.028535
0.32656
0.65261
0.99395
1.2843
1.534
1.7097
1.8244
1.8524
1.8294
1.7479
1.6206
1.4677
1.2869
1.1009
0.93281
0.77998
0.64752
0.53544
0.42845
0.35204
0.27817
0.21703
0.14316
0.094763
0.033629
-0.017316
-0.070808
-0.13449
-0.18289
-0.22874
-0.29242
-0.32553
-0.32299
-0.23638
-0.02241
0.28836
0.64242
0.97357
1.2741
1.511
1.6766
1.7683
1.7887
1.7505
1.646
1.5085
1.3557
1.1901
1.0194
0.86658
0.73158
0.62205
0.51761
0.44374
0.37496
0.31638
0.25524
0.21448
0.16609
0.12278
0.076933
0.031082
-0.02241
-0.065714
-0.12175
-0.15742
-0.17525
-0.14723
0.013251
0.26798
0.59657
0.93536
1.2461
1.5034
1.6944
1.832
1.8728
1.8473
1.7709
1.6537
1.5059
1.3353
1.1621
1.0016
0.85639
0.73667
0.62714
0.5278
0.46412
0.3877
0.32911
0.26543
0.20939
0.17373
0.11005
0.064196
0.010704
-0.032599
-0.093734
-0.13449
-0.17525
-0.14213
-0.014769
0.24505
0.5711
0.92008
1.2665
1.5467
1.7709
1.9237
2.0052
2.0128
1.9645
1.8753
1.7225
1.5442
1.3735
1.1773
1.0143
0.86149
0.73413
0.61695
0.52016
0.4361
0.35458
0.28581
0.21448
0.17118
0.1075
0.048913
-0.0020324
-0.058072
-0.10392
-0.1676
-0.20327
-0.24912
-0.22874
-0.12685
0.10495
0.42336
0.79271
1.129
1.4448
1.6843
1.8524
1.9441
1.9848
1.9441
1.8473
1.7148
1.5492
1.3684
1.1875
1.0169
0.86149
0.71629
0.60676
0.50487
0.40808
0.33421
0.27052
0.20175
0.14061
0.069291
0.0081567
-0.045336
-0.096281
-0.15996
-0.21345
-0.26695
-0.31535
-0.33063
-0.28987
-0.11411
0.16863
0.5227
0.88441
1.2181
1.4958
1.6995
1.8294
1.8906
1.8702
1.8065
1.6817
1.5161
1.3455
1.1697
1.0016
0.8462
0.7112
0.59148
0.49978
0.41317
0.34185
0.28326
0.21958
0.17118
0.12278
0.074385
0.013251
-0.035147
-0.088639
-0.13704
-0.18289
-0.216
-0.22364
-0.13704
0.074385
0.38515
0.73413
1.0831
1.3939
1.6359
1.7938
1.8855
1.9084
1.86
1.753
1.6027
1.4372
1.2614
1.0907
0.93281
0.78507
0.66535
0.5711
0.48959
0.40808
0.35713
0.29854
0.24505
0.19156
0.14826
0.10495
0.048913
-0.0020324
-0.052978
-0.093734
-0.11156
-0.05043
0.13807
0.43864
0.78762
1.1366
1.4499
1.7021
1.8804
1.9976
2.046
2.0205
1.9339
1.8014
1.6359
1.4474
1.2563
1.0806
0.92008
0.76979
0.65261
0.54818
0.45393
0.36987
0.30364
0.24505
0.18392
0.14061
0.074385
0.028535
-0.027505
-0.080997
-0.11411
-0.17525
-0.19562
-0.1676
-0.024958
0.25779
0.59403
0.96338
1.3047
1.6002
1.8345
1.9899
2.0791
2.0867
2.0383
1.9441
1.8116
1.6257
1.4448
1.2563
1.078
0.91498
0.76215
0.63224
0.53289
0.4361
0.35204
0.26543
0.19411
0.13297
0.061649
0.0081567
-0.05043
-0.10138
-0.15996
-0.2211
-0.27714
-0.29497
-0.24657
-0.073356
0.20684
0.54053
0.8997
1.2181
1.4907
1.6995
1.8447
1.9161
1.9186
1.8728
1.7632
1.618
1.4525
1.264
1.078
0.91243
0.75705
0.61695
0.50487
0.41062
0.32147
0.25015
0.18137
0.12024
0.054007
0.0030622
-0.05043
-0.098828
-0.15742
-0.2211
-0.25676
-0.31025
-0.34082
-0.31025
-0.16251
0.11005
0.46412
0.83856
1.2003
1.4958
1.7327
1.8982
1.995
2.0128
1.9746
1.8829
1.7377
1.5645
1.376
1.1952
1.0118
0.84875
0.7112
0.58638
0.48704
0.39534
0.30873
0.23996
0.17118
0.10495
0.041271
-0.0071269
-0.070808
-0.12685
-0.17779
-0.23638
-0.28478
-0.32553
-0.3612
-0.33827
-0.19817
0.076933
0.42591
0.81054
1.1646
1.4677
1.7123
1.8804
1.9721
1.995
1.9517
1.8549
1.7174
1.5442
1.3582
1.1824
1.0016
0.84875
0.7112
0.59403
0.48959
0.40808
0.33421
0.26543
0.19156
0.13043
0.069291
0.013251
-0.045336
-0.10902
-0.16251
-0.20836
-0.2644
-0.30006
-0.34591
-0.37648
-0.35355
-0.22874
0.031082
0.38006
0.77998
1.1646
1.4932
1.7505
1.9313
2.0332
2.0562
2.0281
1.9186
1.781
1.6129
1.4219
1.2283
1.0576
0.89206
0.75196
0.63224
0.53544
0.44883
0.36223
0.29345
0.22977
0.15844
0.089669
0.028535
-0.027505
-0.088639
-0.14468
-0.20581
-0.25166
-0.31025
-0.3561
-0.38922
-0.41978
-0.40195
-0.26695
0.015798
0.40298
0.82583
1.2232
1.5645
1.8218
2.0052
2.102
2.1071
2.0485
1.9364
1.7632
1.59
1.3939
1.2079
1.0296
0.88187
0.74431
0.63224
0.54053
0.45647
0.38006
0.31383
0.25015
0.18901
0.14316
0.092216
0.036177
-0.024958
-0.083545
-0.1294
-0.18289
-0.23383
-0.23893
-0.13449
0.10241
0.43864
0.83856
1.2079
1.5289
1.7785
1.9568
2.0383
2.0562
1.9899
1.8778
1.725
1.5492
1.3557
1.1646
0.9914
0.83347
0.69846
0.58129
0.49468
0.41062
0.34694
0.28071
0.23486
0.19156
0.14571
0.092216
0.043818
-0.0096741
-0.063167
-0.11411
-0.15996
-0.17525
-0.073356
0.16609
0.50487
0.90224
1.2869
1.6231
1.8753
2.0638
2.1784
2.2217
2.1861
2.0842
1.9364
1.7709
1.5696
1.3684
1.1723
1.0016
0.83856
0.70611
0.58893
0.48195
0.39279
0.31128
0.25269
0.18392
0.13807
0.066744
0.010704
-0.040241
-0.098828
-0.1676
-0.21345
-0.23383
-0.13704
0.069291
0.40043
0.76469
1.1391
1.4677
1.7199
1.9008
2.0205
2.0638
2.0383
1.9466
1.8142
1.6486
1.4601
1.269
1.0882
0.91753
0.7545
0.62714
0.50232
0.40298
0.31638
0.23232
0.16354
0.097311
0.038724
-0.019863
-0.068261
-0.13194
-0.18289
-0.24147
-0.29242
-0.33827
-0.37393
-0.36629
-0.23638
0.043818
0.41572
0.83092
1.213
1.5492
1.8193
2.0128
2.1198
2.1504
2.1249
2.0383
1.8957
1.7174
1.5314
1.3378
1.1417
0.97866
0.82583
0.68318
0.57365
0.46666
0.38515
0.29345
0.21958
0.16099
0.10495
0.046366
-0.014769
-0.070808
-0.1294
-0.18798
-0.24912
-0.29751
-0.32044
-0.28733
-0.11666
0.17628
0.53799
0.91753
1.2589
1.5492
1.7709
1.9135
1.9899
1.9925
1.9364
1.8218
1.6639
1.4856
1.2996
1.1213
0.9481
0.80035
0.66026
0.54053
0.44629
0.35968
0.27562
0.2043
0.14316
0.074385
0.013251
-0.05043
-0.10138
-0.16506
-0.2211
-0.26185
-0.33063
-0.36629
-0.36629
-0.29242
-0.065714
0.26034
0.64497
1.0092
1.348
1.6155
1.7912
1.8982
1.9262
1.8829
1.7989
1.6435
1.4754
1.3022
1.1239
0.96083
0.81564
0.67809
0.58129
0.48449
0.40298
0.33675
0.26798
0.22977
0.17118
0.12533
0.069291
0.015798
-0.032599
-0.080997
-0.14468
-0.18289
-0.18544
-0.091186
0.12024
0.44883
0.81054
1.1519
1.4474
1.6843
1.8345
1.911
1.9313
1.8778
1.7709
1.6104
1.4372
1.2512
1.0704
0.8946
0.75196
0.63224
0.52525
0.44119
0.37751
0.31128
0.27052
0.21958
0.17882
0.13807
0.089669
0.043818
-0.0045796
-0.052978
-0.096281
-0.11156
-0.045336
0.14316
0.45138
0.82583
1.1824
1.5009
1.776
1.967
2.0918
2.1402
2.1224
2.0409
1.9186
1.7556
1.5696
1.376
1.1799
0.99904
0.84875
0.71884
0.58638
0.48959
0.40043
0.31383
0.23741
0.17882
0.11259
0.059102
-0.0045796
-0.060619
-0.1243
-0.17525
-0.22619
-0.27714
-0.27459
-0.17525
0.043818
0.36732
0.73667
1.0984
1.4193
1.6817
1.8651
1.9925
2.0409
2.0332
1.9415
1.8269
1.6562
1.4703
1.269
1.0907
0.91498
0.7596
0.62714
0.50997
0.42336
0.33166
0.26034
0.17882
0.12533
0.061649
-0.0071269
-0.063167
-0.1243
-0.1727
-0.23383
-0.28478
-0.32808
-0.36374
-0.32299
-0.16251
0.11005
0.47685
0.85639
1.2054
1.5136
1.753
1.9237
2.0205
2.0409
2.0078
1.9033
1.7556
1.59
1.4091
1.2283
1.0398
0.87932
0.74941
0.6195
0.50742
0.41827
0.32656
0.25524
0.19411
0.12278
0.061649
0.0005149
-0.063167
-0.11411
-0.16506
-0.22364
-0.26949
-0.31535
-0.32808
-0.24657
-0.027505
0.28071
0.62969
0.99904
1.32
1.5798
1.7785
1.9135
1.9695
1.9594
1.8906
1.7632
1.6155
1.4295
1.2461
1.0755
0.91498
0.77488
0.64242
0.5278
0.43864
0.35204
0.28326
0.21703
0.14571
0.089669
0.033629
-0.019863
-0.075903
-0.13449
-0.18798
-0.23893
-0.28478
-0.32808
-0.34591
-0.28733
-0.11666
0.16609
0.5278
0.89715
1.2487
1.5391
1.7658
1.9059
1.9848
1.9925
1.9313
1.8218
1.6766
1.4958
1.3098
1.1417
0.97102
0.81564
0.68827
0.58384
0.47176
0.39534
0.30873
0.2476
0.18901
0.12788
0.061649
0.0056094
-0.060619
-0.11666
-0.16251
-0.21855
-0.26695
-0.31789
-0.35355
-0.34591
-0.24147
-0.014769
0.31638
0.68827
1.05
1.3658
1.6231
1.7861
1.8804
1.9084
1.8651
1.7658
1.6206
1.4448
1.2792
1.0933
0.93026
0.79526
0.67299
0.5711
0.48959
0.40808
0.33421
0.28581
0.22722
0.17628
0.12024
0.076933
0.02344
-0.024958
-0.080997
-0.13958
-0.18289
-0.2211
-0.216
-0.10647
0.12533
0.45902
0.84111
1.1926
1.5187
1.7607
1.9364
2.0281
2.0562
2.0103
1.9059
1.7632
1.59
1.4015
1.2207
1.0322
0.87677
0.74177
0.63224
0.52525
0.44374
0.38006
0.30873
0.25524
0.20175
0.14316
0.089669
0.036177
-0.019863
-0.070808
-0.13449
-0.18289
-0.21091
-0.15232
0.02344
0.31638
0.68318
1.0474
1.3862
1.6766
1.8931
2.0383
2.1071
2.1147
2.0409
1.9441
1.7836
1.6104
1.4091
1.2232
1.0296
0.87168
0.71884
0.59403
0.48449
0.3826
0.30364
0.22722
0.16099
0.094763
0.036177
-0.027505
-0.07845
-0.13704
-0.19562
-0.25676
-0.30261
-0.34846
-0.33572
-0.22364
0.036177
0.39279
0.78507
1.1519
1.483
1.7479
1.9364
2.0511
2.0918
2.0663
1.9848
1.8447
1.6715
1.4728
1.2741
1.078
0.90734
0.74686
0.60931
0.49723
0.39789
0.31638
0.23996
0.16609
0.10495
0.046366
-0.014769
-0.063167
-0.11921
-0.17779
-0.22364
-0.27968
-0.33063
-0.37393
-0.3612
-0.22364
0.048913
0.40808
0.8029
1.185
1.5059
1.7658
1.9568
2.0587
2.0995
2.0638
1.9772
1.8345
1.6664
1.483
1.2894
1.1009
0.93791
0.77998
0.64752
0.53289
0.4361
0.35713
0.28581
0.20939
0.15335
0.097311
0.033629
-0.024958
-0.075903
-0.14468
-0.19053
-0.24402
-0.29751
-0.33572
-0.3077
-0.16251
0.11005
0.47431
0.85639
1.2207
1.5238
1.7683
1.9288
2.0052
2.0154
1.9594
1.8447
1.6995
1.5187
1.3353
1.134
0.96593
0.80545
0.6679
0.55327
0.45138
0.35713
0.28071
0.20939
0.14316
0.076933
0.020893
-0.045336
-0.093734
-0.15232
-0.20836
-0.28223
-0.33572
-0.37138
-0.42488
-0.42488
-0.3128
-0.070808
0.28326
0.69082
1.0729
1.4244
1.6868
1.8651
1.9695
1.995
1.9364
1.8422
1.6893
1.5034
1.32
1.1417
0.97612
0.81564
0.68318
0.5711
0.47431
0.39025
0.32911
0.25524
0.20939
0.15844
0.10241
0.059102
0.010704
-0.040241
-0.093734
-0.14213
-0.20072
-0.23638
-0.20327
-0.063167
0.21448
0.57874
0.95828
1.32
1.6129
1.832
1.9797
2.0383
2.0332
1.9594
1.8294
1.6639
1.4703
1.2818
1.1009
0.93536
0.77998
0.65771
0.56091
0.46921
0.40808
0.34185
0.28836
0.23486
0.18901
0.13552
0.087122
0.038724
0.0005149
-0.052978
-0.11156
-0.14213
-0.098828
0.087122
0.39789
0.7596
1.1468
1.4907
1.7709
1.995
2.1224
2.1886
2.1733
2.1096
1.9772
1.8142
1.6359
1.4321
1.2334
1.0551
0.89715
0.75196
0.62205
0.51761
0.41827
0.34694
0.26543
0.21194
0.14316
0.084574
0.031082
-0.030052
-0.091186
-0.15487
-0.21091
-0.2644
-0.29497
-0.25166
-0.086092
0.20175
0.58129
0.96847
1.3276
1.6282
1.8753
2.0256
2.1147
2.1351
2.0714
1.9594
1.8142
1.6409
1.4474
1.2487
1.0627
0.90479
0.74177
0.62205
0.51506
0.41827
0.33421
0.25779
0.18646
0.12533
0.059102
-0.0020324
-0.068261
-0.12175
-0.18034
-0.23129
-0.30261
-0.34082
-0.34591
-0.25166
-0.024958
0.30873
0.69592
1.0602
1.3939
1.6766
1.8753
2.0001
2.0587
2.0383
1.9568
1.8371
1.6741
1.4779
1.292
1.0882
0.91753
0.76215
0.63224
0.50742
0.40298
0.31128
0.23741
0.17882
0.10495
0.043818
-0.02241
-0.070808
-0.13194
-0.19053
-0.25421
-0.30261
-0.3561
-0.39686
-0.37393
-0.23383
0.054007
0.40808
0.808
1.1773
1.4856
1.7225
1.8906
1.9823
1.9925
1.9313
1.8345
1.6817
1.511
1.3251
1.134
0.95319
0.81309
0.68063
0.56601
0.46921
0.3877
0.30619
0.23232
0.17373
0.1075
0.038724
-0.014769
-0.073356
-0.12685
-0.18798
-0.24657
-0.31535
-0.35865
-0.3561
-0.23383
0.020893
0.38006
0.77233
1.1519
1.4626
1.7021
1.8778
1.9568
1.9721
1.9135
1.8167
1.6639
1.4754
1.2792
1.1009
0.92262
0.76724
0.63988
0.5278
0.44883
0.37751
0.32656
0.27817
0.23232
0.19411
0.16354
0.11769
0.07948
0.025987
-0.019863
-0.060619
-0.063167
0.048913
0.27562
0.58384
0.93026
1.264
1.5569
1.776
1.9313
2.0205
2.0409
2.0001
1.9059
1.7632
1.5976
1.4066
1.2181
1.0372
0.85639
0.71629
0.57365
0.46666
0.37241
0.29345
0.22213
0.16099
0.10241
0.043818
-0.0045796
-0.063167
-0.1243
-0.18034
-0.23129
-0.22364
-0.11156
0.11769
0.43864
0.79017
1.1239
1.4142
1.6435
1.8116
1.8957
1.9161
1.8702
1.7912
1.6384
1.4856
1.2894
1.1086
0.92008
0.77233
0.6195
0.48959
0.39025
0.29854
0.21958
0.16099
0.092216
0.041271
-0.0071269
-0.065714
-0.11156
-0.1676
-0.2211
-0.2644
-0.32553
-0.34337
-0.32044
-0.18034
0.087122
0.44374
0.82583
1.185
1.5034
1.7403
1.9211
2.023
2.0485
2.0154
1.9211
1.7734
1.6155
1.427
1.2359
1.0474
0.88951
0.74431
0.6144
0.51251
0.42081
0.3393
0.26543
0.20684
0.14316
0.082027
0.02344
-0.040241
-0.091186
-0.13958
-0.19308
-0.23893
-0.26185
-0.23893
-0.098828
0.16354
0.50232
0.86404
1.1926
1.4754
1.6995
1.8549
1.939
1.9415
1.8982
1.804
1.669
1.4983
1.3251
1.1442
0.97866
0.82073
0.68827
0.57365
0.47431
0.39279
0.32402
0.26034
0.1992
0.13807
0.082027
0.025987
-0.024958
-0.065714
-0.1243
-0.15742
-0.20836
-0.24402
-0.216
-0.091186
0.1508
0.46157
0.80035
1.1188
1.3811
1.5722
1.7021
1.7734
1.7607
1.7021
1.5951
1.4499
1.292
1.1162
0.9481
0.79526
0.66026
0.54818
0.45902
0.37241
0.31383
0.25779
0.20175
0.16354
0.12024
0.089669
0.043818
0.0056094
-0.032599
-0.070808
-0.10902
-0.14723
-0.1727
-0.16251
-0.093734
0.097311
0.36732
0.67044
0.97357
1.2385
1.4295
1.5671
1.6282
1.6409
1.5976
1.4932
1.3506
1.2003
1.0372
0.87932
0.73667
0.60931
0.51761
0.431
0.3826
0.32402
0.28326
0.2425
0.21958
0.18901
0.16099
0.12278
0.099858
0.066744
0.036177
0.0030622
-0.030052
-0.068261
-0.080997
-0.058072
0.038724
0.2425
0.51251
0.81054
1.1009
1.3302
1.5034
1.6078
1.646
1.6257
1.5518
1.4448
1.2869
1.1239
0.95828
0.79526
0.67044
0.55582
0.47685
0.41317
0.36987
0.32656
0.30619
0.28071
0.26543
0.23486
0.22213
0.19411
0.18137
0.14571
0.11005
0.07948
0.059102
0.028535
0.015798
0.020893
0.11259
0.29854
0.56601
0.86404
1.1417
1.3658
1.5314
1.6384
1.6715
1.6282
1.5467
1.4142
1.269
1.1009
0.95319
0.80545
0.68827
0.59148
0.52525
0.47176
0.43355
0.40808
0.38515
0.3826
0.36477
0.34694
0.32911
0.31383
0.2909
0.27052
0.23741
0.21448
0.18137
0.18137
0.22722
0.36987
0.60931
0.87677
1.1391
1.3811
1.5594
1.669
1.725
1.7174
1.6486
1.5416
1.4066
1.2512
1.078
0.93536
0.79526
0.67809
0.59912
0.52525
0.4794
0.45647
0.431
0.41572
0.40298
0.3826
0.35713
0.33675
0.32147
0.296
0.26798
0.23996
0.21194
0.18392
0.17882
0.22722
0.37241
0.59148
0.86658
1.1519
1.4015
1.5926
1.7276
1.7861
1.8014
1.7454
1.6511
1.5263
1.3658
1.2079
1.0398
0.89715
0.77233
0.66535
0.59657
0.52525
0.48195
0.45138
0.42845
0.39789
0.37241
0.34949
0.33421
0.31383
0.28581
0.2425
0.21448
0.17882
0.15335
0.14316
0.17118
0.29345
0.50487
0.76469
1.0398
1.2843
1.4779
1.6206
1.6944
1.7148
1.6817
1.6002
1.4983
1.3429
1.1926
1.0296
0.88951
0.77233
0.66535
0.57874
0.50997
0.46921
0.431
0.40553
0.3826
0.35968
0.33675
0.31638
0.28581
0.26288
0.23741
0.20939
0.17373
0.15335
0.12533
0.14316
0.19665
0.36987
0.59912
0.88441
1.1468
1.3684
1.5314
1.6511
1.6868
1.6843
1.6129
1.5212
1.3837
1.2232
1.0602
0.92517
0.79017
0.69337
0.60167
0.53799
0.49214
0.46157
0.4361
0.42591
0.40808
0.38515
0.35713
0.34185
0.31383
0.2909
0.25524
0.22722
0.1992
0.16354
0.15844
0.16354
0.26034
0.46157
0.70356
0.96593
1.213
1.4015
1.534
1.618
1.6435
1.5976
1.5212
1.4015
1.2665
1.1111
0.96338
0.83856
0.73158
0.64242
0.56346
0.51761
0.48195
0.45902
0.431
0.41062
0.39534
0.37751
0.35204
0.32402
0.29345
0.25524
0.22467
0.2043
0.17118
0.14571
0.12533
0.1508
0.25779
0.45138
0.69592
0.97612
1.2257
1.4142
1.5594
1.6257
1.6486
1.6104
1.5187
1.3862
1.2436
1.0933
0.94045
0.81054
0.70611
0.62714
0.55582
0.50997
0.48195
0.46666
0.44883
0.42845
0.40808
0.39534
0.36987
0.34439
0.32147
0.28836
0.26034
0.24505
0.21958
0.19411
0.18137
0.23996
0.36477
0.57874
0.83092
1.078
1.2945
1.4575
1.562
1.5976
1.5875
1.5212
1.4041
1.2665
1.1111
0.95319
0.82073
0.71375
0.6195
0.55327
0.50742
0.47431
0.44629
0.44374
0.42591
0.40808
0.40553
0.39025
0.36732
0.33421
0.31128
0.28326
0.26034
0.22977
0.22213
0.27307
0.41572
0.63224
0.8946
1.129
1.3557
1.5161
1.6078
1.6537
1.6435
1.5773
1.4677
1.3404
1.1748
1.0296
0.87932
0.74941
0.65516
0.57874
0.53034
0.48959
0.46412
0.43864
0.431
0.42336
0.39534
0.39279
0.36223
0.34694
0.32147
0.28581
0.25524
0.23741
0.2043
0.2043
0.27052
0.42845
0.67044
0.93536
1.1977
1.4295
1.6002
1.7123
1.7785
1.7658
1.7174
1.6308
1.5034
1.3557
1.1977
1.0525
0.90479
0.79017
0.69592
0.62714
0.55836
0.52525
0.47685
0.45393
0.41827
0.40043
0.37241
0.34949
0.30873
0.2909
0.2476
0.22213
0.19156
0.16609
0.19156
0.28071
0.44883
0.67554
0.93281
1.1697
1.3506
1.4983
1.5773
1.618
1.6027
1.5467
1.4474
1.3174
1.1875
1.0347
0.89206
0.77743
0.67044
0.59148
0.55072
0.49978
0.46412
0.4361
0.40808
0.3826
0.35458
0.32911
0.30873
0.28071
0.24505
0.20939
0.17628
0.1559
0.13807
0.15844
0.25269
0.4361
0.68063
0.94045
1.1824
1.3939
1.5442
1.6384
1.6817
1.6664
1.6129
1.5034
1.3837
1.2436
1.0958
0.96338
0.83602
0.73413
0.65516
0.59403
0.53544
0.50487
0.46921
0.43355
0.40298
0.36732
0.34439
0.31128
0.27817
0.2476
0.2043
0.17882
0.14571
0.12278
0.11769
0.17373
0.30619
0.52016
0.77998
1.022
1.2461
1.4168
1.5391
1.6053
1.618
1.5798
1.4983
1.3837
1.2436
1.1111
0.95828
0.8462
0.73413
0.65007
0.58129
0.5278
0.49468
0.45647
0.42845
0.3877
0.36477
0.33421
0.29854
0.27052
0.23486
0.19411
0.16354
0.14061
0.11259
0.092216
0.10495
0.19156
0.36477
0.60167
0.86658
1.1035
1.3073
1.4575
1.5492
1.5773
1.5594
1.5034
1.3964
1.2589
1.1111
0.96593
0.83602
0.71629
0.62714
0.55582
0.49214
0.45138
0.41827
0.37241
0.34439
0.32402
0.28836
0.27307
0.25015
0.21194
0.18137
0.1559
0.11259
0.087122
0.069291
0.056555
0.097311
0.23232
0.4361
0.69082
0.95064
1.1646
1.3404
1.4575
1.5238
1.5187
1.4652
1.376
1.2461
1.1009
0.95828
0.82583
0.7112
0.62205
0.55327
0.49978
0.46412
0.4361
0.42336
0.40043
0.37496
0.34439
0.32911
0.30364
0.27562
0.2425
0.20939
0.17373
0.14316
0.13552
0.17373
0.30873
0.52525
0.78507
1.0551
1.2869
1.4601
1.59
1.6511
1.669
1.6409
1.5569
1.4448
1.3047
1.1697
1.0271
0.88696
0.79017
0.70356
0.62205
0.57874
0.53289
0.48195
0.46157
0.42336
0.3877
0.36732
0.32656
0.296
0.26034
0.22467
0.19411
0.14826
0.13043
0.14571
0.24505
0.43864
0.69337
0.96338
1.2207
1.4321
1.5926
1.6995
1.7352
1.7479
1.6944
1.6078
1.5009
1.3608
1.2054
1.0678
0.92772
0.81819
0.72139
0.64497
0.56855
0.5278
0.46921
0.4361
0.38515
0.35713
0.31638
0.28071
0.23996
0.20175
0.15844
0.12278
0.094763
0.071838
0.094763
0.21194
0.40808
0.66026
0.92517
1.1646
1.3608
1.5136
1.6155
1.6537
1.6409
1.5951
1.4983
1.3709
1.2257
1.0806
0.943
0.81819
0.71375
0.63988
0.57874
0.51506
0.46666
0.42336
0.37751
0.33675
0.296
0.26543
0.22722
0.18137
0.14316
0.099858
0.071838
0.033629
0.036177
0.074385
0.20175
0.40808
0.67299
0.95064
1.1977
1.4041
1.5467
1.6486
1.6893
1.6741
1.6129
1.5187
1.3964
1.2512
1.1111
0.96593
0.8513
0.74431
0.6628
0.57874
0.5227
0.46412
0.41827
0.37751
0.33675
0.30364
0.26288
0.21703
0.16863
0.13807
0.087122
0.059102
0.015798
0.010704
0.013251
0.11005
0.2909
0.54053
0.808
1.0576
1.269
1.4372
1.5492
1.6053
1.5951
1.5645
1.4703
1.3429
1.2105
1.0653
0.92772
0.81309
0.70356
0.60931
0.53034
0.47685
0.42591
0.3877
0.34439
0.30619
0.26543
0.23232
0.18646
0.1559
0.11769
0.076933
0.036177
-0.0045796
-0.032599
-0.058072
-0.027505
0.1075
0.30364
0.58129
0.84875
1.0933
1.3047
1.4601
1.5416
1.5824
1.5594
1.4856
1.3811
1.2436
1.0984
0.9481
0.808
0.69846
0.60167
0.52016
0.47431
0.41572
0.3826
0.34185
0.31128
0.27562
0.24505
0.21703
0.17373
0.14061
0.10495
0.064196
0.041271
0.0005149
-0.0071269
-0.0045796
0.076933
0.24505
0.48959
0.7545
1.022
1.2359
1.3964
1.4907
1.5442
1.5391
1.4754
1.3633
1.2334
1.0882
0.9481
0.81819
0.71375
0.61186
0.54053
0.48959
0.45902
0.41827
0.39534
0.36477
0.3393
0.31383
0.2909
0.26543
0.23486
0.1992
0.17628
0.13807
0.12278
0.14061
0.22213
0.39534
0.65516
0.92008
1.1773
1.3964
1.5518
1.6664
1.7097
1.7148
1.6664
1.5645
1.4423
1.2843
1.134
0.98121
0.84111
0.73667
0.6628
0.58893
0.53034
0.48195
0.44374
0.41572
0.38515
0.34439
0.31892
0.28326
0.23996
0.20175
0.16354
0.13297
0.12278
0.1559
0.2909
0.49978
0.77488
1.0398
1.269
1.455
1.6002
1.6893
1.7072
1.6893
1.6384
1.5263
1.3888
1.2436
1.0831
0.95828
0.83092
0.72139
0.62969
0.56601
0.50487
0.46157
0.41827
0.37751
0.34694
0.30619
0.26798
0.22213
0.17628
0.14316
0.10241
0.069291
0.028535
0.013251
0.028535
0.12278
0.34185
0.59657
0.88441
1.1621
1.3913
1.5645
1.7021
1.7607
1.7734
1.7301
1.6511
1.5391
1.3888
1.2308
1.0907
0.95319
0.83347
0.73158
0.65261
0.58129
0.51506
0.46412
0.41317
0.36732
0.31638
0.27562
0.22467
0.18646
0.13807
0.099858
0.05146
0.013251
-0.014769
-0.014769
0.041271
0.2043
0.44629
0.72903
1.0016
1.2461
1.4397
1.5798
1.6817
1.7046
1.6792
1.6206
1.5034
1.376
1.2232
1.0729
0.93536
0.82583
0.7112
0.63224
0.55836
0.49978
0.44119
0.39025
0.35204
0.30619
0.26798
0.22977
0.18392
0.14061
0.099858
0.05146
0.018346
-0.012221
-0.040241
-0.030052
0.046366
0.23741
0.49723
0.79526
1.0627
1.3174
1.4983
1.6333
1.6995
1.7123
1.6868
1.6002
1.4856
1.3276
1.1799
1.0372
0.8997
0.76979
0.67299
0.59148
0.5227
0.46157
0.40298
0.34694
0.30109
0.26034
0.21448
0.18392
0.13552
0.087122
0.05146
0.0030622
-0.045336
-0.07845
-0.093734
-0.091186
-0.014769
0.15844
0.42081
0.71884
0.99649
1.2436
1.4346
1.5645
1.6282
1.6486
1.6002
1.5136
1.3811
1.2385
1.0882
0.93536
0.808
0.70356
0.60931
0.53289
0.48195
0.43864
0.39534
0.35458
0.31383
0.27307
0.24505
0.1992
0.16863
0.11769
0.07948
0.05146
0.018346
-0.014769
-0.017316
0.010704
0.14316
0.36732
0.66026
0.94045
1.213
1.4372
1.5824
1.6817
1.7174
1.6944
1.6155
1.5034
1.3608
1.2028
1.05
0.90989
0.78762
0.68827
0.60676
0.53289
0.48449
0.44629
0.40553
0.36987
0.33675
0.29854
0.27562
0.23232
0.19156
0.14826
0.11005
0.061649
0.05146
0.082027
0.22213
0.44883
0.73158
1.0118
1.269
1.4856
1.6537
1.7479
1.7887
1.776
1.7225
1.6308
1.4881
1.3429
1.185
1.0296
0.88696
0.76979
0.6628
0.58129
0.51761
0.45393
0.39789
0.34694
0.30364
0.26543
0.22213
0.17118
0.12788
0.084574
0.036177
0.0005149
-0.037694
-0.05043
-0.017316
0.13043
0.36477
0.6628
0.96593
1.2538
1.4805
1.6588
1.7734
1.8294
1.8371
1.7709
1.6741
1.5467
1.3786
1.2079
1.0372
0.89715
0.77233
0.65007
0.56855
0.48959
0.431
0.37496
0.32402
0.28326
0.23232
0.18901
0.14316
0.1075
0.064196
0.010704
-0.02241
-0.063167
-0.088639
-0.07845
0.0081567
0.21448
0.48704
0.80035
1.0958
1.3506
1.5569
1.7046
1.7836
1.8091
1.776
1.6919
1.5798
1.4244
1.264
1.106
0.94555
0.81054
0.69082
0.59148
0.51506
0.45393
0.38515
0.33675
0.28836
0.23232
0.20175
0.1559
0.11005
0.071838
0.02344
-0.0096741
-0.052978
-0.086092
-0.10392
-0.063167
0.099858
0.35458
0.67044
0.98376
1.2538
1.4932
1.6639
1.7632
1.804
1.7963
1.7276
1.618
1.4856
1.3251
1.1595
1.0169
0.86404
0.75196
0.65261
0.5711
0.48704
0.43355
0.37751
0.32147
0.27052
0.22213
0.17882
0.13043
0.087122
0.041271
-0.0045796
-0.047883
-0.093734
-0.11411
-0.1243
-0.070808
0.11769
0.37241
0.69337
1.0067
1.2665
1.5009
1.6486
1.7403
1.7709
1.7327
1.6435
1.5212
1.3633
1.2028
1.0449
0.89715
0.76979
0.65771
0.5711
0.49723
0.43864
0.3826
0.33421
0.28326
0.2425
0.20684
0.16609
0.12024
0.07948
0.043818
0.0081567
-0.042789
-0.073356
-0.093734
-0.075903
0.043818
0.25524
0.55836
0.87168
1.1621
1.4091
1.59
1.6995
1.7352
1.7072
1.6384
1.5263
1.3582
1.1952
1.0372
0.88441
0.76979
0.65771
0.5711
0.50232
0.44883
0.40298
0.36477
0.32656
0.2909
0.25015
0.21958
0.17373
0.14571
0.11514
0.069291
0.036177
0.015798
0.056555
0.18901
0.43355
0.73413
1.0525
1.3251
1.5594
1.7276
1.832
1.8728
1.8575
1.781
1.6715
1.5187
1.3557
1.185
1.0372
0.90224
0.78507
0.68063
0.59657
0.54053
0.48195
0.42845
0.39279
0.35204
0.30873
0.26288
0.22467
0.17628
0.12278
0.076933
0.041271
0.046366
0.14061
0.32911
0.60676
0.90479
1.1977
1.455
1.6537
1.7963
1.8753
1.8982
1.8524
1.776
1.6409
1.4856
1.32
1.157
0.99395
0.8513
0.73158
0.64497
0.55327
0.48195
0.42591
0.36223
0.31383
0.25779
0.20939
0.15844
0.11005
0.07948
0.025987
-0.012221
-0.060619
-0.10138
-0.10647
-0.030052
0.1508
0.4361
0.73922
1.0602
1.3404
1.5849
1.7556
1.8677
1.9186
1.911
1.8524
1.753
1.6078
1.4499
1.2818
1.129
0.99395
0.85894
0.75196
0.65516
0.58893
0.49214
0.42845
0.35713
0.30873
0.25524
0.2043
0.13297
0.087122
0.031082
-0.019863
-0.052978
-0.096281
-0.11666
-0.055525
0.11259
0.36732
0.6628
0.95574
1.2181
1.4423
1.6104
1.7174
1.753
1.753
1.6817
1.5798
1.4423
1.2843
1.1239
0.96338
0.82837
0.70356
0.59912
0.50997
0.44629
0.3826
0.32402
0.26798
0.21958
0.16099
0.11769
0.056555
0.018346
-0.032599
-0.07845
-0.11921
-0.16506
-0.18289
-0.13704
-0.0096741
0.22467
0.53034
0.83856
1.1239
1.3633
1.5391
1.6664
1.7148
1.7225
1.6613
1.5569
1.4219
1.2614
1.1162
0.95064
0.82073
0.69592
0.59912
0.49978
0.43864
0.36987
0.30619
0.2476
0.1992
0.13807
0.094763
0.038724
-0.0020324
-0.042789
-0.093734
-0.14213
-0.17779
-0.20072
-0.21091
-0.16251
-0.0020324
0.25015
0.5711
0.88441
1.1697
1.399
1.5747
1.6766
1.7199
1.6919
1.6129
1.4907
1.3506
1.1875
1.0296
0.88696
0.7545
0.63988
0.56091
0.49468
0.431
0.37751
0.32147
0.27562
0.23232
0.18901
0.14826
0.097311
0.054007
0.018346
-0.02241
-0.060619
-0.096281
-0.11411
-0.093734
0.046366
0.28071
0.57874
0.89715
1.2003
1.4397
1.6308
1.7556
1.7963
1.7963
1.7276
1.618
1.4881
1.3251
1.1748
1.0271
0.88187
0.77488
0.6679
0.58638
0.51761
0.45647
0.40043
0.34694
0.296
0.25015
0.20175
0.1508
0.11005
0.056555
0.0081567
-0.027505
-0.040241
0.0005149
0.14826
0.39534
0.69337
1.0041
1.269
1.511
1.669
1.781
1.8294
1.804
1.7505
1.6409
1.4932
1.3251
1.157
1.0016
0.8513
0.73413
0.62205
0.53544
0.44883
0.39279
0.33421
0.28326
0.22722
0.18901
0.14826
0.092216
0.056555
0.0030622
-0.030052
-0.088639
-0.1243
-0.13958
-0.10647
0.048913
0.296
0.62205
0.95064
1.2512
1.4983
1.6919
1.8218
1.8804
1.8778
1.8244
1.7199
1.5875
1.4117
1.2436
1.0806
0.92008
0.78252
0.66535
0.5711
0.48449
0.41572
0.35204
0.28836
0.22977
0.18646
0.12788
0.071838
0.033629
-0.024958
-0.073356
-0.12175
-0.16251
-0.19817
-0.18544
-0.083545
0.13807
0.45393
0.77998
1.0882
1.3735
1.5773
1.7301
1.8065
1.8422
1.8014
1.7097
1.5824
1.427
1.2589
1.0958
0.943
0.80545
0.68573
0.58129
0.49978
0.42336
0.35713
0.29854
0.25015
0.19665
0.14316
0.10241
0.061649
0.010704
-0.027505
-0.07845
-0.1294
-0.15996
-0.19053
-0.16251
-0.0096741
0.25269
0.5711
0.91753
1.2436
1.5085
1.7097
1.832
1.8855
1.8906
1.8269
1.7225
1.5798
1.4066
1.241
1.0755
0.91753
0.79526
0.67809
0.58384
0.49214
0.42845
0.36987
0.30873
0.25269
0.1992
0.14571
0.089669
0.041271
-0.019863
-0.068261
-0.12175
-0.16251
-0.20836
-0.22619
-0.17779
-0.019863
0.23996
0.5762
0.92517
1.2257
1.4958
1.6715
1.7938
1.8396
1.8244
1.7454
1.6409
1.4907
1.3251
1.1519
1.0016
0.85894
0.72903
0.62459
0.54308
0.46921
0.41062
0.35458
0.30364
0.25269
0.2043
0.16354
0.12024
0.07948
0.02344
-0.032599
-0.073356
-0.10647
-0.098828
0.010704
0.23996
0.53544
0.8513
1.1672
1.4168
1.6002
1.7072
1.753
1.7403
1.6613
1.5365
1.3939
1.2257
1.0704
0.92262
0.78507
0.6628
0.58129
0.49978
0.43864
0.39279
0.34185
0.30109
0.26288
0.21448
0.18137
0.14316
0.10241
0.061649
0.010704
-0.030052
-0.075903
-0.11666
-0.10902
-0.030052
0.16354
0.48449
0.83347
1.185
1.5009
1.753
1.9339
2.0332
2.074
2.0511
1.9645
1.8371
1.6843
1.5034
1.3302
1.1595
1.0016
0.85639
0.74941
0.64242
0.55836
0.48959
0.42845
0.36987
0.30873
0.26034
0.2043
0.15335
0.10495
0.043818
-0.0071269
-0.055525
-0.07845
-0.027505
0.14061
0.41572
0.72903
1.0474
1.3378
1.5773
1.753
1.8677
1.9262
1.9084
1.8422
1.7301
1.59
1.4142
1.241
1.0755
0.91753
0.77233
0.65771
0.55836
0.47176
0.40043
0.32656
0.26543
0.21703
0.16863
0.12278
0.061649
0.025987
-0.030052
-0.083545
-0.12685
-0.18034
-0.20836
-0.19562
-0.080997
0.1508
0.48959
0.84366
1.1799
1.4754
1.7021
1.8778
1.9568
1.9925
1.9517
1.8702
1.7276
1.562
1.3862
1.2105
1.0423
0.88696
0.76979
0.65007
0.55582
0.46412
0.39789
0.33675
0.27817
0.2043
0.15335
0.099858
0.038724
-0.0045796
-0.063167
-0.11921
-0.17015
-0.20836
-0.24912
-0.23383
-0.1294
0.11005
0.42336
0.76724
1.0958
1.376
1.6053
1.7505
1.8498
1.86
1.8269
1.7428
1.6053
1.4423
1.2665
1.1086
0.94555
0.80545
0.67809
0.5762
0.48449
0.41062
0.34185
0.296
0.2425
0.18901
0.12788
0.087122
0.028535
-0.014769
-0.065714
-0.11666
-0.1727
-0.20327
-0.22364
-0.1676
-0.0071269
0.27307
0.60167
0.94555
1.2563
1.5034
1.6944
1.7963
1.8396
1.8218
1.7428
1.6206
1.4703
1.3047
1.1493
0.99649
0.85894
0.73413
0.63478
0.55327
0.48449
0.41827
0.37496
0.32402
0.26543
0.22467
0.17882
0.12788
0.074385
0.028535
-0.019863
-0.060619
-0.10902
-0.1294
-0.075903
0.069291
0.32402
0.64752
0.97866
1.2843
1.5314
1.7276
1.8575
1.911
1.9033
1.832
1.7301
1.5849
1.4219
1.241
1.0856
0.93536
0.79271
0.68063
0.58129
0.49978
0.42845
0.36477
0.29854
0.25524
0.20684
0.1508
0.099858
0.048913
-0.012221
-0.052978
-0.098828
-0.14723
-0.18034
-0.15487
-0.027505
0.22977
0.55836
0.91243
1.2385
1.534
1.7454
1.9059
1.9976
2.0154
1.9772
1.888
1.753
1.5951
1.4372
1.2614
1.0882
0.93026
0.81054
0.68573
0.58384
0.49723
0.41572
0.34185
0.28071
0.21194
0.1508
0.10495
0.048913
-0.0096741
-0.068261
-0.1243
-0.17779
-0.216
-0.22874
-0.17779
0.0056094
0.28836
0.62459
0.96338
1.269
1.5161
1.7174
1.8269
1.8855
1.8778
1.8193
1.7148
1.5645
1.4041
1.2257
1.0729
0.91498
0.77743
0.65771
0.55836
0.46666
0.39534
0.31892
0.25779
0.19156
0.13807
0.082027
0.02344
-0.035147
-0.083545
-0.14213
-0.19308
-0.24402
-0.27714
-0.30006
-0.26695
-0.11156
0.1559
0.50232
0.86658
1.1952
1.4779
1.6944
1.8294
1.888
1.8778
1.8294
1.7148
1.5671
1.4091
1.2436
1.0729
0.93536
0.79781
0.68573
0.58384
0.50487
0.43355
0.36987
0.31383
0.25524
0.19411
0.14826
0.099858
0.048913
-0.0020324
-0.052978
-0.083545
-0.12685
-0.17015
-0.18034
-0.12175
0.056555
0.33421
0.67044
1.0041
1.2945
1.5314
1.7072
1.804
1.8396
1.8142
1.7301
1.6206
1.4703
1.292
1.1366
0.98885
0.8462
0.72903
0.63224
0.55072
0.48704
0.41827
0.36477
0.31128
0.27307
0.21448
0.17882
0.12788
0.076933
0.031082
-0.02241
-0.070808
-0.10902
-0.12685
-0.065714
0.10241
0.3826
0.70611
1.0576
1.3531
1.6231
1.8065
1.9466
2.0001
2.0027
1.9517
1.8422
1.7021
1.5289
1.3531
1.1799
1.0169
0.87168
0.74686
0.63733
0.55327
0.46412
0.39534
0.32656
0.26543
0.21448
0.1559
0.099858
0.031082
-0.019863
-0.07845
-0.13194
-0.18798
-0.21345
-0.1727
-0.030052
0.23232
0.56601
0.90734
1.2283
1.5009
1.7123
1.8651
1.9415
1.9543
1.911
1.8142
1.6792
1.5187
1.348
1.1697
1.0016
0.8513
0.7112
0.58893
0.48959
0.40043
0.33675
0.25524
0.19411
0.13297
0.07948
0.018346
-0.042789
-0.091186
-0.14723
-0.19817
-0.24912
-0.29242
-0.3128
-0.27459
-0.1243
0.16099
0.50997
0.87422
1.2207
1.4932
1.7199
1.8753
1.9543
1.967
1.9237
1.8294
1.6995
1.5365
1.3557
1.1824
1.0118
0.85385
0.73413
0.60931
0.51251
0.41827
0.35458
0.27562
0.21703
0.14316
0.089669
0.028535
-0.02241
-0.075903
-0.13194
-0.18289
-0.23129
-0.28733
-0.31789
-0.3077
-0.21091
0.018346
0.35713
0.71375
1.0729
1.3735
1.618
1.7861
1.8906
1.9262
1.8982
1.8193
1.6919
1.5289
1.3633
1.1977
1.0194
0.87677
0.73413
0.62714
0.54053
0.44883
0.38006
0.30619
0.2425
0.18646
0.12788
0.076933
0.020893
-0.042789
-0.10392
-0.15487
-0.20327
-0.25931
-0.3077
-0.31025
-0.25676
-0.075903
0.22467
0.58893
0.95828
1.2869
1.5518
1.753
1.8855
1.9364
1.9262
1.8371
1.7123
1.5543
1.3837
1.213
1.0398
0.88696
0.75705
0.63224
0.53034
0.46157
0.37751
0.32656
0.26288
0.20684
0.16609
0.11259
0.064196
0.020893
-0.035147
-0.080997
-0.13958
-0.19053
-0.2211
-0.23638
-0.18798
-0.014769
0.27817
0.62714
0.98885
1.3098
1.5849
1.7658
1.888
1.9237
1.8957
1.8142
1.6843
1.5365
1.3608
1.1926
1.0398
0.8946
0.76979
0.67554
0.5762
0.51251
0.43355
0.3826
0.32656
0.27052
0.22213
0.18137
0.13043
0.084574
0.020893
-0.027505
-0.086092
-0.11156
-0.10647
-0.0020324
0.22977
0.56091
0.90479
1.2563
1.5467
1.781
1.9441
2.0281
2.046
2.0128
1.9186
1.776
1.6206
1.4372
1.2741
1.0984
0.95319
0.808
0.69846
0.59148
0.51251
0.4361
0.36477
0.30364
0.2476
0.19156
0.13552
0.082027
0.028535
-0.024958
-0.080997
-0.13194
-0.18034
-0.21345
-0.1727
-0.032599
0.2476
0.59148
0.96847
1.3276
1.6282
1.8626
2.023
2.1122
2.13
2.0893
2.0027
1.8626
1.697
1.5059
1.3327
1.1672
1.0067
0.86658
0.74686
0.64242
0.54308
0.46666
0.3877
0.31128
0.23741
0.17628
0.12024
0.05146
0.0005149
-0.063167
-0.12175
-0.16506
-0.2211
-0.24657
-0.20836
-0.060619
0.1992
0.53544
0.87422
1.2028
1.4677
1.6817
1.8244
1.8982
1.9033
1.8677
1.7632
1.6206
1.4652
1.292
1.1239
0.96083
0.81564
0.68318
0.58129
0.49214
0.40298
0.34185
0.27307
0.2043
0.15335
0.097311
0.041271
-0.019863
-0.075903
-0.12175
-0.17525
-0.22619
-0.27204
-0.29751
-0.27459
-0.1243
0.1508
0.48704
0.8513
1.185
1.4677
1.6868
1.8244
1.8982
1.9008
1.8447
1.7352
1.5951
1.4244
1.2538
1.0806
0.92517
0.80035
0.68573
0.59148
0.50997
0.431
0.36477
0.31638
0.25269
0.2043
0.15335
0.10241
0.056555
0.0005149
-0.042789
-0.098828
-0.13958
-0.18544
-0.17525
-0.083545
0.13297
0.42845
0.7545
1.0806
1.3633
1.5976
1.7479
1.832
1.8549
1.8142
1.7199
1.5824
1.4244
1.264
1.106
0.9481
0.81819
0.69082
0.59657
0.51251
0.44629
0.37751
0.31892
0.26543
0.21958
0.16354
0.11259
0.061649
0.013251
-0.042789
-0.096281
-0.13704
-0.18034
-0.17779
-0.093734
0.11259
0.41827
0.76979
1.1137
1.427
1.6919
1.8753
1.9925
2.0485
2.0307
1.9619
1.8447
1.6919
1.5212
1.3455
1.1697
1.0092
0.87422
0.74686
0.63478
0.54818
0.46921
0.39789
0.32147
0.26034
0.19411
0.13297
0.069291
0.015798
-0.05043
-0.11156
-0.17015
-0.21345
-0.24657
-0.20836
-0.060619
0.20684
0.53544
0.87677
1.2079
1.4754
1.6817
1.8218
1.8957
1.8982
1.8549
1.7403
1.6078
1.4448
1.2716
1.0984
0.9481
0.81564
0.68318
0.57365
0.48959
0.40808
0.32911
0.26288
0.20939
0.15335
0.097311
0.036177
-0.02241
-0.080997
-0.11921
-0.1727
-0.216
-0.25421
-0.24402
-0.13704
0.097311
0.40808
0.75196
1.0704
1.348
1.5671
1.7225
1.7912
1.8091
1.7556
1.6537
1.5161
1.3557
1.1926
1.0347
0.89206
0.76215
0.64497
0.56091
0.48195
0.40043
0.34949
0.2909
0.23996
0.19411
0.14571
0.092216
0.046366
0.0005149
-0.05043
-0.10392
-0.13194
-0.10392
0.031082
0.28581
0.60422
0.93536
1.2487
1.5212
1.7301
1.8702
1.9364
1.9517
1.911
1.8014
1.6664
1.4958
1.3276
1.1493
1.0041
0.86404
0.73667
0.63224
0.54563
0.46157
0.39534
0.33421
0.27052
0.21448
0.16354
0.1075
0.05146
-0.0045796
-0.068261
-0.11156
-0.11156
-0.037694
0.15844
0.4361
0.76215
1.0907
1.376
1.6078
1.776
1.8778
1.9288
1.9237
1.86
1.7403
1.5875
1.4066
1.2283
1.0576
0.8997
0.74177
0.62205
0.5227
0.42591
0.34185
0.27307
0.2043
0.14826
0.07948
0.02344
-0.040241
-0.093734
-0.14213
-0.20581
-0.25676
-0.28223
-0.27968
-0.15996
0.071838
0.3877
0.73413
1.0729
1.3658
1.6002
1.7734
1.8753
1.9186
1.9059
1.8498
1.7327
1.5747
1.4066
1.2156
1.0525
0.89206
0.75196
0.63733
0.5278
0.4361
0.35458
0.28581
0.21194
0.14571
0.084574
0.018346
-0.035147
-0.096281
-0.14723
-0.20327
-0.25931
-0.28733
-0.24657
-0.11156
0.13552
0.45902
0.79526
1.1111
1.3811
1.6104
1.7556
1.8473
1.8728
1.8422
1.7607
1.6409
1.4652
1.2996
1.1137
0.9481
0.79781
0.6679
0.55327
0.45393
0.37496
0.30619
0.23232
0.15335
0.097311
0.036177
-0.02241
-0.088639
-0.15232
-0.20327
-0.25931
-0.30516
-0.33827
-0.32044
-0.20072
0.041271
0.36223
0.71884
1.0474
1.3378
1.5696
1.7352
1.8294
1.8575
1.8218
1.7327
1.6027
1.427
1.2563
1.0933
0.92772
0.78507
0.65261
0.54818
0.46412
0.38515
0.32402
0.25524
0.20175
0.14316
0.082027
0.028535
-0.017316
-0.068261
-0.11411
-0.1727
-0.21091
-0.23638
-0.21091
-0.07845
0.16609
0.47685
0.81564
1.1315
1.3964
1.5976
1.7377
1.804
1.8065
1.7479
1.6409
1.4932
1.3251
1.1468
0.9863
0.83602
0.70611
0.59148
0.50742
0.42845
0.37241
0.31383
0.26288
0.21448
0.16863
0.12278
0.074385
0.033629
-0.0045796
-0.060619
-0.088639
-0.10647
-0.027505
0.1559
0.431
0.76215
1.1009
1.3939
1.6333
1.8218
1.9339
1.9797
1.9695
1.8957
1.7683
1.6257
1.4423
1.2538
1.078
0.92008
0.76215
0.65007
0.53289
0.45138
0.36732
0.30619
0.2425
0.19156
0.12278
0.076933
0.025987
-0.030052
-0.080997
-0.13194
-0.18544
-0.20581
-0.1727
-0.030052
0.23741
0.57365
0.92262
1.2461
1.5161
1.7225
1.8778
1.9645
1.9797
1.9262
1.832
1.6817
1.5059
1.32
1.134
0.96847
0.80545
0.68063
0.55836
0.47685
0.39279
0.31892
0.25269
0.18901
0.14316
0.087122
0.02344
-0.014769
-0.07845
-0.12685
-0.17015
-0.21091
-0.22364
-0.13194
0.071838
0.37496
0.69846
1.0296
1.3174
1.5594
1.7301
1.8294
1.8778
1.8524
1.781
1.6664
1.4983
1.3378
1.1519
0.99904
0.84366
0.71884
0.59912
0.50487
0.42336
0.35713
0.29345
0.22977
0.17882
0.12533
0.074385
0.015798
-0.035147
-0.086092
-0.13958
-0.18544
-0.20327
-0.1727
-0.02241
0.23741
0.55582
0.89715
1.2156
1.4881
1.7072
1.8549
1.9313
1.9441
1.8982
1.7938
1.6486
1.483
1.3022
1.1213
0.96083
0.8029
0.68318
0.58384
0.48704
0.41062
0.3393
0.27562
0.21703
0.15844
0.10495
0.041271
-0.0096741
-0.070808
-0.1243
-0.18289
-0.23383
-0.26695
-0.22619
-0.073356
0.19665
0.51506
0.85639
1.1723
1.4448
1.6384
1.7683
1.8294
1.8244
1.7632
1.6511
1.4983
1.32
1.1417
0.97357
0.81054
0.67299
0.56091
0.47176
0.3826
0.32147
0.27052
0.21958
0.1559
0.11259
0.069291
0.010704
-0.030052
-0.088639
-0.14213
-0.18034
-0.22364
-0.22874
-0.17525
0.0056094
0.28581
0.6195
0.95574
1.2487
1.4958
1.6664
1.7632
1.7887
1.7454
1.6435
1.511
1.3429
1.1697
1.0067
0.85385
0.71884
0.59912
0.51761
0.44883
0.3877
0.32656
0.27817
0.24505
0.2043
0.17118
0.12278
0.074385
0.041271
-0.0096741
-0.058072
-0.091186
-0.10647
-0.019863
0.17373
0.48195
0.82837
1.1595
1.4677
1.7123
1.8753
1.9721
2.0052
1.9772
1.8804
1.7581
1.5875
1.4117
1.2385
1.0576
0.91753
0.77998
0.67044
0.5711
0.49468
0.42591
0.37496
0.31383
0.25524
0.20939
0.14826
0.097311
0.056555
0.0030622
-0.05043
-0.070808
-0.042789
0.11769
0.37751
0.69592
1.0322
1.3251
1.5798
1.7556
1.8728
1.9262
1.911
1.8447
1.725
1.5798
1.4015
1.2232
1.0372
0.88696
0.73922
0.6195
0.51251
0.43355
0.36477
0.29854
0.23232
0.18646
0.13297
0.082027
0.025987
-0.017316
-0.068261
-0.11666
-0.16251
-0.20327
-0.20072
-0.098828
0.11514
0.431
0.77488
1.1111
1.4091
1.6359
1.8014
1.9033
1.939
1.9084
1.8116
1.6792
1.5263
1.3506
1.1646
0.98885
0.84111
0.7112
0.59403
0.50232
0.42591
0.35713
0.29345
0.23486
0.17628
0.12024
0.074385
0.020893
-0.047883
-0.096281
-0.14977
-0.20327
-0.22619
-0.18798
-0.035147
0.22722
0.55327
0.89715
1.2079
1.4754
1.669
1.8014
1.8753
1.8702
1.8142
1.7021
1.5594
1.3862
1.2079
1.0271
0.86913
0.73158
0.6144
0.51251
0.43355
0.36732
0.29854
0.24505
0.19665
0.14826
0.092216
0.033629
-0.014769
-0.063167
-0.11666
-0.18289
-0.21855
-0.22874
-0.1676
0.020893
0.31128
0.64752
0.98885
1.292
1.5442
1.725
1.832
1.8626
1.8422
1.7505
1.6231
1.4525
1.2767
1.1009
0.93791
0.79271
0.66026
0.55072
0.46412
0.38006
0.32402
0.26288
0.20939
0.14826
0.099858
0.056555
0.0030622
-0.047883
-0.10138
-0.15487
-0.19308
-0.23383
-0.24402
-0.15996
0.059102
0.35968
0.70865
1.0372
1.3251
1.5518
1.7097
1.7836
1.7989
1.7377
1.6206
1.4805
1.3047
1.129
0.96847
0.81309
0.68063
0.58638
0.49214
0.41827
0.35713
0.30619
0.26034
0.21958
0.16609
0.12533
0.092216
0.041271
0.0005149
-0.047883
-0.088639
-0.11921
-0.13449
-0.086092
0.11005
0.39534
0.74177
1.106
1.4295
1.6868
1.8778
1.9925
2.0281
1.9976
1.9211
1.7963
1.6257
1.4448
1.2538
1.0831
0.92517
0.79017
0.68318
0.58638
0.50232
0.44629
0.38006
0.32402
0.26543
0.21448
0.1559
0.11259
0.056555
-0.0096741
-0.060619
-0.093734
-0.060619
0.076933
0.31892
0.63478
0.96847
1.2843
1.5442
1.7403
1.8728
1.9415
1.9364
1.8778
1.7658
1.6206
1.4372
1.2538
1.0729
0.90479
0.76215
0.63224
0.5278
0.43355
0.36477
0.296
0.23996
0.18392
0.13297
0.074385
0.031082
-0.024958
-0.080997
-0.1294
-0.18544
-0.21855
-0.21345
-0.11156
0.12024
0.4361
0.77998
1.1264
1.4295
1.6639
1.8345
1.9339
1.9594
1.9339
1.8498
1.7097
1.5492
1.3582
1.1773
1.0092
0.8462
0.7112
0.59403
0.50487
0.42591
0.34439
0.28326
0.21448
0.1508
0.094763
0.041271
-0.012221
-0.073356
-0.1243
-0.18034
-0.22619
-0.25931
-0.22619
-0.068261
0.19411
0.53034
0.87932
1.2028
1.4728
1.6893
1.832
1.8957
1.9059
1.8447
1.7377
1.5875
1.4244
1.2436
1.0729
0.91498
0.76469
0.63988
0.53034
0.45138
0.37496
0.30873
0.25015
0.19665
0.14316
0.092216
0.036177
-0.014769
-0.073356
-0.12685
-0.1676
-0.21855
-0.22364
-0.1243
0.092216
0.39789
0.74431
1.078
1.3735
1.6002
1.7709
1.8549
1.8855
1.8447
1.7454
1.6129
1.4372
1.2741
1.0907
0.92517
0.77743
0.65261
0.54308
0.44629
0.36987
0.30619
0.24505
0.19665
0.13552
0.07948
0.031082
-0.024958
-0.065714
-0.1243
-0.1676
-0.216
-0.25166
-0.24912
-0.13704
0.099858
0.41827
0.76979
1.0958
1.3837
1.5976
1.7327
1.7989
1.8116
1.7301
1.6308
1.4754
1.3047
1.1239
0.96847
0.81564
0.69337
0.58129
0.49723
0.41317
0.35458
0.29854
0.25779
0.21194
0.17118
0.12024
0.082027
0.036177
-0.0096741
-0.058072
-0.10647
-0.16251
-0.17015
-0.096281
0.10241
0.40808
0.77233
1.1264
1.4346
1.6868
1.8626
1.9721
2.0052
1.9721
1.8702
1.7428
1.5722
1.3862
1.2105
1.0296
0.87677
0.75196
0.64497
0.55836
0.47685
0.41317
0.34439
0.2909
0.2425
0.1992
0.13552
0.094763
0.036177
-0.019863
-0.080997
-0.12175
-0.13704
-0.055525
0.13297
0.43864
0.8029
1.157
1.4652
1.7174
1.8957
2.0027
2.0485
2.0332
1.9517
1.8116
1.6588
1.4728
1.2741
1.0984
0.93026
0.77998
0.64752
0.55072
0.44883
0.36477
0.30619
0.23741
0.17118
0.12788
0.059102
0.0081567
-0.045336
-0.11156
-0.15742
-0.20836
-0.23638
-0.17525
0.0056094
0.2909
0.63478
0.99649
1.3098
1.5645
1.7556
1.8829
1.9211
1.9135
1.8447
1.7123
1.5543
1.376
1.1977
1.0169
0.85639
0.71629
0.59657
0.49723
0.40553
0.32911
0.26543
0.21194
0.16354
0.10241
0.048913
-0.0020324
-0.063167
-0.11411
-0.18289
-0.23893
-0.26695
-0.25676
-0.14977
0.099858
0.42845
0.77998
1.134
1.4372
1.6766
1.8447
1.9262
1.9645
1.9161
1.8218
1.6817
1.5136
1.3251
1.1519
0.97357
0.81819
0.68827
0.57365
0.47685
0.39279
0.31383
0.2476
0.19411
0.14061
0.07948
0.028535
-0.024958
-0.07845
-0.13449
-0.19053
-0.23638
-0.26949
-0.25421
-0.10138
0.17373
0.52525
0.89715
1.241
1.5289
1.753
1.9059
1.9772
1.9848
1.9339
1.8167
1.669
1.4983
1.3225
1.1366
0.96338
0.81309
0.69337
0.58129
0.48195
0.39789
0.32656
0.26034
0.19411
0.13043
0.084574
0.020893
-0.040241
-0.10392
-0.16506
-0.22619
-0.28478
-0.33318
-0.32299
-0.19562
0.05146
0.40553
0.78762
1.1417
1.4372
1.6741
1.8422
1.9186
1.9186
1.8702
1.7428
1.5926
1.4219
1.2257
1.0449
0.87677
0.72139
0.60422
0.48449
0.40298
0.32402
0.26034
0.1992
0.1508
0.094763
0.043818
-0.0096741
-0.058072
-0.10392
-0.17015
-0.22364
-0.27459
-0.30261
-0.28733
-0.15487
0.099858
0.44629
0.81819
1.185
1.4779
1.6919
1.8422
1.9008
1.8906
1.8065
1.6919
1.5187
1.3429
1.1748
0.99904
0.83856
0.7112
0.59657
0.49723
0.42336
0.35458
0.29854
0.2476
0.19411
0.15335
0.11769
0.061649
0.028535
-0.024958
-0.070808
-0.1243
-0.16251
-0.18034
-0.096281
0.11259
0.42845
0.81819
1.1901
1.5314
1.7963
1.9925
2.1096
2.1504
2.1249
2.0358
1.8957
1.7199
1.5238
1.3327
1.1519
0.97866
0.83347
0.7112
0.59657
0.50487
0.42845
0.36223
0.28581
0.23486
0.17628
0.12278
0.061649
0.0081567
-0.047883
-0.10647
-0.17525
-0.19308
-0.15742
0.015798
0.30619
0.66535
1.0372
1.3684
1.6511
1.8677
1.9925
2.0587
2.0434
1.9874
1.86
1.7072
1.5238
1.3251
1.134
0.96083
0.81054
0.67554
0.56601
0.45647
0.37496
0.29345
0.23741
0.17373
0.11005
0.054007
-0.0020324
-0.065714
-0.11666
-0.17015
-0.23383
-0.27968
-0.28733
-0.19817
0.015798
0.34949
0.72903
1.0907
1.4168
1.6741
1.8702
1.9848
2.0256
2.0027
1.9135
1.7861
1.6078
1.4219
1.2461
1.0576
0.89715
0.75196
0.62969
0.51251
0.42845
0.34694
0.27052
0.2043
0.13297
0.07948
0.015798
-0.030052
-0.096281
-0.14213
-0.20581
-0.25676
-0.3077
-0.28733
-0.16506
0.084574
0.42591
0.80545
1.1519
1.4525
1.7046
1.8702
1.9645
1.9772
1.9466
1.8473
1.6944
1.5212
1.3429
1.1442
0.97866
0.83092
0.69846
0.5762
0.48704
0.3877
0.31383
0.25524
0.19665
0.14061
0.07948
0.015798
-0.042789
-0.091186
-0.14723
-0.20327
-0.25166
-0.29242
-0.26695
-0.13704
0.12533
0.46921
0.83602
1.1824
1.4754
1.7148
1.8575
1.939
1.9466
1.8982
1.7836
1.646
1.4677
1.3022
1.1137
0.9481
0.80545
0.67554
0.56091
0.46412
0.39025
0.31638
0.25015
0.18901
0.13297
0.07948
0.025987
-0.030052
-0.080997
-0.13704
-0.19817
-0.25166
-0.28733
-0.25931
-0.1243
0.13043
0.46412
0.82837
1.1697
1.455
1.6766
1.8142
1.8753
1.86
1.7836
1.6639
1.5085
1.3327
1.1646
0.98121
0.83856
0.70356
0.58638
0.48959
0.41827
0.35204
0.29345
0.2425
0.1992
0.15335
0.092216
0.041271
0.0005149
-0.052978
-0.098828
-0.14723
-0.19053
-0.20581
-0.13194
0.069291
0.37241
0.74431
1.1111
1.4474
1.7123
1.9084
2.023
2.0587
2.046
1.9568
1.8142
1.646
1.4703
1.2869
1.1009
0.95319
0.81564
0.68573
0.58893
0.50487
0.4361
0.37241
0.30873
0.25269
0.19411
0.14316
0.082027
0.033629
-0.035147
-0.086092
-0.13449
-0.16251
-0.11666
0.054007
0.34439
0.69082
1.0398
1.3709
1.6486
1.8626
2.0128
2.0791
2.074
2.023
1.9008
1.753
1.5696
1.3786
1.1926
1.0143
0.85385
0.71375
0.59912
0.49723
0.41827
0.34185
0.26798
0.2043
0.13807
0.089669
0.028535
-0.027505
-0.086092
-0.14213
-0.19308
-0.23383
-0.22874
-0.10138
0.12788
0.44883
0.8029
1.1315
1.427
1.646
1.8244
1.9135
1.939
1.9008
1.8218
1.6817
1.5212
1.3353
1.157
0.99904
0.83602
0.69337
0.58638
0.48959
0.39534
0.32402
0.25779
0.18646
0.12533
0.066744
0.010704
-0.045336
-0.098828
-0.16251
-0.20581
-0.25421
-0.28478
-0.23638
-0.063167
0.20684
0.54308
0.88441
1.2003
1.4728
1.6817
1.8345
1.9186
1.9237
1.8677
1.7683
1.6333
1.4652
1.2945
1.106
0.95828
0.81054
0.67809
0.5711
0.48195
0.40043
0.32911
0.26288
0.19665
0.14316
0.082027
0.038724
-0.019863
-0.070808
-0.12175
-0.1727
-0.21345
-0.23638
-0.17525
0.0005149
0.27562
0.60931
0.93536
1.2334
1.4907
1.669
1.7938
1.8549
1.8447
1.781
1.6741
1.5085
1.348
1.1748
1.0143
0.85639
0.71884
0.61186
0.50997
0.43355
0.36223
0.296
0.23232
0.17373
0.11259
0.064196
0.010704
-0.037694
-0.091186
-0.14723
-0.20327
-0.24912
-0.27459
-0.26185
-0.15487
0.069291
0.38006
0.72903
1.0551
1.3404
1.5569
1.725
1.7938
1.8218
1.7709
1.6766
1.5314
1.3735
1.1977
1.0271
0.87168
0.73667
0.6144
0.52016
0.44629
0.36223
0.31383
0.25524
0.20175
0.16099
0.11005
0.066744
0.015798
-0.037694
-0.070808
-0.11921
-0.1676
-0.19817
-0.216
-0.19817
-0.088639
0.1559
0.46412
0.81564
1.1264
1.4066
1.6206
1.7556
1.8269
1.8116
1.7505
1.6384
1.4881
1.3174
1.1595
0.99395
0.84875
0.71884
0.62205
0.54053
0.46666
0.40808
0.35458
0.31128
0.26543
0.21448
0.18392
0.13552
0.10241
0.059102
0.015798
-0.027505
-0.073356
-0.091186
-0.10392
-0.019863
0.16354
0.44629
0.79781
1.129
1.4295
1.6792
1.8498
1.9466
1.9976
1.9695
1.8829
1.7556
1.59
1.4142
1.2283
1.0704
0.90479
0.76724
0.66026
0.56346
0.48195
0.40553
0.35204
0.28836
0.24505
0.18901
0.13807
0.082027
0.038724
-0.014769
-0.055525
-0.10392
-0.13958
-0.15742
-0.12175
0.038724
0.28581
0.61186
0.96083
1.2716
1.5289
1.7352
1.86
1.9313
1.9364
1.8753
1.7734
1.6282
1.4499
1.2614
1.0933
0.92008
0.76469
0.64752
0.53034
0.43864
0.36732
0.296
0.2425
0.18646
0.13552
0.087122
0.033629
-0.0096741
-0.05043
-0.10138
-0.13958
-0.18544
-0.22364
-0.24912
-0.20327
-0.052978
0.22213
0.56091
0.93281
1.264
1.5365
1.7581
1.8906
1.967
1.9797
1.9262
1.8142
1.6715
1.5009
1.3047
1.129
0.95828
0.79781
0.67299
0.56091
0.47176
0.39789
0.32911
0.27817
0.22467
0.16863
0.11769
0.071838
0.025987
-0.019863
-0.060619
-0.11666
-0.15996
-0.19308
-0.23638
-0.2211
-0.088639
0.1508
0.49978
0.85385
1.2079
1.5085
1.7479
1.911
1.9874
2.0179
1.9695
1.8855
1.7327
1.5696
1.3786
1.2054
1.0296
0.86913
0.74177
0.63224
0.52525
0.44119
0.37496
0.31128
0.25015
0.20175
0.14826
0.097311
0.041271
0.0005149
-0.055525
-0.11666
-0.15742
-0.21345
-0.25676
-0.2644
-0.20327
-0.0045796
0.31128
0.69592
1.0627
1.3811
1.6511
1.8473
1.9543
1.995
1.9594
1.8753
1.7479
1.5671
1.3888
1.2028
1.0271
0.87422
0.72903
0.62205
0.52525
0.44629
0.36732
0.31383
0.26288
0.21194
0.16354
0.11005
0.064196
0.0081567
-0.042789
-0.088639
-0.14213
-0.18034
-0.21855
-0.22619
-0.16506
0.020893
0.32656
0.70356
1.0678
1.3888
1.6486
1.8244
1.9211
1.9441
1.8906
1.7912
1.6308
1.4474
1.2589
1.0627
0.89715
0.75196
0.63478
0.53034
0.46412
0.39534
0.34694
0.30364
0.26543
0.22213
0.18646
0.14571
0.11769
0.069291
0.031082
-0.019863
-0.065714
-0.091186
-0.07845
0.061649
0.32656
0.67299
1.0474
1.3837
1.6639
1.8906
2.0205
2.0765
2.0765
1.9976
1.8906
1.7327
1.5492
1.3608
1.1697
0.99904
0.84875
0.72139
0.62205
0.53289
0.44883
0.39279
0.33166
0.28071
0.2425
0.18901
0.14826
0.092216
0.043818
-0.0020324
-0.055525
-0.10392
-0.14213
-0.10138
0.061649
0.34439
0.69082
1.0602
1.399
1.6817
1.8982
2.0383
2.1096
2.1046
2.0485
1.9237
1.7734
1.5824
1.3913
1.2054
1.0194
0.87677
0.73922
0.62205
0.52016
0.44629
0.36732
0.30364
0.2476
0.18646
0.13297
0.074385
0.020893
-0.030052
-0.086092
-0.13704
-0.18289
-0.21091
-0.14723
0.036177
0.32147
0.6679
1.0245
1.3327
1.6002
1.7989
1.9186
1.9772
1.9645
1.8982
1.7861
1.6308
1.4397
1.2538
1.0806
0.91753
0.76979
0.65007
0.54308
0.45647
0.38006
0.31383
0.24505
0.2043
0.14571
0.089669
0.043818
-0.0071269
-0.058072
-0.11411
-0.1676
-0.20836
-0.21091
-0.11156
0.11769
0.44883
0.78762
1.1315
1.4219
1.6613
1.8371
1.9364
1.9721
1.9441
1.8549
1.7327
1.5671
1.3811
1.213
1.0423
0.8946
0.75196
0.63733
0.54563
0.45393
0.3877
0.32147
0.27307
0.20684
0.15844
0.1075
0.048913
-0.014769
-0.058072
-0.11666
-0.15996
-0.20072
-0.18289
-0.063167
0.18137
0.49214
0.81564
1.1366
1.4066
1.6078
1.7454
1.8193
1.8371
1.776
1.669
1.5365
1.3658
1.2003
1.0372
0.88696
0.74431
0.62714
0.53544
0.44629
0.37751
0.31383
0.2476
0.1992
0.14061
0.097311
0.041271
0.0030622
-0.05043
-0.10138
-0.14468
-0.18289
-0.21091
-0.1727
-0.02241
0.21448
0.53034
0.86658
1.1773
1.427
1.6129
1.7327
1.7785
1.7556
1.6792
1.5645
1.4244
1.2614
1.0907
0.93281
0.80035
0.68827
0.58384
0.50232
0.4361
0.36987
0.32147
0.26798
0.22213
0.17628
0.13297
0.089669
0.043818
0.0005149
-0.047883
-0.083545
-0.11921
-0.11156
-0.02241
0.18392
0.46412
0.808
1.1315
1.4168
1.6435
1.804
1.9008
1.9186
1.8931
1.804
1.6766
1.5009
1.3353
1.1519
0.97866
0.8462
0.71884
0.62205
0.5278
0.45647
0.38515
0.32911
0.28326
0.22722
0.16354
0.11005
0.069291
0.018346
-0.030052
-0.073356
-0.11411
-0.12685
-0.052978
0.13552
0.41827
0.73667
1.0551
1.3353
1.59
1.7734
1.8931
1.939
1.9364
1.888
1.7734
1.6308
1.4626
1.2894
1.1086
0.96083
0.81564
0.69337
0.58638
0.48959
0.40808
0.34439
0.28071
0.20939
0.16099
0.099858
0.059102
0.0005149
-0.047883
-0.11156
-0.14977
-0.18034
-0.14977
-0.024958
0.20175
0.50487
0.81819
1.1111
1.3684
1.5773
1.7327
1.8142
1.8447
1.8218
1.7352
1.6078
1.4474
1.292
1.1188
0.95319
0.808
0.68063
0.5762
0.47176
0.39025
0.31892
0.25779
0.19156
0.13552
0.076933
0.02344
-0.032599
-0.086092
-0.1243
-0.17525
-0.22619
-0.25931
-0.23383
-0.11921
0.11514
0.431
0.76724
1.0907
1.3633
1.5875
1.7505
1.8549
1.888
1.8575
1.7785
1.669
1.5085
1.3302
1.1544
0.9914
0.84875
0.71629
0.59657
0.50742
0.41827
0.34439
0.28581
0.20939
0.15844
0.1075
0.038724
-0.0071269
-0.060619
-0.11156
-0.15996
-0.21345
-0.23893
-0.25421
-0.19053
-0.012221
0.25524
0.58638
0.91243
1.2156
1.4575
1.6486
1.7785
1.8345
1.8269
1.781
1.669
1.5314
1.3658
1.1901
1.0296
0.88441
0.73667
0.63224
0.52525
0.43355
0.36477
0.29854
0.23232
0.16099
0.11005
0.05146
0.0056094
-0.05043
-0.10392
-0.15232
-0.20581
-0.24147
-0.28223
-0.29497
-0.24402
-0.065714
0.20175
0.53544
0.87677
1.1926
1.455
1.6562
1.781
1.832
1.8345
1.7632
1.6486
1.5085
1.3404
1.1621
0.9914
0.83602
0.71375
0.59403
0.50997
0.43864
0.36987
0.30364
0.2476
0.19665
0.14061
0.097311
0.036177
-0.0045796
-0.052978
-0.10138
-0.14213
-0.18544
-0.22364
-0.216
-0.15742
0.010704
0.28581
0.61695
0.95574
1.2589
1.5085
1.6741
1.7938
1.8294
1.7938
1.7148
1.5773
1.4244
1.2538
1.0653
0.8997
0.7596
0.64242
0.55327
0.47431
0.40553
0.34185
0.30619
0.25015
0.21194
0.18392
0.13552
0.089669
0.043818
0.010704
-0.040241
-0.088639
-0.10647
-0.065714
0.092216
0.35204
0.68063
1.0118
1.3225
1.5824
1.7785
1.9008
1.9619
1.967
1.9033
1.7912
1.6257
1.455
1.2716
1.0907
0.91753
0.78507
0.65261
0.54818
0.45393
0.3826
0.32402
0.26543
0.2043
0.15844
0.11005
0.048913
0.0030622
-0.040241
-0.10138
-0.13958
-0.18544
-0.21345
-0.17015
0.0005149
0.28836
0.64242
0.99904
1.3251
1.6053
1.8193
1.9492
2.0154
2.0154
1.9594
1.8447
1.6868
1.5059
1.32
1.1366
0.96593
0.81819
0.68318
0.5711
0.48449
0.40298
0.33166
0.26543
0.20939
0.15335
0.10495
0.054007
0.0005149
-0.05043
-0.10902
-0.16251
-0.21345
-0.23638
-0.18798
-0.024958
0.25015
0.60167
0.95574
1.2869
1.5696
1.781
1.9313
2.0052
2.0154
1.9645
1.8549
1.7123
1.5314
1.3353
1.1519
0.97612
0.82073
0.69082
0.5762
0.48959
0.41827
0.3393
0.28326
0.22467
0.16863
0.11259
0.059102
0.0005149
-0.052978
-0.11666
-0.16251
-0.216
-0.24402
-0.19562
-0.024958
0.25524
0.60167
0.96847
1.2996
1.5798
1.7785
1.9237
1.9925
1.9848
1.9211
1.804
1.6486
1.4703
1.2894
1.1035
0.93791
0.79017
0.6679
0.55072
0.46412
0.37751
0.31638
0.25779
0.1992
0.14316
0.074385
0.015798
-0.030052
-0.088639
-0.14468
-0.20836
-0.2644
-0.28478
-0.26949
-0.11156
0.1559
0.50232
0.87677
1.2181
1.5034
1.7148
1.8549
1.9211
1.9161
1.8473
1.7276
1.5645
1.399
1.2156
1.0423
0.87677
0.74686
0.62459
0.52525
0.43864
0.37751
0.31638
0.27052
0.21194
0.16609
0.11005
0.059102
0.0081567
-0.032599
-0.088639
-0.14213
-0.19053
-0.216
-0.14977
0.028535
0.33421
0.68573
1.0449
1.3709
1.6206
1.8065
1.9084
1.9364
1.9059
1.8091
1.6613
1.4932
1.3149
1.1366
0.97102
0.82837
0.69846
0.60676
0.50997
0.44629
0.3877
0.33166
0.28836
0.23486
0.19411
0.1559
0.099858
0.056555
0.0081567
-0.047883
-0.080997
-0.055525
0.082027
0.33166
0.67044
1.0067
1.3251
1.5951
1.8014
1.9313
2.0027
2.0052
1.9517
1.8396
1.6944
1.5085
1.3276
1.157
0.98376
0.83856
0.70865
0.60167
0.50997
0.42336
0.36477
0.2909
0.23486
0.19411
0.13297
0.076933
0.025987
-0.035147
-0.093734
-0.15232
-0.19308
-0.20327
-0.098828
0.12278
0.4361
0.79781
1.1595
1.4754
1.7377
1.9262
2.0409
2.0765
2.0638
1.9797
1.8549
1.6792
1.4932
1.3149
1.1213
0.96338
0.80545
0.69337
0.5762
0.47431
0.40043
0.31892
0.26543
0.19156
0.13297
0.076933
0.0030622
-0.05043
-0.10902
-0.1727
-0.21345
-0.25421
-0.22619
-0.091186
0.17118
0.49978
0.84111
1.1697
1.4448
1.6664
1.8167
1.8957
1.9135
1.8677
1.7607
1.6129
1.4474
1.264
1.0907
0.91498
0.7596
0.63988
0.5278
0.42591
0.34439
0.27817
0.20684
0.14826
0.094763
0.033629
-0.02241
-0.075903
-0.14213
-0.19308
-0.24657
-0.28987
-0.29497
-0.20581
0.0081567
0.30619
0.65771
0.9863
1.2971
1.5365
1.7174
1.832
1.8728
1.8422
1.7632
1.6308
1.4652
1.2818
1.1009
0.93281
0.78507
0.65007
0.5227
0.43355
0.34949
0.27817
0.21448
0.14826
0.097311
0.05146
-0.0020324
-0.055525
-0.10902
-0.16506
-0.216
-0.25421
-0.28733
-0.28733
-0.18798
0.036177
0.34694
0.69082
1.0194
1.3174
1.5442
1.7123
1.7989
1.8142
1.7734
1.669
1.5289
1.3531
1.1952
1.022
0.87422
0.73922
0.63478
0.53034
0.45902
0.39279
0.3393
0.28836
0.22467
0.18137
0.13297
0.076933
0.041271
-0.019863
-0.068261
-0.11921
-0.17015
-0.18798
-0.12175
0.05146
0.34185
0.69082
1.0576
1.3709
1.6409
1.8345
1.9594
2.0154
1.9823
1.9161
1.7734
1.6231
1.4372
1.2589
1.0729
0.91243
0.77998
0.66535
0.5711
0.48449
0.41062
0.34949
0.28836
0.23741
0.17373
0.11514
0.069291
0.0030622
-0.052978
-0.10392
-0.15996
-0.13194
-0.017316
0.21194
0.53799
0.87168
1.1901
1.4703
1.697
1.8549
1.939
1.9594
1.9211
1.8218
1.6792
1.5136
1.3174
1.1366
0.95828
0.80035
0.6628
0.54563
0.44883
0.36223
0.30364
0.23232
0.16609
0.12024
0.05146
0.0081567
-0.047883
-0.11411
-0.16251
-0.2211
-0.25421
-0.26695
-0.16506
0.056555
0.36732
0.73667
1.078
1.4015
1.6486
1.8498
1.9746
2.0256
2.0027
1.9161
1.7963
1.6359
1.455
1.2614
1.078
0.89715
0.74941
0.62714
0.52525
0.41827
0.34185
0.26288
0.19411
0.12278
0.076933
0.015798
-0.042789
-0.10647
-0.1676
-0.22364
-0.27204
-0.29497
-0.23893
-0.07845
0.20175
0.55327
0.90479
1.2232
1.4958
1.7123
1.86
1.9237
1.9364
1.8829
1.7683
1.6282
1.4474
1.269
1.0933
0.92008
0.77743
0.64497
0.53034
0.44629
0.36223
0.296
0.22467
0.16354
0.1075
0.05146
-0.014769
-0.073356
-0.13194
-0.19308
-0.23383
-0.27459
-0.27459
-0.14213
0.087122
0.41317
0.77998
1.1111
1.4244
1.6588
1.8294
1.9288
1.9568
1.9135
1.8065
1.669
1.4958
1.3149
1.1213
0.943
0.79526
0.6628
0.54308
0.45647
0.3826
0.30109
0.24505
0.17882
0.12024
0.056555
0.0056094
-0.05043
-0.098828
-0.15742
-0.21855
-0.26185
-0.29242
-0.23893
-0.093734
0.17118
0.51761
0.86658
1.185
1.4677
1.6664
1.7912
1.8549
1.8345
1.7632
1.646
1.4703
1.2971
1.1188
0.95574
0.79781
0.67299
0.55836
0.47685
0.40808
0.34439
0.27817
0.22977
0.18137
0.13807
0.089669
0.036177
-0.014769
-0.065714
-0.12175
-0.15487
-0.1676
-0.060619
0.1508
0.45902
0.80545
1.1315
1.4346
1.6715
1.8422
1.9415
1.9721
1.9415
1.8422
1.7097
1.5365
1.3455
1.1621
0.98376
0.82328
0.69592
0.58638
0.49214
0.41062
0.34694
0.28581
0.22722
0.17373
0.12024
0.059102
0.013251
-0.037694
-0.091186
-0.15232
-0.18289
-0.18798
-0.10392
0.11259
0.41827
0.77488
1.1111
1.4244
1.6893
1.8702
1.9925
2.046
2.0307
1.9594
1.8244
1.669
1.4754
1.2767
1.0933
0.91243
0.76979
0.64242
0.53034
0.4361
0.35968
0.29345
0.21703
0.15335
0.084574
0.028535
-0.030052
-0.093734
-0.14213
-0.20581
-0.24402
-0.25676
-0.18289
0.02344
0.31892
0.6628
0.99904
1.2894
1.5391
1.7276
1.8244
1.8728
1.8575
1.7734
1.6486
1.4932
1.3098
1.129
0.95828
0.79781
0.65261
0.54308
0.4361
0.35968
0.296
0.21703
0.15844
0.11769
0.061649
0.010704
-0.05043
-0.10138
-0.15742
-0.20327
-0.24147
-0.24402
-0.16506
0.031082
0.34185
0.67554
1.0322
1.3276
1.59
1.7709
1.9008
1.9517
1.939
1.8651
1.7428
1.5875
1.4066
1.2156
1.0296
0.87932
0.73667
0.6144
0.50997
0.41572
0.32911
0.26798
0.2043
0.15335
0.097311
0.033629
-0.019863
-0.073356
-0.12685
-0.18544
-0.22619
-0.25421
-0.21091
-0.065714
0.2043
0.53289
0.88187
1.2003
1.4652
1.6817
1.8193
1.8957
1.9059
1.8447
1.7174
1.5798
1.4041
1.2181
1.0347
0.87677
0.73413
0.61186
0.50997
0.431
0.35713
0.29345
0.23232
0.17373
0.12024
0.069291
0.013251
-0.047883
-0.093734
-0.14723
-0.19053
-0.22619
-0.20327
-0.075903
0.17373
0.48959
0.83092
1.1417
1.4142
1.6257
1.7581
1.8269
1.8218
1.7479
1.6308
1.4626
1.2818
1.0958
0.90989
0.74431
0.60167
0.46921
0.37751
0.30619
0.2425
0.18646
0.14316
0.099858
0.071838
0.038724
0.0030622
-0.030052
-0.070808
-0.10392
-0.13194
-0.13704
-0.030052
0.18137
0.47685
0.79526
1.106
1.3709
1.5696
1.697
1.7581
1.7352
1.6715
1.5518
1.3862
1.2079
1.0449
0.88696
0.73158
0.6195
0.52525
0.44883
0.37751
0.32402
0.28071
0.25015
0.20939
0.17118
0.13043
0.097311
0.061649
0.010704
-0.030052
-0.055525
-0.032599
0.1075
0.37241
0.69337
1.0372
1.3531
1.6206
1.8269
1.9543
2.0128
2.0128
1.9441
1.8193
1.669
1.4805
1.3047
1.1162
0.96847
0.81819
0.69592
0.59403
0.50997
0.44374
0.37241
0.31638
0.25779
0.21194
0.15335
0.11005
0.05146
0.0030622
-0.063167
-0.093734
-0.10392
-0.017316
0.19665
0.49214
0.82583
1.1519
1.4448
1.6817
1.8498
1.9543
1.9797
1.9364
1.8498
1.7072
1.5365
1.3506
1.1723
0.99395
0.83347
0.70611
0.58384
0.49214
0.39534
0.33675
0.27052
0.21194
0.16354
0.10241
0.054007
-0.0020324
-0.058072
-0.12175
-0.16506
-0.1676
-0.10647
0.084574
0.37241
0.70101
1.0143
1.3047
1.5442
1.7097
1.804
1.8269
1.7963
1.7225
1.5824
1.427
1.241
1.0653
0.88696
0.74177
0.60676
0.50742
0.40553
0.33675
0.27307
0.21958
0.17118
0.1075
0.064196
0.018346
-0.024958
-0.070808
-0.1294
-0.1676
-0.16251
-0.05043
0.16099
0.46921
0.8029
1.1137
1.3786
1.6053
1.7505
1.8269
1.8396
1.7912
1.6792
1.5263
1.3531
1.1697
0.99395
0.84366
0.69082
0.58638
0.47176
0.40553
0.32402
0.26798
0.21958
0.16863
0.12788
0.076933
0.033629
-0.017316
-0.070808
-0.1243
-0.16506
-0.16251
-0.055525
0.16863
0.46921
0.79526
1.106
1.3658
1.5696
1.7174
1.7938
1.8091
1.7454
1.6384
1.5059
1.3327
1.157
0.9863
0.82583
0.69337
0.5762
0.48959
0.41572
0.34185
0.28071
0.21958
0.17373
0.12024
0.069291
0.015798
-0.042789
-0.083545
-0.13704
-0.16506
-0.18034
-0.11411
0.074385
0.36732
0.69082
1.0067
1.2792
1.5085
1.6639
1.7556
1.7785
1.725
1.6333
1.4805
1.3225
1.1442
0.9863
0.83347
0.70356
0.59148
0.50997
0.4361
0.3826
0.33421
0.296
0.23996
0.1992
0.16099
0.11259
0.071838
0.038724
-0.012221
-0.058072
-0.080997
-0.045336
0.092216
0.32911
0.63988
0.95319
1.2461
1.4779
1.6486
1.7479
1.7861
1.7607
1.6715
1.5467
1.3811
1.2181
1.0474
0.88696
0.75705
0.63733
0.54053
0.46157
0.39789
0.34949
0.29854
0.26034
0.21194
0.18392
0.14061
0.092216
0.061649
0.010704
-0.032599
-0.065714
-0.060619
0.041271
0.27307
0.55836
0.88187
1.1977
1.4626
1.6741
1.8193
1.9008
1.9186
1.8702
1.7632
1.618
1.4474
1.2589
1.0856
0.93281
0.78507
0.66535
0.5711
0.47431
0.41062
0.34694
0.296
0.25524
0.19411
0.14571
0.1075
0.056555
0.020893
-0.032599
-0.073356
-0.093734
-0.075903
0.043818
0.28581
0.58893
0.8997
1.1977
1.4474
1.6384
1.7607
1.8193
1.8116
1.7479
1.6257
1.4907
1.3149
1.1442
0.97612
0.83856
0.70865
0.60931
0.50742
0.44629
0.38006
0.31383
0.27052
0.21958
0.16354
0.11005
0.064196
0.013251
-0.035147
-0.068261
-0.11666
-0.14468
-0.14723
-0.042789
0.16863
0.45393
0.77233
1.0831
1.3429
1.5442
1.6792
1.7454
1.7505
1.6868
1.5773
1.427
1.269
1.106
0.93791
0.80545
0.68573
0.59148
0.50487
0.4361
0.38515
0.32911
0.27562
0.23232
0.19665
0.1559
0.1075
0.074385
0.020893
-0.012221
-0.058072
-0.091186
-0.083545
0.0056094
0.20939
0.49978
0.81564
1.1162
1.3786
1.5849
1.7225
1.7912
1.7938
1.7377
1.6409
1.4932
1.3149
1.157
0.98885
0.8513
0.72139
0.6195
0.53289
0.46921
0.41827
0.36987
0.32147
0.27562
0.23741
0.20175
0.1508
0.11769
0.076933
0.041271
-0.0020324
-0.0071269
0.05146
0.23486
0.48959
0.80545
1.0958
1.3709
1.6002
1.7734
1.8677
1.8982
1.8855
1.804
1.6792
1.5212
1.3582
1.1875
1.0271
0.87932
0.76215
0.65771
0.57365
0.49978
0.42591
0.35968
0.30619
0.26034
0.21194
0.16609
0.11259
0.061649
0.015798
-0.032599
-0.073356
-0.086092
-0.0020324
0.19411
0.4794
0.79017
1.1035
1.3862
1.6206
1.7938
1.9059
1.9517
1.9568
1.8855
1.7683
1.6231
1.4474
1.2614
1.0882
0.92772
0.80035
0.67299
0.57874
0.49214
0.40808
0.34185
0.27817
0.22467
0.1559
0.10241
0.041271
-0.019863
-0.068261
-0.12175
-0.1727
-0.19308
-0.1294
0.028535
0.28836
0.60167
0.93281
1.213
1.4703
1.669
1.7938
1.8804
1.8982
1.8447
1.7556
1.618
1.4525
1.269
1.1009
0.93791
0.78762
0.66026
0.55327
0.46412
0.37751
0.30619
0.23232
0.16863
0.11005
0.046366
-0.0020324
-0.052978
-0.11156
-0.16251
-0.21345
-0.25931
-0.26695
-0.20327
-0.024958
0.25269
0.56855
0.90734
1.2079
1.4575
1.6588
1.8014
1.8702
1.8728
1.8193
1.7123
1.5696
1.3939
1.213
1.0372
0.87168
0.73922
0.6195
0.50742
0.42081
0.34439
0.26288
0.18646
0.13043
0.064196
0.0081567
-0.040241
-0.093734
-0.15232
-0.20836
-0.24402
-0.29751
-0.32044
-0.32553
-0.2644
-0.075903
0.22722
0.55836
0.8997
1.2054
1.4626
1.646
1.7785
1.8294
1.8142
1.7556
1.6308
1.483
1.3098
1.1468
0.97102
0.82837
0.69337
0.59148
0.50487
0.41572
0.35458
0.29854
0.23996
0.17118
0.12533
0.071838
0.02344
-0.027505
-0.073356
-0.11411
-0.1676
-0.20836
-0.23383
-0.20581
-0.083545
0.14826
0.46666
0.79526
1.1162
1.376
1.5875
1.7225
1.7963
1.8065
1.7428
1.6333
1.4856
1.3124
1.1493
0.9914
0.83856
0.72139
0.61186
0.52525
0.45138
0.39279
0.34694
0.29854
0.23996
0.19411
0.16099
0.11259
0.064196
0.028535
-0.019863
-0.060619
-0.093734
-0.091186
-0.0045796
0.20684
0.49468
0.81819
1.1544
1.4372
1.6613
1.8218
1.9237
1.9721
1.9415
1.8549
1.7352
1.5722
1.3913
1.2232
1.0372
0.88951
0.74941
0.62969
0.54563
0.45647
0.39025
0.32147
0.27052
0.20939
0.16609
0.11514
0.059102
0.013251
-0.032599
-0.091186
-0.14213
-0.17779
-0.1727
-0.070808
0.1559
0.46921
0.79781
1.1417
1.4423
1.6766
1.8473
1.967
2.0001
1.9772
1.9033
1.7683
1.6027
1.4142
1.2283
1.0372
0.87168
0.73413
0.60422
0.50487
0.41572
0.3393
0.26288
0.1992
0.14571
0.087122
0.031082
-0.035147
-0.088639
-0.14213
-0.18544
-0.23893
-0.27204
-0.28223
-0.22364
-0.030052
0.26034
0.61695
0.96083
1.2996
1.5722
1.781
1.9161
2.0001
2.0154
1.9492
1.832
1.6893
1.4983
1.3073
1.1162
0.93281
0.79271
0.65771
0.55072
0.44119
0.35713
0.29345
0.23232
0.16863
0.11259
0.069291
0.010704
-0.047883
-0.093734
-0.15487
-0.19817
-0.25421
-0.28987
-0.28223
-0.18798
0.043818
0.37496
0.73413
1.0984
1.4117
1.6741
1.8549
1.9619
2.0001
1.9797
1.888
1.753
1.5849
1.399
1.2079
1.0398
0.88187
0.73667
0.61186
0.51506
0.42845
0.34949
0.28071
0.22213
0.16099
0.099858
0.038724
-0.02241
-0.075903
-0.13958
-0.18798
-0.24402
-0.28987
-0.33827
-0.34337
-0.25166
-0.02241
0.30619
0.68063
1.0576
1.3811
1.6588
1.8473
1.9594
1.9874
1.9517
1.86
1.7072
1.5289
1.3429
1.1493
0.97357
0.808
0.68063
0.56855
0.47685
0.39534
0.33675
0.27562
0.22213
0.17373
0.12278
0.076933
0.033629
-0.017316
-0.065714
-0.1243
-0.1727
-0.21091
-0.24402
-0.21091
-0.073356
0.19411
0.54563
0.93026
1.2843
1.5671
1.7887
1.9262
1.9746
1.9721
1.8753
1.7454
1.5773
1.3964
1.2079
1.0194
0.85639
0.72648
0.60676
0.5227
0.44883
0.37241
0.32402
0.27562
0.23232
0.19665
0.14316
0.10495
0.059102
0.02344
-0.024958
-0.068261
-0.093734
-0.075903
0.066744
0.33166
0.67299
1.05
1.3862
1.6792
1.9059
2.0485
2.1147
2.1351
2.0714
1.967
1.804
1.6206
1.4295
1.241
1.0602
0.90989
0.76724
0.66535
0.55582
0.48195
0.40553
0.3393
0.27307
0.22467
0.1559
0.11514
0.046366
-0.0020324
-0.058072
-0.11411
-0.1676
-0.21091
-0.20836
-0.11666
0.11005
0.43864
0.82837
1.2054
1.5442
1.8167
2.0281
2.1453
2.2064
2.1912
2.1147
1.9797
1.8116
1.6129
1.4168
1.2385
1.0576
0.8997
0.76724
0.65261
0.54563
0.45902
0.36987
0.29345
0.22213
0.1508
0.087122
0.02344
-0.042789
-0.11156
-0.1676
-0.22619
-0.27968
-0.32299
-0.30261
-0.17525
0.084574
0.431
0.79526
1.1442
1.455
1.7046
1.8778
2.0001
2.0358
2.0154
1.9262
1.7938
1.6359
1.4525
1.2563
1.0907
0.92008
0.76469
0.65261
0.53799
0.44374
0.35968
0.27817
0.20684
0.14571
0.084574
0.033629
-0.032599
-0.093734
-0.13704
-0.19308
-0.25421
-0.31025
-0.32553
-0.29497
-0.1294
0.14826
0.48959
0.86658
1.2028
1.4932
1.7225
1.8728
1.9645
1.9797
1.9364
1.832
1.6843
1.5009
1.3098
1.1162
0.94555
0.77998
0.65771
0.5278
0.4361
0.35458
0.27307
0.21958
0.1508
0.092216
0.036177
-0.019863
-0.083545
-0.1294
-0.19053
-0.24402
-0.29751
-0.35101
-0.37903
-0.35865
-0.22619
0.038724
0.39279
0.78252
1.1315
1.4346
1.6766
1.8371
1.9211
1.9364
1.8651
1.7632
1.6002
1.427
1.2232
1.0474
0.87932
0.74177
0.6144
0.51761
0.43355
0.36987
0.31638
0.25524
0.20684
0.14826
0.099858
0.041271
-0.0020324
-0.055525
-0.10902
-0.15742
-0.21345
-0.25676
-0.2644
-0.17779
0.041271
0.35713
0.73158
1.1035
1.4499
1.7148
1.9135
2.0256
2.0867
2.0638
1.9797
1.8422
1.669
1.4779
1.2843
1.1111
0.93791
0.79271
0.67299
0.57365
0.49214
0.41827
0.34185
0.27052
0.21448
0.16099
0.10241
0.038724
-0.014769
-0.086092
-0.14468
-0.18798
-0.20836
-0.1243
0.082027
0.3877
0.74177
1.0933
1.4041
1.6613
1.8498
1.9568
2.0154
2.0128
1.9262
1.8091
1.6486
1.4652
1.269
1.0806
0.90989
0.7596
0.62205
0.51251
0.41572
0.32911
0.2476
0.17628
0.11514
0.056555
-0.0045796
-0.052978
-0.12175
-0.1727
-0.2211
-0.27968
-0.33063
-0.3612
-0.33063
-0.17525
0.11514
0.47685
0.87932
1.2436
1.5747
1.8294
2.0128
2.1224
2.158
2.1224
2.0256
1.8931
1.7021
1.5085
1.3149
1.1162
0.93791
0.78507
0.64752
0.54053
0.43355
0.34439
0.27052
0.19156
0.12533
0.056555
-0.0045796
-0.080997
-0.13449
-0.20072
-0.25166
-0.30516
-0.36374
-0.39176
-0.37138
-0.2211
0.043818
0.40043
0.79017
1.1595
1.4805
1.7225
1.9135
2.0256
2.0562
2.0205
1.9288
1.8014
1.6282
1.4372
1.2436
1.0653
0.88696
0.7545
0.62205
0.52016
0.43355
0.34694
0.27052
0.20939
0.13807
0.066744
0.013251
-0.047883
-0.10902
-0.1676
-0.23129
-0.28733
-0.33063
-0.37138
-0.36629
-0.25676
-0.014769
0.33675
0.71629
1.0984
1.4295
1.697
1.9008
2.0052
2.0485
2.0205
1.9262
1.7963
1.6129
1.4193
1.2308
1.0398
0.87168
0.72394
0.59912
0.49214
0.39534
0.30873
0.24505
0.17882
0.11769
0.056555
0.0005149
-0.063167
-0.11921
-0.17525
-0.22874
-0.29497
-0.33827
-0.38667
-0.40195
-0.35865
-0.17525
0.13297
0.50742
0.90734
1.264
1.5722
1.781
1.9339
1.9899
1.9619
1.888
1.7505
1.5747
1.3888
1.1977
1.0194
0.85385
0.71629
0.60676
0.49978
0.41827
0.35458
0.296
0.23996
0.19411
0.14826
0.089669
0.05146
0.0056094
-0.060619
-0.10392
-0.1676
-0.21345
-0.24912
-0.25931
-0.16251
0.066744
0.41317
0.81054
1.2079
1.5543
1.832
2.0179
2.1275
2.1759
2.1351
2.0383
1.9008
1.7148
1.5187
1.3149
1.1366
0.96847
0.82073
0.69846
0.59148
0.50742
0.41827
0.36223
0.28836
0.22722
0.16863
0.12024
0.05146
0.0056094
-0.063167
-0.11921
-0.17525
-0.22364
-0.24912
-0.18289
0.010704
0.32911
0.72139
1.1162
1.4652
1.7658
1.9874
2.1275
2.2013
2.1937
2.13
2.0103
1.8498
1.6537
1.4474
1.2436
1.05
0.88441
0.72903
0.60931
0.50232
0.41062
0.32656
0.25269
0.18901
0.12533
0.056555
0.010704
-0.060619
-0.1243
-0.17779
-0.24402
-0.30006
-0.32299
-0.27459
-0.10647
0.18901
0.55582
0.94045
1.3149
1.6129
1.8626
2.0256
2.1147
2.1504
2.0969
1.9976
1.8524
1.6715
1.4728
1.2665
1.0806
0.8997
0.74686
0.60931
0.50232
0.40298
0.32656
0.24505
0.17373
0.10495
0.041271
-0.027505
-0.07845
-0.15232
-0.21091
-0.26695
-0.33572
-0.37648
-0.36374
-0.25421
-0.0045796
0.35204
0.73667
1.1162
1.4448
1.7072
1.8982
2.023
2.0587
2.0409
1.9594
1.8193
1.6537
1.4601
1.2614
1.0704
0.88951
0.73413
0.60422
0.50487
0.40808
0.31638
0.23741
0.17118
0.11259
0.043818
-0.019863
-0.07845
-0.13449
-0.20072
-0.2644
-0.32299
-0.36374
-0.40705
-0.4045
-0.29751
-0.040241
0.30873
0.70101
1.078
1.4244
1.6817
1.8855
2.0052
2.0409
2.0078
1.9237
1.7683
1.5976
1.4015
1.2028
1.0245
0.85385
0.71884
0.58893
0.48959
0.39534
0.30873
0.23996
0.17373
0.11005
0.05146
-0.012221
-0.070808
-0.13449
-0.18289
-0.24147
-0.28987
-0.33827
-0.37138
-0.38667
-0.28478
-0.068261
0.27307
0.66535
1.0525
1.3888
1.6639
1.8396
1.9517
1.9874
1.939
1.8498
1.6843
1.5187
1.3302
1.1468
0.97866
0.82328
0.68573
0.58129
0.48959
0.41062
0.34439
0.28581
0.23232
0.17628
0.12024
0.056555
0.0056094
-0.05043
-0.10138
-0.16251
-0.22619
-0.26949
-0.29751
-0.25166
-0.086092
0.21448
0.60422
1.0118
1.3786
1.6995
1.9339
2.0867
2.1657
2.1708
2.0969
1.9645
1.8014
1.6104
1.4015
1.2079
1.0423
0.87932
0.75196
0.62459
0.53799
0.45902
0.3877
0.32147
0.26034
0.20175
0.14316
0.07948
0.013251
-0.042789
-0.096281
-0.16251
-0.216
-0.25676
-0.22619
-0.068261
0.22722
0.59657
0.98885
1.3658
1.6792
1.9161
2.0918
2.1886
2.2039
2.1733
2.0612
1.9033
1.7301
1.5238
1.3251
1.1264
0.94555
0.79017
0.65516
0.53544
0.44629
0.36732
0.28071
0.21958
0.16354
0.099858
0.028535
-0.040241
-0.10392
-0.16251
-0.22619
-0.28733
-0.32299
-0.28987
-0.12685
0.16099
0.5227
0.91243
1.264
1.5747
1.8244
1.9976
2.0944
2.1224
2.0842
1.9797
1.8447
1.6537
1.4703
1.2665
1.0678
0.90479
0.74941
0.6195
0.49723
0.40043
0.31892
0.23486
0.1559
0.089669
0.036177
-0.040241
-0.10138
-0.15996
-0.22619
-0.27714
-0.33063
-0.37138
-0.34846
-0.20581
0.07948
0.43355
0.81819
1.1773
1.5009
1.7454
1.9364
2.0434
2.0791
2.0485
1.967
1.8142
1.6384
1.4448
1.2538
1.0653
0.89715
0.75705
0.62714
0.51251
0.42081
0.33675
0.27817
0.1992
0.1508
0.082027
0.028535
-0.030052
-0.098828
-0.16251
-0.2211
-0.27459
-0.33572
-0.33827
-0.25421
-0.042789
0.28326
0.64497
1.0016
1.3276
1.5976
1.804
1.9441
2.0001
1.9848
1.9161
1.7887
1.6104
1.4372
1.2487
1.0729
0.89715
0.7545
0.62205
0.51506
0.42591
0.34694
0.26288
0.19156
0.12278
0.054007
-0.0020324
-0.068261
-0.1243
-0.18798
-0.24912
-0.3128
-0.35865
-0.39686
-0.37393
-0.25676
-0.0020324
0.32911
0.7112
1.0755
1.3862
1.646
1.8294
1.9262
1.9466
1.9211
1.8065
1.6639
1.5009
1.3098
1.1366
0.96847
0.81054
0.68827
0.5762
0.49214
0.40553
0.3393
0.27562
0.20939
0.15844
0.099858
0.041271
-0.02241
-0.073356
-0.13449
-0.18034
-0.23129
-0.27968
-0.30006
-0.24402
-0.05043
0.24505
0.59912
0.96338
1.3022
1.5645
1.7734
1.9033
1.9594
1.9313
1.8498
1.7148
1.5492
1.3709
1.2003
1.0194
0.86658
0.74177
0.63224
0.53034
0.46157
0.39534
0.32911
0.27562
0.22722
0.17118
0.12024
0.061649
0.0030622
-0.042789
-0.098828
-0.14213
-0.18544
-0.20327
-0.11921
0.074385
0.38006
0.74941
1.1111
1.4372
1.7199
1.9339
2.0638
2.1351
2.1173
2.0485
1.939
1.7658
1.5875
1.3888
1.2028
1.0296
0.88187
0.75196
0.63478
0.54563
0.45393
0.3826
0.31128
0.25779
0.19411
0.13552
0.064196
0.010704
-0.058072
-0.11411
-0.17015
-0.21091
-0.22874
-0.14723
0.041271
0.33675
0.68573
1.0322
1.3633
1.6308
1.8269
1.9797
2.0485
2.0511
2.0052
1.8982
1.7428
1.5722
1.3888
1.2028
1.0245
0.87168
0.73667
0.62205
0.51761
0.42336
0.34439
0.27307
0.19411
0.13043
0.061649
-0.0071269
-0.068261
-0.13449
-0.18798
-0.24402
-0.30261
-0.32299
-0.28478
-0.13704
0.13807
0.48704
0.8462
1.1926
1.4958
1.7301
1.8982
2.0179
2.0536
2.0179
1.9288
1.7938
1.6257
1.4295
1.2385
1.0551
0.89206
0.74431
0.62459
0.50742
0.41062
0.31892
0.2476
0.18137
0.11259
0.036177
-0.024958
-0.086092
-0.14213
-0.21091
-0.25421
-0.31535
-0.36884
-0.38412
-0.36374
-0.20836
0.05146
0.39279
0.76469
1.1137
1.4168
1.6562
1.8371
1.9364
1.9721
1.9313
1.832
1.697
1.5314
1.3429
1.1544
0.96338
0.80035
0.66535
0.54053
0.44883
0.34949
0.28071
0.19665
0.12788
0.076933
0.010704
-0.047883
-0.10392
-0.14977
-0.20836
-0.25166
-0.3077
-0.34591
-0.38667
-0.4045
-0.33827
-0.16251
0.14316
0.50232
0.86913
1.2207
1.4983
1.7225
1.8626
1.9237
1.9186
1.8549
1.7276
1.5722
1.3837
1.2003
1.0194
0.85894
0.73413
0.6144
0.5227
0.42845
0.36732
0.30619
0.24505
0.18646
0.13552
0.087122
0.036177
-0.019863
-0.058072
-0.11666
-0.15232
-0.20581
-0.23893
-0.25421
-0.19308
-0.014769
0.28071
0.63988
1.0169
1.3531
1.6333
1.832
1.9746
2.0256
2.0078
1.9441
1.8218
1.6511
1.4703
1.2843
1.1111
0.93536
0.80035
0.68063
0.58129
0.50232
0.4361
0.36987
0.31638
0.25524
0.19411
0.14061
0.071838
0.028535
-0.035147
-0.083545
-0.13449
-0.18289
-0.216
-0.1727
-0.019863
0.26034
0.6144
0.9863
1.3404
1.6308
1.8728
2.0332
2.1275
2.1479
2.1046
2.0052
1.8575
1.6792
1.4805
1.2894
1.0882
0.92262
0.77233
0.63733
0.54053
0.44119
0.36223
0.28581
0.21703
0.16099
0.099858
0.036177
-0.017316
-0.088639
-0.14213
-0.20072
-0.25931
-0.30516
-0.3077
-0.21091
0.015798
0.35713
0.72139
1.0831
1.4219
1.6817
1.8753
2.0128
2.0638
2.0562
1.967
1.8447
1.6715
1.4779
1.2843
1.0984
0.91753
0.76469
0.62205
0.51506
0.41827
0.33166
0.25269
0.18646
0.11514
0.069291
0.0030622
-0.047883
-0.11411
-0.16251
-0.22874
-0.27204
-0.32553
-0.35355
-0.32808
-0.16506
0.12024
0.4794
0.86404
1.2207
1.5314
1.7709
1.9466
2.0383
2.0765
2.0205
1.9262
1.776
1.6078
1.4168
1.2283
1.0372
0.86658
0.72394
0.59403
0.49468
0.40298
0.32402
0.25015
0.18137
0.12024
0.064196
0.0030622
-0.058072
-0.11411
-0.17779
-0.22364
-0.26949
-0.32553
-0.34591
-0.31025
-0.14468
0.13552
0.50742
0.89206
1.2436
1.5492
1.7785
1.9466
2.023
2.0332
1.9695
1.86
1.697
1.5059
1.3149
1.1111
0.93536
0.78507
0.64752
0.53034
0.43355
0.34185
0.27562
0.20684
0.15335
0.082027
0.036177
-0.032599
-0.086092
-0.14723
-0.20072
-0.24912
-0.29242
-0.34337
-0.37138
-0.31789
-0.14213
0.15844
0.53034
0.92262
1.2741
1.5594
1.7836
1.911
1.9645
1.9466
1.86
1.725
1.5467
1.3582
1.1748
0.99395
0.82583
0.69846
0.58638
0.49468
0.41827
0.35458
0.31128
0.25779
0.20939
0.16354
0.11514
0.064196
0.013251
-0.037694
-0.093734
-0.14213
-0.19053
-0.22619
-0.19053
-0.030052
0.26543
0.63224
1.0296
1.3913
1.7097
1.9492
2.1122
2.1912
2.1861
2.1275
2.0052
1.8498
1.6511
1.455
1.2614
1.0907
0.92517
0.79781
0.68318
0.58129
0.48959
0.41572
0.35713
0.28581
0.22722
0.17373
0.11259
0.05146
-0.014769
-0.070808
-0.13704
-0.18289
-0.20836
-0.14213
0.05146
0.36477
0.73667
1.1188
1.4575
1.7479
1.9721
2.1173
2.1886
2.1835
2.1275
2.0001
1.8447
1.6511
1.4372
1.2436
1.0576
0.88951
0.73667
0.61695
0.51251
0.41062
0.3393
0.25524
0.19411
0.12024
0.059102
-0.014769
-0.068261
-0.13194
-0.18798
-0.25676
-0.30516
-0.31535
-0.22874
0.010704
0.32911
0.70611
1.0831
1.4193
1.6893
1.9059
2.0332
2.1071
2.0969
2.0281
1.9033
1.7327
1.534
1.3429
1.1442
0.96338
0.80545
0.66026
0.53544
0.43355
0.34185
0.26543
0.18137
0.11259
0.048913
-0.019863
-0.075903
-0.14723
-0.20836
-0.27459
-0.33063
-0.37648
-0.41214
-0.35101
-0.17779
0.12024
0.49723
0.88441
1.2436
1.5492
1.7861
1.9517
2.0383
2.0485
2.0001
1.8906
1.7403
1.562
1.3658
1.1697
0.98376
0.81309
0.67299
0.56091
0.45393
0.37241
0.28581
0.21448
0.15335
0.082027
0.020893
-0.05043
-0.10647
-0.1676
-0.22874
-0.28987
-0.33572
-0.38667
-0.40705
-0.32553
-0.12175
0.19156
0.56601
0.95319
1.2996
1.5747
1.7912
1.9364
2.0027
1.9925
1.9186
1.7912
1.6333
1.4474
1.2589
1.0755
0.90989
0.7596
0.62969
0.52016
0.431
0.35458
0.26798
0.20175
0.14061
0.076933
0.015798
-0.042789
-0.098828
-0.16506
-0.20836
-0.27459
-0.33318
-0.37393
-0.40195
-0.35355
-0.19308
0.097311
0.46157
0.85894
1.2232
1.5263
1.7632
1.9237
2.0001
2.0154
1.9568
1.8447
1.6893
1.4932
1.3073
1.1188
0.94555
0.78762
0.6679
0.55327
0.46921
0.3826
0.30619
0.24505
0.18137
0.12024
0.054007
0.0056094
-0.060619
-0.11666
-0.18034
-0.22619
-0.26949
-0.32553
-0.3561
-0.37903
-0.30261
-0.10138
0.22213
0.61695
0.99904
1.3633
1.6435
1.8447
1.9746
2.0256
1.9848
1.9033
1.7607
1.5824
1.3964
1.2079
1.0398
0.88696
0.74941
0.63478
0.54308
0.46921
0.39789
0.33675
0.27052
0.21958
0.17373
0.12788
0.071838
0.020893
-0.035147
-0.083545
-0.12175
-0.1727
-0.20327
-0.20836
-0.11921
0.10241
0.4361
0.83347
1.2232
1.5645
1.8473
2.0511
2.1682
2.2192
2.209
2.1351
1.9976
1.8218
1.6206
1.427
1.2385
1.0627
0.91243
0.77233
0.67299
0.57365
0.48704
0.41062
0.3393
0.27817
0.20939
0.14316
0.074385
0.020893
-0.047883
-0.10138
-0.1727
-0.2211
-0.25676
-0.22619
-0.080997
0.1992
0.55072
0.9481
1.3124
1.6257
1.8931
2.0791
2.1912
2.2319
2.2166
2.1351
1.9848
1.8142
1.6206
1.4066
1.2105
1.0296
0.87677
0.73158
0.60931
0.49978
0.40808
0.32147
0.23996
0.16609
0.087122
0.031082
-0.042789
-0.11921
-0.17779
-0.23893
-0.30006
-0.35355
-0.38922
-0.36884
-0.22619
0.038724
0.39534
0.79781
1.1621
1.4932
1.7505
1.9364
2.0587
2.1046
2.0816
2.0001
1.8702
1.697
1.4983
1.3022
1.1213
0.94045
0.78507
0.63988
0.54053
0.43355
0.3393
0.26288
0.17628
0.1075
0.031082
-0.035147
-0.083545
-0.15232
-0.21091
-0.26949
-0.31789
-0.38412
-0.41469
-0.44016
-0.38412
-0.20581
0.10241
0.4794
0.88187
1.2334
1.534
1.7861
1.9415
2.0383
2.0587
2.0078
1.9135
1.753
1.5824
1.3811
1.1926
1.0092
0.8513
0.70865
0.58129
0.47176
0.39025
0.30619
0.23232
0.14826
0.07948
0.018346
-0.040241
-0.11156
-0.1727
-0.216
-0.28223
-0.33572
