2	
2	
2	
2	
2	
2	
2	
2	
2	
2	
2	
2	
2	
2	
2	
2	
2	
2	
2	
2	
2	
2	
2	
2	
2	
2	
2	
2	
2	
1.82727	
1.41707	
1.05385	
0.705706	
0.378341	
0.0692932	
-0.223121	
-0.501815	
-0.770541	
-1.02432	
-1.25583	
-1.45401	
-1.61186	
-1.73697	
-1.84214	
-1.94285	
-1.99994	
-1.99994	
-1.99994	
-1.99994	
-1.99994	
-1.99994	
-1.99994	
-1.99994	
-1.99994	
-1.99994	
-1.99994	
-1.99994	
-1.99994	
-1.99994	
-1.99994	
-1.99994	
-1.99994	
-1.99994	
-1.99994	
-1.99994	
-1.99994	
-1.99994	
-1.99994	
-1.99994	
-1.99994	
-1.99994	
-1.99994	
-1.99994	
-1.99994	
-1.99994	
-1.99994	
-1.99994	
-1.99994	
-1.99994	
-1.99994	
-1.99994	
-1.99994	
-1.99994	
-1.99994	
-1.99994	
-1.99994	
-1.99994	
-1.99994	
-1.99994	
-1.99994	
-1.99994	
-1.99994	
-1.99994	
-1.99994	
-1.99994	
-1.99994	
-1.99994	
-1.99994	
-1.99994	
-1.99994	
-1.99994	
-1.99994	
-1.99994	
-1.99994	
-1.99994	
-1.99994	
-1.99994	
-1.99994	
-1.99994	
-1.99994	
-1.99994	
-1.99994	
-1.99994	
-1.99994	
-1.99994	
-1.99994	
-1.99994	
-1.99994	
-1.99994	
-1.99994	
-1.99994	
-1.99994	
-1.99994	
-1.99994	
-1.99994	
-1.99994	
-1.99994	
-1.99994	
-1.99994	
-1.99994	
-1.99994	
-1.99994	
-1.99994	
-1.99994	
-1.99994	
-1.99994	
-1.99994	
-1.99994	
-1.99994	
-1.99994	
-1.99994	
-1.99994	
-1.99994	
-1.99994	
-1.99994	
-1.99994	
-1.99994	
-1.99994	
-1.99994	
-1.99994	
-1.99994	
-1.99994	
-1.99994	
-1.99994	
-1.99994	
-1.99994	
-1.99994	
-1.99994	
-1.99994	
-1.99994	
-1.99994	
-1.99994	
-1.99994	
-1.99994	
-1.99994	
-1.99994	
-1.99994	
-1.99994	
-1.99994	
-1.99994	
-1.99994	
-1.99994	
-1.99994	
-1.99994	
-1.99994	
-1.99994	
-1.99994	
-1.99994	
-1.99994	
-1.99994	
-1.99994	
-1.99994	
-1.99994	
-1.99994	
-1.99994	
-1.99994	
-1.99994	
-1.99994	
-1.99994	
-1.99994	
-1.99994	
-1.99994	
-1.99994	
-1.99994	
-1.99994	
-1.99994	
-1.99994	
-1.99994	
-1.99709	
-1.91146	
-1.84163	
-1.78545	
-1.74118	
-1.70623	
-1.676	
-1.64998	
-1.63005	
-1.61788	
-1.61387	
-1.62092	
-1.64287	
-1.67497	
-1.71037	
-1.74254	
-1.76448	
-1.77826	
-1.78648	
-1.78959	
-1.79069	
-1.79211	
-1.79373	
-1.79613	
-1.7969	
-1.79619	
-1.7947	
-1.79347	
-1.79082	
-1.78597	
-1.78008	
-1.77102	
-1.76092	
-1.75011	
-1.74014	
-1.7292	
-1.71794	
-1.7061	
-1.69665	
-1.68752	
-1.67542	
-1.65646	
-1.62261	
-1.565	
-1.48203	
-1.38682	
-1.29259	
-1.21052	
-1.14192	
-1.08716	
-1.04386	
-1.01254	
-0.990143	
-0.974933	
-0.965743	
-0.961212	
-0.965872	
-0.979593	
-1.00496	
-1.03978	
-1.07978	
-1.11829	
-1.14962	
-1.17156	
-1.18483	
-1.19784	
-1.21052	
-1.21926	
-1.2291	
-1.23868	
-1.25078	
-1.26398	
-1.27531	
-1.2843	
-1.29162	
-1.29913	
-1.30586	
-1.31026	
-1.31608	
-1.31932	
-1.31919	
-1.31893	
-1.31815	
-1.31498	
-1.30896	
-1.30055	
-1.2911	
-1.28249	
-1.27291	
-1.26269	
-1.25453	
-1.2467	
-1.24029	
-1.23194	
-1.22444	
-1.21356	
-1.18593	
-1.13014	
-1.04477	
-0.94419	
-0.84413	
-0.753519	
-0.6798	
-0.620968	
-0.57864	
-0.545696	
-0.519678	
-0.502527	
-0.492624	
-0.493919	
-0.501038	
-0.517607	
-0.547314	
-0.587118	
-0.627958	
-0.667438	
-0.700123	
-0.724523	
-0.743099	
-0.758049	
-0.772224	
-0.783615	
-0.793905	
-0.803614	
-0.813257	
-0.821283	
-0.829826	
-0.834939	
-0.839081	
-0.842835	
-0.845554	
-0.844971	
-0.841153	
-0.833386	
-0.82439	
-0.814293	
-0.804908	
-0.795006	
-0.786915	
-0.780249	
-0.771965	
-0.762968	
-0.754425	
-0.741481	
-0.713844	
-0.662002	
-0.586665	
-0.498967	
-0.410556	
-0.333214	
-0.273281	
-0.229205	
-0.199951	
-0.183252	
-0.171861	
-0.166425	
-0.165972	
-0.172638	
-0.188819	
-0.216584	
-0.251728	
-0.295351	
-0.340786	
-0.379555	
-0.412304	
-0.438969	
-0.457156	
-0.470166	
-0.482657	
-0.492689	
-0.504015	
-0.514694	
-0.524144	
-0.532234	
-0.538318	
-0.544078	
-0.550939	
-0.557087	
-0.560323	
-0.563754	
-0.566666	
-0.570485	
-0.573203	
-0.573656	
-0.572168	
-0.570679	
-0.569838	
-0.568996	
-0.565178	
-0.559547	
-0.553592	
-0.547961	
-0.541101	
-0.530033	
-0.511458	
-0.474243	
-0.409068	
-0.322599	
-0.235224	
-0.157946	
-0.0958129	
-0.0484363	
-0.0155575	
0.00534773	
0.0200397	
0.0279357	
0.0281299	
0.022758	
0.00929578	
-0.0138747	
-0.0467536	
-0.0857163	
-0.132381	
-0.181311	
-0.223963	
-0.25943	
-0.286096	
-0.305771	
-0.321305	
-0.335285	
-0.348035	
-0.361174	
-0.372435	
-0.382079	
-0.393988	
-0.408226	
-0.423889	
-0.439681	
-0.457609	
-0.472496	
-0.486281	
-0.498514	
-0.508999	
-0.515406	
-0.517218	
-0.515859	
-0.513076	
-0.510746	
-0.509452	
-0.50874	
-0.506798	
-0.504145	
-0.499355	
-0.491524	
-0.481945	
-0.472107	
-0.455797	
-0.420006	
-0.35276	
-0.266097	
-0.176068	
-0.097884	
-0.0376277	
0.0078719	
0.0426924	
0.0672868	
0.0832084	
0.0920106	
0.0946642	
0.0929815	
0.0845676	
0.0630798	
0.0314955	
-0.00766141	
-0.0490188	
-0.0901174	
-0.123967	
-0.151733	
-0.173415	
-0.192637	
-0.210047	
-0.225581	
-0.239431	
-0.250499	
-0.261307	
-0.271986	
-0.283054	
-0.293086	
-0.302341	
-0.31192	
-0.321758	
-0.331337	
-0.338197	
-0.342534	
-0.347194	
-0.350235	
-0.352048	
-0.352695	
-0.356514	
-0.359491	
-0.360332	
-0.362274	
-0.36551	
-0.36674	
-0.365898	
-0.361432	
-0.357225	
-0.352371	
-0.348941	
-0.342469	
-0.322017	
-0.273993	
-0.199692	
-0.113741	
-0.0311555	
0.0409449	
0.101654	
0.148254	
0.180227	
0.199773	
0.210323	
0.212523	
0.205533	
0.191812	
0.172719	
0.141652	
0.102107	
0.0558957	
0.0100077	
-0.0316733	
-0.065523	
-0.093224	
-0.114776	
-0.133287	
-0.150244	
-0.167331	
-0.182864	
-0.196715	
-0.209012	
-0.220727	
-0.233477	
-0.24791	
-0.262278	
-0.27341	
-0.283636	
-0.292892	
-0.299752	
-0.305124	
-0.311532	
-0.316192	
-0.317939	
-0.316321	
-0.315739	
-0.316709	
-0.31548	
-0.311208	
-0.305707	
-0.300853	
-0.297746	
-0.295222	
-0.291338	
-0.281371	
-0.2549	
-0.201245	
-0.125973	
-0.041058	
0.0375793	
0.103078	
0.156409	
0.197055	
0.225791	
0.243137	
0.252133	
0.252974	
0.245467	
0.230257	
0.20631	
0.172525	
0.128967	
0.0816551	
0.0342138	
-0.00688474	
-0.039893	
-0.0651994	
-0.085069	
-0.102285	
-0.120278	
-0.138141	
-0.155034	
-0.172379	
-0.188301	
-0.202022	
-0.215225	
-0.225257	
-0.2338	
-0.24215	
-0.249852	
-0.256712	
-0.265061	
-0.270045	
-0.274381	
-0.277035	
-0.278912	
-0.278782	
-0.277941	
-0.277164	
-0.276517	
-0.275611	
-0.27341	
-0.271922	
-0.268103	
-0.264673	
-0.2549	
-0.228493	
-0.176651	
-0.102285	
-0.0174344	
0.0599085	
0.124501	
0.174596	
0.211099	
0.238153	
0.255369	
0.264366	
0.26566	
0.257634	
0.24359	
0.219772	
0.185728	
0.143982	
0.0982239	
0.0514299	
0.0107197	
-0.0191172	
-0.0466241	
-0.0711538	
-0.090441	
-0.107463	
-0.121766	
-0.135229	
-0.147785	
-0.160082	
-0.17225	
-0.185647	
-0.198592	
-0.209335	
-0.220274	
-0.232765	
-0.245386	
-0.256259	
-0.262537	
-0.267068	
-0.271922	
-0.27587	
-0.278006	
-0.279365	
-0.278329	
-0.277747	
-0.279559	
-0.280271	
-0.280789	
-0.281048	
-0.279235	
-0.278718	
-0.276258	
-0.266744	
-0.238849	
-0.182217	
-0.104097	
-0.0193761	
0.0600379	
0.125148	
0.176732	
0.214788	
0.24016	
0.254463	
0.262294	
0.26443	
0.260612	
0.247149	
0.224108	
0.190971	
0.145795	
0.0959587	
0.0503943	
0.0122083	
-0.0182111	
-0.0436469	
-0.0650699	
-0.0824154	
-0.096719	
-0.111411	
-0.12455	
-0.137235	
-0.149597	
-0.161894	
-0.174256	
-0.185259	
-0.197038	
-0.204675	
-0.212183	
-0.219367	
-0.224027	
-0.227005	
-0.231276	
-0.233542	
-0.236842	
-0.24215	
-0.243962	
-0.244803	
-0.244221	
-0.243444	
-0.241632	
-0.23613	
-0.222862	
-0.188171	
-0.126426	
-0.0464299	
0.0341491	
0.106767	
0.164564	
0.206569	
0.234658	
0.252457	
0.260353	
0.261647	
0.258799	
0.253363	
0.241066	
0.215177	
0.178285	
0.136151	
0.0949231	
0.0594554	
0.028583	
0.0055419	
-0.0143925	
-0.0331619	
-0.0509605	
-0.0653935	
-0.0781438	
-0.0903115	
-0.101055	
-0.109858	
-0.118854	
-0.128239	
-0.137429	
-0.14429	
-0.150956	
-0.158658	
-0.165389	
-0.169467	
-0.170243	
-0.168561	
-0.167072	
-0.163124	
-0.160923	
-0.156328	
-0.140277	
-0.0994373	
-0.0341975	
0.0408154	
0.114793	
0.179903	
0.231034	
0.269932	
0.300804	
0.319574	
0.331353	
0.336854	
0.333295	
0.322421	
0.303069	
0.275821	
0.237959	
0.191877	
0.143853	
0.0983534	
0.0589376	
0.0294891	
0.00528301	
-0.0167225	
-0.0351683	
-0.049666	
-0.0619632	
-0.0738074	
-0.0862988	
-0.102609	
-0.117689	
-0.128498	
-0.137041	
-0.144613	
-0.152121	
-0.159694	
-0.165519	
-0.170955	
-0.177427	
-0.18377	
-0.187783	
-0.190696	
-0.19432	
-0.198203	
-0.200339	
-0.202087	
-0.202475	
-0.20474	
-0.206617	
-0.205776	
-0.203575	
-0.200792	
-0.199821	
-0.195226	
-0.189336	
-0.178528	
-0.148626	
-0.0905704	
-0.0105739	
0.0776423	
0.161069	
0.234982	
0.29362	
0.33666	
0.367015	
0.385849	
0.393486	
0.393098	
0.382483	
0.365591	
0.345139	
0.315367	
0.274851	
0.22948	
0.183398	
0.140034	
0.10379	
0.0707171	
0.0442457	
0.0219166	
0.00146441	
-0.0177581	
-0.0354272	
-0.051543	
-0.0672057	
-0.082286	
-0.0980782	
-0.112317	
-0.126621	
-0.141377	
-0.154581	
-0.164418	
-0.17225	
-0.179499	
-0.184676	
-0.191861	
-0.199627	
-0.20584	
-0.210177	
-0.21419	
-0.218461	
-0.220144	
-0.221568	
-0.224092	
-0.224675	
-0.224416	
-0.225128	
-0.224027	
-0.221439	
-0.218397	
-0.213542	
-0.199045	
-0.163642	
-0.102738	
-0.0230005	
0.0636623	
0.145859	
0.213753	
0.266631	
0.306564	
0.33433	
0.353682	
0.364426	
0.366885	
0.360802	
0.346498	
0.323004	
0.288636	
0.24592	
0.202168	
0.157574	
0.114793	
0.0784837	
0.048841	
0.0230816	
0.00185274	
-0.0176933	
-0.0357508	
-0.0544555	
-0.0726424	
-0.0897938	
-0.107657	
-0.123643	
-0.139565	
-0.154386	
-0.167719	
-0.181893	
-0.194773	
-0.205258	
-0.214125	
-0.221762	
-0.227522	
-0.233024	
-0.237166	
-0.238913	
-0.240532	
-0.241243	
-0.24215	
-0.244221	
-0.244415	
-0.242926	
-0.242603	
-0.240855	
-0.237684	
-0.233606	
-0.2305	
-0.220079	
-0.187912	
-0.126491	
-0.0441647	
0.0452165	
0.126249	
0.191294	
0.2388	
0.27388	
0.298862	
0.31226	
0.317049	
0.314978	
0.305723	
0.28773	
0.261259	
0.223202	
0.178868	
0.13408	
0.094017	
0.0613324	
0.0356377	
0.0137616	
-0.00779085	
-0.0266897	
-0.0446177	
-0.061316	
-0.0763316	
-0.0909587	
-0.104615	
-0.116783	
-0.127591	
-0.140665	
-0.151474	
-0.161247	
-0.170761	
-0.175292	
-0.179563	
-0.183252	
-0.185906	
-0.18733	
-0.190437	
-0.191472	
-0.190437	
-0.191407	
-0.191278	
-0.189466	
-0.186942	
-0.185259	
-0.18377	
-0.182087	
-0.179369	
-0.170308	
-0.145908	
-0.0965248	
-0.0208647	
0.067934	
0.153561	
0.227086	
0.284882	
0.32747	
0.355753	
0.372451	
0.379959	
0.379312	
0.371028	
0.356271	
0.335172	
0.30404	
0.261388	
0.215306	
0.167541	
0.122365	
0.084697	
0.0546013	
0.0287771	
0.00664218	
-0.0134864	
-0.0327736	
-0.0498602	
-0.0674646	
-0.0831921	
-0.099049	
-0.113417	
-0.125326	
-0.135876	
-0.143901	
-0.151798	
-0.158334	
-0.163965	
-0.170179	
-0.174256	
-0.176845	
-0.180664	
-0.18377	
-0.184612	
-0.183188	
-0.182217	
-0.179369	
-0.178657	
-0.177686	
-0.178334	
-0.17924	
-0.180211	
-0.179757	
-0.178269	
-0.174903	
-0.166813	
-0.143125	
-0.0926415	
-0.0154281	
0.0771245	
0.168189	
0.247667	
0.309865	
0.354329	
0.384813	
0.405589	
0.41944	
0.424164	
0.419504	
0.408178	
0.388567	
0.360413	
0.32145	
0.272132	
0.218154	
0.16657	
0.119129	
0.0799076	
0.0507179	
0.0270944	
0.00664218	
-0.0113506	
-0.030573	
-0.0495366	
-0.0666232	
-0.0833215	
-0.0973015	
-0.108434	
-0.121508	
-0.133934	
-0.148108	
-0.161312	
-0.171085	
-0.178981	
-0.185388	
-0.191796	
-0.199433	
-0.204611	
-0.206747	
-0.209465	
-0.211471	
-0.212636	
-0.212572	
-0.212119	
-0.210047	
-0.206423	
-0.204287	
-0.201957	
-0.200274	
-0.196715	
-0.190113	
-0.168431	
-0.11989	
-0.0453297	
0.0450224	
0.133756	
0.209546	
0.269932	
0.313231	
0.343715	
0.363649	
0.376594	
0.380542	
0.376529	
0.365267	
0.34488	
0.316661	
0.276857	
0.228768	
0.178285	
0.131621	
0.0908456	
0.0583551	
0.0321427	
0.0107844	
-0.00921474	
-0.027078	
-0.0429997	
-0.0584683	
-0.0762021	
-0.093936	
-0.109275	
-0.123773	
-0.1395	
-0.152963	
-0.165454	
-0.177492	
-0.187783	
-0.196974	
-0.203964	
-0.208947	
-0.204611	
-0.182864	
-0.134776	
-0.0626105	
0.0168683	
0.0885804	
0.146118	
0.18657	
0.21097	
0.225079	
0.230451	
0.23084	
0.224303	
0.212005	
0.191294	
0.160034	
0.118806	
0.0723998	
0.0283241	
-0.00915002	
-0.0362039	
-0.0582094	
-0.0760079	
-0.0918649	
-0.107851	
-0.123838	
-0.140795	
-0.155098	
-0.167654	
-0.177945	
-0.190178	
-0.201375	
-0.211018	
-0.221697	
-0.231276	
-0.238525	
-0.243832	
-0.249528	
-0.252505	
-0.253411	
-0.25257	
-0.250175	
-0.248104	
-0.243573	
-0.240661	
-0.239108	
-0.236325	
-0.233347	
-0.231406	
-0.231147	
-0.233024	
-0.231212	
-0.228428	
-0.227263	
-0.223833	
-0.220662	
-0.217361	
-0.212766	
-0.209594	
-0.20487	
-0.20131	
-0.197038	
-0.191019	
-0.185518	
-0.180405	
-0.173803	
-0.167719	
-0.158076	
-0.135164	
-0.0833215	
0.00353552	
0.112722	
0.222555	
0.316726	
0.390574	
0.442222	
0.474324	
0.492576	
0.498142	
0.492835	
0.480214	
0.459632	
0.428501	
0.387079	
0.336272	
0.283782	
0.232458	
0.185728	
0.146507	
0.116411	
0.0887745	
0.0645037	
0.0419157	
0.0212694	
-2.41994E-05	
-0.0172403	
-0.0328383	
-0.0507663	
-0.0677235	
-0.0818329	
-0.0916707	
-0.10235	
-0.112576	
-0.121443	
-0.129921	
-0.139177	
-0.146231	
-0.150633	
-0.155746	
-0.162477	
-0.168366	
-0.173674	
-0.17458	
-0.172703	
-0.168431	
-0.164612	
-0.159564	
-0.154581	
-0.152121	
-0.148497	
-0.142995	
-0.136717	
-0.123126	
-0.0905704	
-0.0308319	
0.0518829	
0.143206	
0.230581	
0.300739	
0.35297	
0.391739	
0.418728	
0.434196	
0.440151	
0.43918	
0.429472	
0.411997	
0.386173	
0.351287	
0.309089	
0.258088	
0.203333	
0.151943	
0.105602	
0.0686459	
0.0407507	
0.0184216	
-0.00170697	
-0.0217061	
-0.0380808	
-0.0532258	
-0.0673352	
-0.0802149	
-0.0938712	
-0.106233	
-0.116395	
-0.12552	
-0.134258	
-0.142866	
-0.149985	
-0.156716	
-0.161829	
-0.16869	
-0.173674	
-0.178722	
-0.184094	
-0.188495	
-0.192637	
-0.197621	
-0.202151	
-0.207588	
-0.211665	
-0.213089	
-0.212636	
-0.213154	
-0.21419	
-0.21186	
-0.202345	
-0.176521	
-0.121184	
-0.0345211	
0.0662512	
0.163205	
0.24579	
0.310383	
0.356853	
0.386302	
0.403583	
0.41245	
0.414456	
0.410184	
0.396916	
0.375299	
0.344815	
0.303264	
0.252521	
0.19699	
0.143206	
0.0953115	
0.0575785	
0.0276769	
0.00211163	
-0.0224828	
-0.0432586	
-0.0638402	
-0.0837099	
-0.103256	
-0.121831	
-0.140665	
-0.156911	
-0.173674	
-0.18843	
-0.199627	
-0.207264	
-0.213154	
-0.215743	
-0.217555	
-0.220015	
-0.220468	
-0.220597	
-0.219756	
-0.215743	
-0.213284	
-0.210565	
-0.207523	
-0.204093	
-0.201892	
-0.200469	
-0.196909	
-0.193932	
-0.189725	
-0.185841	
-0.178981	
-0.158464	
-0.108693	
-0.0264308	
0.0691637	
0.16204	
0.239642	
0.298927	
0.338213	
0.365073	
0.380606	
0.385655	
0.381513	
0.370575	
0.354977	
0.331806	
0.297115	
0.251939	
0.199061	
0.145924	
0.0977709	
0.0583551	
0.0279357	
0.00353552	
-0.0162047	
-0.0356861	
-0.0528374	
-0.0698593	
-0.0853926	
-0.100473	
-0.115747	
-0.131798	
-0.14416	
-0.153739	
-0.1606	
-0.169337	
-0.177233	
-0.184935	
-0.190113	
-0.194773	
-0.199433	
-0.203057	
-0.204222	
-0.204287	
-0.204805	
-0.20584	
-0.2083	
-0.209918	
-0.209918	
-0.208106	
-0.208365	
-0.206358	
-0.20118	
-0.183447	
-0.140212	
-0.0650699	
0.033696	
0.139064	
0.232134	
0.30527	
0.356012	
0.388179	
0.408243	
0.418275	
0.420734	
0.417692	
0.409796	
0.389279	
0.358666	
0.316337	
0.265336	
0.207022	
0.148837	
0.0977062	
0.053501	
0.0213988	
-0.00416641	
-0.0262366	
-0.0451355	
-0.0626752	
-0.0802796	
-0.0949715	
-0.107204	
-0.117948	
-0.130051	
-0.1395	
-0.149079	
-0.159694	
-0.16636	
-0.172379	
-0.178269	
-0.182411	
-0.1861	
-0.187524	
-0.188236	
-0.18623	
-0.187071	
-0.188171	
-0.187654	
-0.185906	
-0.184871	
-0.186747	
-0.190825	
-0.192249	
-0.191537	
-0.189595	
-0.186489	
-0.181311	
-0.167849	
-0.13154	
-0.0635813	
0.030913	
0.133756	
0.224756	
0.299833	
0.357112	
0.400023	
0.426883	
0.441251	
0.446235	
0.444293	
0.435232	
0.416333	
0.388632	
0.350575	
0.302552	
0.249156	
0.1922	
0.136539	
0.0867681	
0.047676	
0.0153149	
-0.00915002	
-0.0304436	
-0.0497308	
-0.0661055	
-0.0817682	
-0.0998904	
-0.11756	
-0.132899	
-0.15005	
-0.164742	
-0.178075	
-0.189984	
-0.199886	
-0.207135	
-0.216908	
-0.226681	
-0.231665	
-0.234642	
-0.237943	
-0.241049	
-0.244738	
-0.246939	
-0.248428	
-0.248492	
-0.247522	
-0.245256	
-0.241567	
-0.237037	
-0.233671	
-0.229011	
-0.224416	
-0.213348	
-0.182541	
-0.118919	
-0.0258483	
0.0769951	
0.170324	
0.246438	
0.30417	
0.347469	
0.376594	
0.391609	
0.398988	
0.399182	
0.389991	
0.370769	
0.341061	
0.300222	
0.251615	
0.196343	
0.136863	
0.082367	
0.039521	
0.0055419	
-0.0241655	
-0.0472713	
-0.0707655	
-0.0929651	
-0.111929	
-0.126621	
-0.138594	
-0.150438	
-0.162153	
-0.173674	
-0.185841	
-0.195679	
-0.202799	
-0.208882	
-0.215872	
-0.219109	
-0.21995	
-0.22105	
-0.222345	
-0.223898	
-0.223898	
-0.224092	
-0.224739	
-0.226357	
-0.227328	
-0.223963	
-0.222086	
-0.21995	
-0.213866	
-0.193867	
-0.148561	
-0.0725777	
0.0229521	
0.122042	
0.207863	
0.274074	
0.322098	
0.356142	
0.376205	
0.385137	
0.386108	
0.37983	
0.367791	
0.348245	
0.318344	
0.275368	
0.223914	
0.17026	
0.119647	
0.0747945	
0.0382266	
0.00884273	
-0.0171108	
-0.0406697	
-0.0615102	
-0.0795029	
-0.0958776	
-0.110634	
-0.126685	
-0.142283	
-0.15361	
-0.162541	
-0.168431	
-0.173803	
-0.181246	
-0.189466	
-0.195809	
-0.201504	
-0.205905	
-0.209141	
-0.212248	
-0.212442	
-0.212119	
-0.210436	
-0.209789	
-0.209983	
-0.209724	
-0.209659	
-0.207912	
-0.205711	
-0.203899	
-0.202281	
-0.194255	
-0.170567	
-0.1162	
-0.0308966	
0.0689696	
0.1678	
0.251809	
0.318603	
0.36695	
0.401512	
0.423064	
0.43562	
0.437756	
0.431672	
0.414521	
0.390638	
0.358795	
0.314396	
0.260676	
0.199643	
0.139711	
0.0857326	
0.0401682	
0.00366496	
-0.0261719	
-0.050378	
-0.0721893	
-0.0924474	
-0.113547	
-0.130763	
-0.143966	
-0.155681	
-0.166231	
-0.173868	
-0.181181	
-0.190631	
-0.200727	
-0.208753	
-0.214384	
-0.218397	
-0.220532	
-0.222021	
-0.221697	
-0.219303	
-0.218202	
-0.218655	
-0.217102	
-0.214966	
-0.210824	
-0.206682	
-0.205646	
-0.205129	
-0.204805	
-0.202928	
-0.191343	
-0.158593	
-0.0940007	
-0.00546086	
0.0885804	
0.173949	
0.241972	
0.292261	
0.327017	
0.349669	
0.36242	
0.366303	
0.362678	
0.349475	
0.32501	
0.291549	
0.245078	
0.189223	
0.130391	
0.077707	
0.0338255	
0.00191746	
-0.0217708	
-0.0419641	
-0.0603452	
-0.0768493	
-0.0916707	
-0.106816	
-0.121443	
-0.133611	
-0.143643	
-0.151927	
-0.158982	
-0.163318	
-0.166878	
-0.169337	
-0.171926	
-0.174709	
-0.176262	
-0.17691	
-0.176327	
-0.175162	
-0.17445	
-0.174127	
-0.173091	
-0.171667	
-0.169855	
-0.168755	
-0.165519	
-0.162477	
-0.159888	
-0.154063	
-0.135034	
-0.0903115	
-0.0162694	
0.0753123	
0.170195	
0.252716	
0.316985	
0.365979	
0.400864	
0.420475	
0.431737	
0.433808	
0.427077	
0.411673	
0.386302	
0.350575	
0.30527	
0.25058	
0.189806	
0.131426	
0.0797134	
0.0370616	
0.00411801	
-0.0205411	
-0.0415111	
-0.0600216	
-0.0775613	
-0.0976251	
-0.116783	
-0.133546	
-0.146879	
-0.157493	
-0.166813	
-0.173997	
-0.181764	
-0.188236	
-0.193349	
-0.197491	
-0.199951	
-0.201634	
-0.201245	
-0.201375	
-0.201828	
-0.200404	
-0.199304	
-0.19885	
-0.197815	
-0.195226	
-0.192961	
-0.193996	
-0.193932	
-0.192314	
-0.188948	
-0.176974	
-0.139694	
-0.0692768	
0.0269649	
0.128126	
0.22029	
0.294138	
0.351999	
0.394198	
0.424876	
0.443257	
0.451412	
0.451542	
0.443905	
0.426689	
0.39834	
0.358666	
0.306629	
0.245855	
0.183139	
0.124954	
0.0756359	
0.0381618	
0.00838967	
-0.0153633	
-0.0372394	
-0.0569149	
-0.0749724	
-0.0921237	
-0.109534	
-0.126297	
-0.141701	
-0.154645	
-0.167201	
-0.179434	
-0.188689	
-0.195938	
-0.203964	
-0.210889	
-0.215225	
-0.220791	
-0.222603	
-0.222345	
-0.222733	
-0.222474	
-0.222862	
-0.222603	
-0.223057	
-0.224351	
-0.224286	
-0.222345	
-0.219173	
-0.214837	
-0.207717	
-0.187071	
-0.140665	
-0.0632577	
0.0346668	
0.134209	
0.221584	
0.292584	
0.347533	
0.388244	
0.416074	
0.432643	
0.441381	
0.438597	
0.428048	
0.406689	
0.373616	
0.328505	
0.27032	
0.204562	
0.141911	
0.0869623	
0.043016	
0.00722468	
-0.0225475	
-0.0477244	
-0.0675293	
-0.0845513	
-0.100085	
-0.115618	
-0.129857	
-0.145455	
-0.15937	
-0.171732	
-0.185971	
-0.196909	
-0.206358	
-0.212377	
-0.218202	
-0.221633	
-0.223833	
-0.227652	
-0.228623	
-0.226293	
-0.223768	
-0.22118	
-0.219497	
-0.220856	
-0.220468	
-0.221762	
-0.218008	
-0.203964	
-0.163253	
-0.0884993	
0.00599496	
0.101589	
0.183398	
0.245661	
0.292843	
0.326887	
0.349346	
0.360802	
0.361384	
0.352905	
0.337955	
0.313684	
0.277051	
0.22838	
0.17259	
0.115828	
0.0683223	
0.0282594	
-0.00125392	
-0.0253305	
-0.0465594	
-0.0624163	
-0.0758138	
-0.0890171	
-0.101185	
-0.112641	
-0.122349	
-0.132316	
-0.142348	
-0.148885	
-0.157428	
-0.163901	
-0.169661	
-0.175745	
-0.179369	
-0.181764	
-0.183706	
-0.185	
-0.187201	
-0.189401	
-0.190631	
-0.190307	
-0.19089	
-0.191731	
-0.189272	
-0.179628	
-0.154386	
-0.0980135	
-0.0118683	
0.0868976	
0.179062	
0.258411	
0.319315	
0.363649	
0.392127	
0.408566	
0.415815	
0.416268	
0.410443	
0.394586	
0.368956	
0.330447	
0.279316	
0.218866	
0.156927	
0.101072	
0.0529832	
0.0142794	
-0.0167872	
-0.0401519	
-0.0593096	
-0.0773024	
-0.0938065	
-0.109275	
-0.125197	
-0.140471	
-0.154322	
-0.166942	
-0.178916	
-0.18966	
-0.196262	
-0.202993	
-0.209206	
-0.212572	
-0.213801	
-0.215225	
-0.216002	
-0.218267	
-0.218526	
-0.21872	
-0.221439	
-0.224675	
-0.224739	
-0.22215	
-0.215937	
-0.197232	
-0.149985	
-0.0708949	
0.0250233	
0.124113	
0.208446	
0.272715	
0.322939	
0.358536	
0.380412	
0.391739	
0.395169	
0.394392	
0.384943	
0.36339	
0.330835	
0.283588	
0.227215	
0.169289	
0.111686	
0.0634035	
0.0270296	
-0.000930309	
-0.024295	
-0.0447472	
-0.064358	
-0.0848101	
-0.105327	
-0.12222	
-0.136329	
-0.148885	
-0.160147	
-0.171214	
-0.183252	
-0.193349	
-0.20118	
-0.20707	
-0.212766	
-0.216649	
-0.220921	
-0.225322	
-0.227393	
-0.227975	
-0.228364	
-0.225969	
-0.224027	
-0.224545	
-0.223057	
-0.221633	
-0.219562	
-0.216455	
-0.210759	
-0.199627	
-0.176651	
-0.12442	
-0.0376277	
0.0620443	
0.159775	
0.244755	
0.310901	
0.361384	
0.395881	
0.420022	
0.432902	
0.438144	
0.433226	
0.417628	
0.390574	
0.350705	
0.297439	
0.23537	
0.171619	
0.11544	
0.0680634	
0.0313013	
0.00301774	
-0.0218355	
-0.0431938	
-0.0621574	
-0.0825449	
-0.102544	
-0.12222	
-0.140406	
-0.156781	
-0.171797	
-0.184871	
-0.195355	
-0.20254	
-0.211665	
-0.218526	
-0.223639	
-0.226875	
-0.228428	
-0.228428	
-0.229335	
-0.231212	
-0.230564	
-0.228558	
-0.225775	
-0.224804	
-0.223704	
-0.220662	
-0.218461	
-0.218073	
-0.216843	
-0.212572	
-0.204222	
-0.180534	
-0.125715	
-0.0379513	
0.0645685	
0.163205	
0.244625	
0.307665	
0.350964	
0.380024	
0.398534	
0.405848	
0.403	
0.391998	
0.369668	
0.338213	
0.29472	
0.241778	
0.182363	
0.126443	
0.079584	
0.0434691	
0.0142147	
-0.0108975	
-0.0288255	
-0.0470772	
-0.0664938	
-0.0819624	
-0.0950362	
-0.104227	
-0.112446	
-0.122802	
-0.133611	
-0.144096	
-0.152963	
-0.160276	
-0.169014	
-0.177751	
-0.184353	
-0.188495	
-0.193284	
-0.198009	
-0.200339	
-0.204675	
-0.21296	
-0.219109	
-0.224027	
-0.226875	
-0.227587	
-0.227652	
-0.225581	
-0.222345	
-0.218073	
-0.20817	
-0.179952	
-0.122931	
-0.0313497	
0.0786132	
0.184952	
0.273686	
0.340932	
0.386885	
0.414974	
0.431802	
0.436721	
0.43329	
0.42397	
0.40423	
0.369021	
0.32281	
0.265919	
0.203786	
0.144047	
0.095894	
0.0582904	
0.0291007	
0.00754829	
-0.0132922	
-0.03245	
-0.0475302	
-0.0628694	
-0.0783379	
-0.094389	
-0.10934	
-0.121378	
-0.134517	
-0.144354	
-0.151927	
-0.157299	
-0.15937	
-0.162412	
-0.166684	
-0.169402	
-0.171408	
-0.172638	
-0.174321	
-0.175551	
-0.173609	
-0.170955	
-0.169208	
-0.166166	
-0.162736	
-0.159111	
-0.15594	
-0.149468	
-0.125585	
-0.0743252	
0.00877801	
0.108838	
0.208575	
0.293037	
0.359378	
0.407013	
0.44028	
0.457885	
0.465781	
0.463257	
0.450183	
0.430637	
0.40313	
0.36818	
0.323586	
0.268249	
0.204886	
0.142882	
0.0871565	
0.0439868	
0.00955467	
-0.0173697	
-0.0402166	
-0.0610571	
-0.0800854	
-0.0973015	
-0.112641	
-0.125909	
-0.139177	
-0.150633	
-0.160535	
-0.169337	
-0.175874	
-0.180728	
-0.184547	
-0.185777	
-0.187395	
-0.188689	
-0.188883	
-0.19076	
-0.192314	
-0.191084	
-0.187265	
-0.184288	
-0.179887	
-0.174903	
-0.170437	
-0.168496	
-0.166878	
-0.16526	
-0.1617	
-0.154904	
-0.139177	
-0.104615	
-0.0385986	
0.0555721	
0.157574	
0.252457	
0.325463	
0.38216	
0.42164	
0.446558	
0.459956	
0.459309	
0.448435	
0.430572	
0.407078	
0.374846	
0.333036	
0.281905	
0.221131	
0.160098	
0.104178	
0.0570607	
0.0210105	
-0.00526669	
-0.0275958	
-0.0484363	
-0.0667527	
-0.0820918	
-0.0951657	
-0.109534	
-0.12319	
-0.134452	
-0.143966	
-0.149985	
-0.156781	
-0.164354	
-0.171214	
-0.177881	
-0.182929	
-0.188042	
-0.192249	
-0.193737	
-0.197362	
-0.198915	
-0.19885	
-0.196391	
-0.194902	
-0.191472	
-0.190048	
-0.189142	
-0.187071	
-0.184612	
-0.183706	
-0.182476	
-0.179046	
-0.172056	
-0.148044	
-0.0958776	
-0.0136806	
0.0835968	
0.177509	
0.256923	
0.31679	
0.360996	
0.389862	
0.405524	
0.410443	
0.406495	
0.395557	
0.378665	
0.351417	
0.314072	
0.264236	
0.207928	
0.149743	
0.094729	
0.0493588	
0.0127908	
-0.0156222	
-0.0373689	
-0.0554263	
-0.0721893	
-0.089276	
-0.103838	
-0.118013	
-0.133416	
-0.147849	
-0.160147	
-0.170696	
-0.181311	
-0.189013	
-0.192896	
-0.195485	
-0.196909	
-0.196715	
-0.19788	
-0.200792	
-0.204158	
-0.205452	
-0.205258	
-0.206876	
-0.2083	
-0.209594	
-0.207005	
-0.202216	
-0.197362	
-0.193867	
-0.188495	
-0.184094	
-0.181246	
-0.178657	
-0.169078	
-0.136588	
-0.0757491	
0.0102019	
0.104178	
0.190453	
0.260288	
0.310254	
0.342809	
0.362225	
0.370898	
0.36928	
0.359831	
0.344945	
0.321839	
0.288766	
0.246114	
0.191812	
0.131944	
0.0766068	
0.0321427	
-0.00546086	
-0.0344564	
-0.0561383	
-0.0734838	
-0.0901174	
-0.104486	
-0.118466	
-0.133675	
-0.149273	
-0.162088	
-0.174386	
-0.183382	
-0.189789	
-0.196974	
-0.20474	
-0.211795	
-0.216196	
-0.219885	
-0.222668	
-0.226163	
-0.230047	
-0.233024	
-0.235095	
-0.236713	
-0.235807	
-0.233995	
-0.232247	
-0.228364	
-0.224804	
-0.222474	
-0.223251	
-0.224739	
-0.224092	
-0.220791	
-0.21516	
-0.202022	
-0.168819	
-0.110116	
-0.0264308	
0.0686459	
0.158157	
0.232781	
0.288377	
0.326693	
0.351158	
0.363002	
0.365785	
0.362484	
0.351352	
0.333295	
0.305464	
0.264042	
0.212653	
0.157186	
0.105214	
0.063986	
0.029748	
0.0055419	
-0.0124508	
-0.0303789	
-0.0461711	
-0.0616396	
-0.0768493	
-0.0930299	
-0.109987	
-0.124355	
-0.136976	
-0.148044	
-0.159111	
-0.168884	
-0.174709	
-0.179175	
-0.185259	
-0.190178	
-0.192119	
-0.193479	
-0.194449	
-0.193284	
-0.192314	
-0.192767	
-0.19322	
-0.193737	
-0.192378	
-0.191666	
-0.19089	
-0.189531	
-0.187912	
-0.18623	
-0.183835	
-0.181505	
-0.175615	
-0.158723	
-0.11853	
-0.0477891	
0.0443752	
0.138611	
0.224238	
0.29472	
0.346045	
0.381771	
0.404295	
0.416657	
0.418145	
0.411026	
0.397564	
0.373422	
0.337437	
0.290643	
0.233817	
0.174661	
0.120035	
0.0778365	
0.0457343	
0.0194572	
-0.000541976	
-0.0187289	
-0.032903	
-0.0474008	
-0.0633871	
-0.0783379	
-0.0928357	
-0.105327	
-0.1129	
-0.124744	
-0.138141	
-0.149662	
-0.156199	
-0.161571	
-0.166554	
-0.172897	
-0.179952	
-0.185194	
-0.18966	
-0.193479	
-0.195485	
-0.197944	
-0.199109	
-0.198139	
-0.197944	
-0.19788	
-0.195809	
-0.193284	
-0.189595	
-0.185129	
-0.183317	
-0.181958	
-0.176845	
-0.158529	
-0.113029	
-0.0376277	
0.0567371	
0.155115	
0.242943	
0.310383	
0.35886	
0.391156	
0.412061	
0.421381	
0.420087	
0.413485	
0.399117	
0.375299	
0.338472	
0.291678	
0.2366	
0.179191	
0.12709	
0.0845029	
0.0509768	
0.0241819	
0.00165858	
-0.0175639	
-0.0356861	
-0.0522549	
-0.0677235	
-0.0808621	
-0.0941949	
-0.10811	
-0.120148	
-0.133222	
-0.144872	
-0.156328	
-0.166748	
-0.174644	
-0.181246	
-0.186359	
-0.189854	
-0.192702	
-0.194255	
-0.196456	
-0.197362	
-0.196391	
-0.193284	
-0.192249	
-0.191278	
-0.18966	
-0.186359	
-0.183058	
-0.181893	
-0.181246	
-0.180081	
-0.177622	
-0.167331	
-0.135941	
-0.0745841	
0.0164152	
0.118417	
0.213235	
0.289737	
0.345398	
0.38326	
0.406884	
0.416592	
0.41711	
0.410638	
0.399246	
0.3797	
0.349022	
0.306241	
0.252004	
0.194336	
0.1423	
0.101848	
0.0683871	
0.041851	
0.0188099	
-0.00267781	
-0.0216414	
-0.038275	
-0.0532905	
-0.0670116	
-0.0789204	
-0.0916707	
-0.102285	
-0.111993	
-0.12086	
-0.13018	
-0.13963	
-0.149144	
-0.157364	
-0.1628	
-0.165519	
-0.167266	
-0.169596	
-0.170373	
-0.168237	
-0.166231	
-0.165713	
-0.163965	
-0.162283	
-0.159823	
-0.157752	
-0.155616	
-0.153027	
-0.152186	
-0.148756	
-0.14416	
-0.128174	
-0.0866871	
-0.0155575	
0.0801018	
0.181068	
0.270385	
0.343197	
0.398793	
0.439051	
0.463127	
0.473677	
0.475424	
0.469599	
0.453548	
0.431154	
0.400541	
0.357177	
0.304817	
0.247732	
0.186117	
0.131685	
0.0861856	
0.0497471	
0.0191335	
-0.00513725	
-0.0249422	
-0.0420288	
-0.0560088	
-0.0714127	
-0.0873343	
-0.104227	
-0.11866	
-0.131863	
-0.143254	
-0.153739	
-0.164418	
-0.174321	
-0.181505	
-0.186294	
-0.192184	
-0.197103	
-0.199627	
-0.20118	
-0.20021	
-0.200469	
-0.200792	
-0.199692	
-0.196197	
-0.194449	
-0.193543	
-0.193802	
-0.191796	
-0.189531	
-0.187459	
-0.185259	
-0.181764	
-0.17225	
-0.151215	
-0.103191	
-0.0244244	
0.0718173	
0.169548	
0.254981	
0.321774	
0.371869	
0.407596	
0.430637	
0.443387	
0.44617	
0.439245	
0.425135	
0.404424	
0.374005	
0.333359	
0.283006	
0.227733	
0.171554	
0.123013	
0.0852795	
0.0522065	
0.023211	
-0.0017717	
-0.0221592	
-0.041058	
-0.0571091	
-0.071801	
-0.0866871	
-0.0984018	
-0.109016	
-0.121313	
-0.133416	
-0.144096	
-0.154775	
-0.164095	
-0.172509	
-0.179434	
-0.185647	
-0.191343	
-0.194773	
-0.198592	
-0.200857	
-0.204287	
-0.205387	
-0.20584	
-0.205776	
-0.206229	
-0.204417	
-0.20118	
-0.199174	
-0.198656	
-0.19652	
-0.193867	
-0.187459	
-0.177363	
-0.159499	
-0.116848	
-0.0433233	
0.0505885	
0.150519	
0.240095	
0.313813	
0.367338	
0.404813	
0.431025	
0.444099	
0.446817	
0.440539	
0.42643	
0.406107	
0.375752	
0.333618	
0.281323	
0.221325	
0.164435	
0.116864	
0.077254	
0.0436632	
0.0168683	
-0.00526669	
-0.0226769	
-0.0407991	
-0.0561383	
-0.0727071	
-0.0899879	
-0.106168	
-0.119113	
-0.133028	
-0.149209	
-0.163383	
-0.175097	
-0.184029	
-0.193155	
-0.199886	
-0.204805	
-0.209012	
-0.213478	
-0.215355	
-0.217361	
-0.218138	
-0.216973	
-0.215614	
-0.213931	
-0.211795	
-0.208688	
-0.202993	
-0.20008	
-0.195614	
-0.18966	
-0.184029	
-0.178204	
-0.171408	
-0.155616	
-0.118077	
-0.0501191	
0.0422393	
0.143594	
0.235564	
0.311095	
0.36941	
0.410767	
0.437238	
0.451671	
0.457108	
0.449859	
0.433031	
0.41012	
0.380477	
0.341191	
0.293037	
0.239124	
0.183139	
0.130973	
0.0861856	
0.048841	
0.0177097	
-0.00921474	
-0.0316086	
-0.0524491	
-0.0730954	
-0.0926415	
-0.112641	
-0.128756	
-0.142736	
-0.156263	
-0.169855	
-0.180793	
-0.192314	
-0.203964	
-0.213737	
-0.220403	
-0.226487	
-0.231406	
-0.235936	
-0.238849	
-0.236325	
-0.232247	
-0.231017	
-0.232118	
-0.232053	
-0.233542	
-0.232118	
-0.230241	
-0.229658	
-0.225969	
-0.222086	
-0.21872	
-0.217555	
-0.213931	
-0.202022	
-0.170114	
-0.107269	
-0.0145867	
0.0879331	
0.183592	
0.262294	
0.322098	
0.365332	
0.391739	
0.404295	
0.404748	
0.397499	
0.381577	
0.357695	
0.329411	
0.294267	
0.247279	
0.192977	
0.138934	
0.091687	
0.0533715	
0.0225638	
-0.00067142	
-0.0221592	
-0.0415111	
-0.0600863	
-0.0763963	
-0.088111	
-0.101185	
-0.11523	
-0.128174	
-0.139306	
-0.151603	
-0.160923	
-0.169272	
-0.176327	
-0.182735	
-0.188689	
-0.194126	
-0.196844	
-0.197685	
-0.197944	
-0.196715	
-0.195679	
-0.197232	
-0.197685	
-0.196262	
-0.196391	
-0.19665	
-0.195809	
-0.193155	
-0.189531	
-0.18377	
-0.174839	
-0.158529	
-0.120213	
-0.0487599	
0.0482585	
0.154014	
0.24825	
0.323845	
0.381707	
0.424812	
0.452707	
0.46714	
0.469988	
0.462739	
0.446429	
0.420475	
0.388826	
0.346822	
0.293037	
0.234723	
0.17369	
0.119259	
0.0756359	
0.0404271	
0.0133086	
-0.00908529	
-0.0286314	
-0.0472713	
-0.0673352	
-0.0828685	
-0.0946479	
-0.107269	
-0.11866	
-0.130504	
-0.142089	
-0.149273	
-0.156069	
-0.160794	
-0.163383	
-0.16636	
-0.16992	
-0.173803	
-0.178981	
-0.179369	
-0.178787	
-0.178463	
-0.17801	
-0.176586	
-0.175033	
-0.173997	
-0.172897	
-0.172185	
-0.173738	
-0.173738	
-0.171861	
-0.168884	
-0.166101	
-0.160211	
-0.143772	
-0.10125	
-0.0253953	
0.0749887	
0.178868	
0.272326	
0.349216	
0.407272	
0.448953	
0.476719	
0.489857	
0.490699	
0.483773	
0.46837	
0.443452	
0.411414	
0.371157	
0.320674	
0.260159	
0.197702	
0.140423	
0.0927873	
0.0557015	
0.0245702	
0.0005583	
-0.0202822	
-0.0373689	
-0.0523197	
-0.0668821	
-0.0800854	
-0.0910882	
-0.102415	
-0.112705	
-0.124485	
-0.137429	
-0.149273	
-0.160664	
-0.171861	
-0.178787	
-0.188301	
-0.193996	
-0.194385	
-0.195097	
-0.197168	
-0.199692	
-0.201116	
-0.199886	
-0.198721	
-0.199109	
-0.199174	
-0.199304	
-0.197168	
-0.195744	
-0.193867	
-0.191861	
-0.189595	
-0.188948	
-0.178787	
-0.148626	
-0.0875285	
0.00334135	
0.110198	
0.209093	
0.291096	
0.355883	
0.403324	
0.434326	
0.450959	
0.453807	
0.449082	
0.435167	
0.411544	
0.38216	
0.34488	
0.297762	
0.240613	
0.178609	
0.121653	
0.0720762	
0.0342138	
0.00664218	
-0.0156869	
-0.0396341	
-0.0595038	
-0.075296	
-0.0918001	
-0.108951	
-0.124226	
-0.135358	
-0.147396	
-0.160406	
-0.171344	
-0.180793	
-0.191019	
-0.197685	
-0.202345	
-0.206294	
-0.209465	
-0.212895	
-0.214254	
-0.213154	
-0.212636	
-0.212636	
-0.212507	
-0.214125	
-0.213154	
-0.213089	
-0.213413	
-0.211407	
-0.208235	
-0.205905	
-0.202475	
-0.199951	
-0.186683	
-0.147461	
-0.0732249	
0.0273532	
0.133303	
0.226633	
0.301063	
0.359378	
0.402353	
0.428436	
0.439245	
0.440992	
0.432125	
0.412385	
0.383713	
0.347987	
0.30294	
0.247538	
0.189223	
0.13641	
0.0906515	
0.0524007	
0.0228227	
-0.00203058	
-0.0241655	
-0.0436469	
-0.0585977	
-0.0736779	
-0.0882404	
-0.100732	
-0.1129	
-0.123838	
-0.132963	
-0.144808	
-0.154063	
-0.163383	
-0.168561	
-0.171861	
-0.175421	
-0.178981	
-0.181376	
-0.182217	
-0.182282	
-0.182864	
-0.1839	
-0.184288	
-0.183058	
-0.181699	
-0.17924	
-0.174839	
-0.171602	
-0.169014	
-0.16746	
-0.165001	
-0.15115	
-0.109534	
-0.0323852	
0.0676751	
0.170001	
0.262812	
0.338472	
0.395622	
0.436397	
0.46248	
0.475295	
0.478402	
0.4729	
0.45892	
0.436915	
0.405913	
0.362096	
0.308312	
0.246373	
0.182492	
0.123919	
0.0732412	
0.0329841	
0.00139969	
-0.0230653	
-0.0443588	
-0.063646	
-0.0818977	
-0.0985312	
-0.113353	
-0.127203	
-0.140018	
-0.150891	
-0.160082	
-0.169078	
-0.178334	
-0.187136	
-0.195809	
-0.202475	
-0.208624	
-0.213801	
-0.217814	
-0.222539	
-0.225516	
-0.225128	
-0.223963	
-0.223963	
-0.220144	
-0.216196	
-0.212377	
-0.20817	
-0.204093	
-0.200792	
-0.195873	
-0.192119	
-0.184741	
-0.167072	
-0.127527	
-0.0541966	
0.0450871	
0.153432	
0.250321	
0.328052	
0.388826	
0.431737	
0.461185	
0.476978	
0.479696	
0.474	
0.460862	
0.437303	
0.406236	
0.365461	
0.312325	
0.251874	
0.187282	
0.128384	
0.0767362	
0.0359613	
0.00269413	
-0.0220297	
-0.0428702	
-0.062481	
-0.0808621	
-0.0964601	
-0.111087	
-0.126944	
-0.142154	
-0.155357	
-0.168043	
-0.180534	
-0.193414	
-0.204546	
-0.213801	
-0.224092	
-0.230241	
-0.232765	
-0.236842	
-0.240661	
-0.243185	
-0.242926	
-0.244221	
-0.246033	
-0.24681	
-0.248687	
-0.249398	
-0.247133	
-0.243315	
-0.239237	
-0.236778	
-0.233995	
-0.232441	
-0.220727	
-0.186359	
-0.117042	
-0.0165283	
0.0938228	
0.195825	
0.27841	
0.339832	
0.383907	
0.413874	
0.431219	
0.433484	
0.429277	
0.41698	
0.395687	
0.366238	
0.323392	
0.270579	
0.209675	
0.146895	
0.0905867	
0.0435338	
0.00690107	
-0.0208	
-0.0419641	
-0.062028	
-0.077626	
-0.0929004	
-0.108563	
-0.123514	
-0.137041	
-0.149597	
-0.162024	
-0.171602	
-0.180211	
-0.188366	
-0.193543	
-0.197427	
-0.202993	
-0.205646	
-0.206941	
-0.207264	
-0.205646	
-0.203834	
-0.201569	
-0.20118	
-0.199239	
-0.198333	
-0.199562	
-0.200533	
-0.199045	
-0.196262	
-0.185971	
-0.156393	
-0.0947774	
-0.00313086	
0.101654	
0.199773	
0.283006	
0.345139	
0.389991	
0.421252	
0.437174	
0.439827	
0.43452	
0.418857	
0.39601	
0.367921	
0.329864	
0.280934	
0.224432	
0.162946	
0.106379	
0.0585493	
0.0221755	
-0.00921474	
-0.0356861	
-0.0576916	
-0.0748429	
-0.0906999	
-0.106104	
-0.121249	
-0.134323	
-0.142542	
-0.151603	
-0.159305	
-0.164742	
-0.170049	
-0.175162	
-0.180405	
-0.185647	
-0.191213	
-0.194514	
-0.194708	
-0.197038	
-0.199951	
-0.203187	
-0.204028	
-0.20351	
-0.201504	
-0.201957	
-0.203899	
-0.202863	
-0.201828	
-0.199174	
-0.197362	
-0.196262	
-0.190825	
-0.171085	
-0.124485	
-0.0420288	
0.0621737	
0.169548	
0.264107	
0.343132	
0.402159	
0.444358	
0.470117	
0.484744	
0.487722	
0.48235	
0.467528	
0.443257	
0.410638	
0.366497	
0.312972	
0.251486	
0.185599	
0.124372	
0.0711701	
0.0303305	
-0.00261308	
-0.028955	
-0.0518019	
-0.072513	
-0.0918001	
-0.107333	
-0.119436	
-0.130245	
-0.14073	
-0.151733	
-0.161571	
-0.16992	
-0.178916	
-0.187977	
-0.197232	
-0.203834	
-0.207523	
-0.210112	
-0.21173	
-0.213413	
-0.216584	
-0.219497	
-0.218138	
-0.214643	
-0.21186	
-0.2105	
-0.207717	
-0.206488	
-0.205064	
-0.20118	
-0.19898	
-0.19542	
-0.186294	
-0.161376	
-0.104292	
-0.0158164	
0.0881273	
0.190582	
0.27854	
0.349152	
0.402094	
0.438144	
0.461509	
0.472577	
0.470894	
0.459762	
0.441316	
0.413162	
0.374652	
0.324039	
0.263006	
0.196019	
0.130456	
0.0740179	
0.0283888	
-0.00824391	
-0.0376277	
-0.0622869	
-0.0853279	
-0.104356	
-0.119566	
-0.131345	
-0.143643	
-0.156134	
-0.167007	
-0.177816	
-0.187524	
-0.193802	
-0.200145	
-0.206035	
-0.212766	
-0.219173	
-0.220791	
-0.224351	
-0.22927	
-0.229788	
-0.228687	
-0.226552	
-0.22228	
-0.219626	
-0.218979	
-0.216649	
-0.214772	
-0.21406	
-0.214125	
-0.212119	
-0.206035	
-0.188107	
-0.140859	
-0.058533	
0.048129	
0.156474	
0.248379	
0.320415	
0.373616	
0.407078	
0.427336	
0.436138	
0.435556	
0.427659	
0.410961	
0.385396	
0.345203	
0.292714	
0.231034	
0.166441	
0.108256	
0.0601674	
0.0222402	
-0.00753196	
-0.0316733	
-0.0529022	
-0.0744546	
-0.0914118	
-0.105974	
-0.121055	
-0.134193	
-0.14662	
-0.157428	
-0.169208	
-0.179046	
-0.188689	
-0.19775	
-0.205323	
-0.209789	
-0.21063	
-0.210889	
-0.208041	
-0.204481	
-0.204611	
-0.204611	
-0.20118	
-0.19885	
-0.195097	
-0.190372	
-0.187071	
-0.185777	
-0.182282	
-0.172314	
-0.143513	
-0.0823507	
0.00884273	
0.114146	
0.213494	
0.296274	
0.359572	
0.40423	
0.432772	
0.447335	
0.452772	
0.448629	
0.436979	
0.415621	
0.385655	
0.344815	
0.293555	
0.231357	
0.165535	
0.103919	
0.0533715	
0.014603	
-0.0156869	
-0.0413169	
-0.0649405	
-0.0858457	
-0.105327	
-0.12222	
-0.134323	
-0.144613	
-0.154839	
-0.163383	
-0.172703	
-0.17924	
-0.185518	
-0.188236	
-0.187589	
-0.189142	
-0.190501	
-0.193284	
-0.19432	
-0.195291	
-0.195614	
-0.19555	
-0.193867	
-0.193608	
-0.194061	
-0.195032	
-0.196779	
-0.196391	
-0.194902	
-0.192055	
-0.184288	
-0.156134	
-0.094389	
-0.00190114	
0.104696	
0.205857	
0.291872	
0.35653	
0.403971	
0.438662	
0.461703	
0.473224	
0.471153	
0.460991	
0.441251	
0.412061	
0.376464	
0.329282	
0.270126	
0.204433	
0.139646	
0.0826906	
0.0376441	
0.00314718	
-0.0271428	
-0.0553616	
-0.0782732	
-0.0969132	
-0.112252	
-0.125909	
-0.1384	
-0.151539	
-0.162736	
-0.173026	
-0.181699	
-0.190825	
-0.199498	
-0.207653	
-0.214966	
-0.219173	
-0.222539	
-0.224092	
-0.226163	
-0.230176	
-0.234965	
-0.240143	
-0.242279	
-0.242344	
-0.242991	
-0.246227	
-0.248751	
-0.247586	
-0.24435	
-0.23846	
-0.234771	
-0.233606	
-0.229399	
-0.21762	
-0.187265	
-0.124744	
-0.0268191	
0.0860562	
0.193236	
0.283976	
0.353553	
0.402224	
0.432708	
0.451218	
0.454972	
0.45083	
0.439892	
0.422482	
0.396787	
0.362096	
0.313749	
0.256081	
0.192524	
0.130779	
0.0771245	
0.0342138	
0.000364133	
-0.0269486	
-0.0500544	
-0.0711538	
-0.0901821	
-0.107075	
-0.122543	
-0.135682	
-0.149662	
-0.162347	
-0.172703	
-0.183252	
-0.193543	
-0.200792	
-0.206747	
-0.209789	
-0.213348	
-0.216973	
-0.218332	
-0.216973	
-0.214578	
-0.213737	
-0.213542	
-0.213348	
-0.214772	
-0.21419	
-0.210112	
-0.206099	
-0.201828	
-0.198009	
-0.189854	
-0.165454	
-0.106557	
-0.0139395	
0.0938876	
0.192912	
0.274592	
0.335495	
0.377176	
0.405007	
0.419893	
0.42054	
0.414521	
0.403065	
0.384037	
0.354265	
0.313943	
0.262424	
0.200291	
0.137575	
0.0830143	
0.0366085	
0.00159385	
-0.0250069	
-0.0478538	
-0.0670116	
-0.0852632	
-0.100732	
-0.114323	
-0.12785	
-0.139177	
-0.150244	
-0.160988	
-0.170696	
-0.178269	
-0.182994	
-0.188754	
-0.192961	
-0.19555	
-0.199627	
-0.200404	
-0.198721	
-0.196585	
-0.196844	
-0.196391	
-0.194126	
-0.192572	
-0.192767	
-0.191084	
-0.190372	
-0.188171	
-0.180599	
-0.162283	
-0.117754	
-0.0384691	
0.0628857	
0.162687	
0.250321	
0.322033	
0.376076	
0.41465	
0.438533	
0.451218	
0.45426	
0.447529	
0.430313	
0.405201	
0.371869	
0.329541	
0.276469	
0.214918	
0.153173	
0.0966706	
0.0482585	
0.00890745	
-0.0191819	
-0.0426113	
-0.064811	
-0.0824802	
-0.0987254	
-0.113676	
-0.128951	
-0.145519	
-0.159758	
-0.175097	
-0.188236	
-0.198268	
-0.206617	
-0.212054	
-0.215096	
-0.217232	
-0.220015	
-0.219626	
-0.218267	
-0.215614	
-0.21063	
-0.208494	
-0.208429	
-0.210565	
-0.212701	
-0.21283	
-0.212313	
-0.211407	
-0.201439	
-0.169078	
-0.102091	
-0.00481363	
0.0994537	
0.193365	
0.268702	
0.326952	
0.367856	
0.394716	
0.409149	
0.413874	
0.409214	
0.398017	
0.378794	
0.34954	
0.308635	
0.255758	
0.193754	
0.128384	
0.0692932	
0.0224991	
-0.01381	
-0.04177	
-0.0651346	
-0.0863635	
-0.103515	
-0.117883	
-0.132769	
-0.145584	
-0.156004	
-0.167072	
-0.18034	
-0.190631	
-0.197168	
-0.201051	
-0.206747	
-0.212507	
-0.216131	
-0.220144	
-0.222603	
-0.22228	
-0.222021	
-0.224157	
-0.224286	
-0.222992	
-0.222927	
-0.223833	
-0.222927	
-0.219303	
-0.214837	
-0.212895	
-0.213478	
-0.212377	
-0.20953	
-0.200792	
-0.177427	
-0.11989	
-0.0292786	
0.0801665	
0.185534	
0.274139	
0.341061	
0.387143	
0.417886	
0.435685	
0.440733	
0.436591	
0.426106	
0.406884	
0.378471	
0.338278	
0.287536	
0.228574	
0.167088	
0.110327	
0.0608146	
0.0205574	
-0.00876168	
-0.0316733	
-0.0545849	
-0.076461	
-0.0949068	
-0.110181	
-0.124614	
-0.137106	
-0.147073	
-0.155616	
-0.16513	
-0.175356	
-0.18034	
-0.184676	
-0.190501	
-0.194708	
-0.196715	
-0.198915	
-0.199174	
-0.199627	
-0.200922	
-0.201504	
-0.19898	
-0.196067	
-0.192767	
-0.191149	
-0.188107	
-0.185841	
-0.184612	
-0.177427	
-0.156587	
-0.107463	
-0.0235183	
0.0797134	
0.181133	
0.267861	
0.335819	
0.385266	
0.418987	
0.437044	
0.446947	
0.448371	
0.442028	
0.427401	
0.404295	
0.37038	
0.322939	
0.263913	
0.199579	
0.138675	
0.0820434	
0.0370616	
0.00347079	
-0.0231947	
-0.0460416	
-0.0660407	
-0.0843571	
-0.0989843	
-0.1129	
-0.128498	
-0.14183	
-0.154257	
-0.166813	
-0.176198	
-0.184871	
-0.189984	
-0.194061	
-0.195809	
-0.19652	
-0.198139	
-0.200727	
-0.202863	
-0.204028	
-0.202799	
-0.20241	
-0.203057	
-0.202669	
-0.201828	
-0.203252	
-0.202475	
-0.201245	
-0.197815	
-0.187848	
-0.155875	
-0.0884993	
0.00884273	
0.114469	
0.212135	
0.293102	
0.352711	
0.394198	
0.422223	
0.435297	
0.437497	
0.432319	
0.421834	
0.404101	
0.375493	
0.334718	
0.282876	
0.222426	
0.157056	
0.0969942	
0.0459285	
0.00489468	
-0.0257189	
-0.0507663	
-0.0744546	
-0.0918649	
-0.107075	
-0.122867	
-0.135552	
-0.148173	
-0.159694	
-0.17102	
-0.181958	
-0.192184	
-0.201439	
-0.206682	
-0.213348	
-0.218397	
-0.222862	
-0.22694	
-0.228428	
-0.230176	
-0.229529	
-0.229917	
-0.229335	
-0.228428	
-0.227393	
-0.22681	
-0.224933	
-0.224092	
-0.224869	
-0.224351	
-0.219691	
-0.20351	
-0.161765	
-0.0848101	
0.0189394	
0.123724	
0.214983	
0.285271	
0.335366	
0.368309	
0.389991	
0.401641	
0.402741	
0.394586	
0.37873	
0.352129	
0.314784	
0.264754	
0.203268	
0.142947	
0.0872212	
0.0391974	
0.000817188	
-0.0287608	
-0.0492777	
-0.0675941	
-0.0857163	
-0.103644	
-0.118854	
-0.130828	
-0.141701	
-0.154128	
-0.163318	
-0.17102	
-0.177298	
-0.182411	
-0.1861	
-0.186942	
-0.188171	
-0.189272	
-0.190825	
-0.192767	
-0.195032	
-0.197944	
-0.201634	
-0.20021	
-0.183511	
-0.138012	
-0.060151	
0.0356377	
0.128514	
0.20385	
0.259964	
0.30061	
0.329347	
0.345462	
0.350964	
0.34954	
0.339961	
0.321127	
0.293102	
0.253751	
0.205533	
0.149743	
0.0938228	
0.0456049	
0.00903689	
-0.0206058	
-0.0470772	
-0.0712185	
-0.0890818	
-0.10455	
-0.11866	
-0.129339	
-0.138141	
-0.148173	
-0.156069	
-0.162736	
-0.170179	
-0.176198	
-0.180858	
-0.184547	
-0.187718	
-0.19089	
-0.192831	
-0.194579	
-0.194255	
-0.18966	
-0.185712	
-0.182217	
-0.182735	
-0.1839	
-0.185582	
-0.185065	
-0.183641	
-0.180728	
-0.169272	
-0.13607	
-0.0703124	
0.0236641	
0.127996	
0.224044	
0.302616	
0.361837	
0.404942	
0.43342	
0.448241	
0.449924	
0.443128	
0.42876	
0.406366	
0.376853	
0.338149	
0.289801	
0.230063	
0.166376	
0.104178	
0.0513004	
0.0135674	
-0.0144572	
-0.0389869	
-0.0580152	
-0.0725777	
-0.0861046	
-0.0987901	
-0.110764	
-0.122155	
-0.131086	
-0.138918	
-0.146296	
-0.152704	
-0.158205	
-0.166036	
-0.170761	
-0.174191	
-0.177622	
-0.182346	
-0.187006	
-0.18966	
-0.193932	
-0.196197	
-0.196715	
-0.195679	
-0.193349	
-0.192767	
-0.193349	
-0.193996	
-0.194126	
-0.194902	
-0.193996	
-0.191343	
-0.173609	
-0.129468	
-0.0499897	
0.0506532	
0.150649	
0.23647	
0.30514	
0.356789	
0.391545	
0.410702	
0.421834	
0.421252	
0.413938	
0.399505	
0.377047	
0.34598	
0.30514	
0.252263	
0.190582	
0.131103	
0.0782895	
0.0357024	
0.00411801	
-0.0204117	
-0.0426761	
-0.0618985	
-0.0783379	
-0.0922532	
-0.104615	
-0.116653	
-0.128627	
-0.139241	
-0.149597	
-0.159241	
-0.168107	
-0.176133	
-0.183511	
-0.188624	
-0.193737	
-0.200792	
-0.204611	
-0.205387	
-0.206294	
-0.206552	
-0.205387	
-0.203316	
-0.202928	
-0.203122	
-0.204611	
-0.203446	
-0.203381	
-0.202669	
-0.20254	
-0.201828	
-0.190307	
-0.156004	
-0.0871401	
0.00877801	
0.10735	
0.196666	
0.271356	
0.326952	
0.36462	
0.387791	
0.397111	
0.394716	
0.387079	
0.371157	
0.348698	
0.317179	
0.275821	
0.222102	
0.16191	
0.104696	
0.0544718	
0.0149913	
-0.0143925	
-0.0366569	
-0.0549085	
-0.0738074	
-0.0886288	
-0.100797	
-0.113094	
-0.125067	
-0.135164	
-0.141895	
-0.147461	
-0.154257	
-0.157817	
-0.161312	
-0.168302	
-0.175356	
-0.17911	
-0.181117	
-0.181181	
-0.182023	
-0.184871	
-0.185906	
-0.184871	
-0.184612	
-0.186165	
-0.18843	
-0.190954	
-0.190954	
-0.191084	
-0.191925	
-0.191278	
-0.181052	
-0.148238	
-0.0832568	
0.00871328	
0.107609	
0.198349	
0.270773	
0.324816	
0.358989	
0.378276	
0.386367	
0.38449	
0.373811	
0.356853	
0.331871	
0.297697	
0.252521	
0.198025	
0.140811	
0.0866387	
0.0391327	
0.00217635	
-0.0249422	
-0.0470772	
-0.064811	
-0.0826096	
-0.100732	
-0.11387	
-0.12675	
-0.138918	
-0.148367	
-0.156458	
-0.163901	
-0.170502	
-0.175939	
-0.180469	
-0.185777	
-0.191213	
-0.193543	
-0.19199	
-0.191019	
-0.189013	
-0.187006	
-0.1861	
-0.184935	
-0.183123	
-0.181376	
-0.182346	
-0.183317	
-0.180987	
-0.170114	
-0.140277	
-0.0839688	
0.00191746	
0.103143	
0.197378	
0.276404	
0.336466	
0.3764	
0.399117	
0.40779	
0.405978	
0.395816	
0.379377	
0.358472	
0.325399	
0.282099	
0.22618	
0.165859	
0.108903	
0.0615912	
0.0233405	
-0.00656113	
-0.0291491	
-0.0490188	
-0.0681766	
-0.0828685	
-0.0931593	
-0.104162	
-0.113482	
-0.122737	
-0.13387	
-0.144872	
-0.153351	
-0.160729	
-0.169078	
-0.17445	
-0.179046	
-0.18267	
-0.187136	
-0.191666	
-0.192831	
-0.193737	
-0.191731	
-0.189984	
-0.187395	
-0.187977	
-0.187524	
-0.186294	
-0.187977	
-0.190242	
-0.189142	
-0.184935	
-0.171861	
-0.134387	
-0.0641638	
0.0316896	
0.130909	
0.220613	
0.29472	
0.351158	
0.390833	
0.417239	
0.433937	
0.441251	
0.440798	
0.43096	
0.41232	
0.385008	
0.346239	
0.29595	
0.236923	
0.176538	
0.12243	
0.0768009	
0.0402977	
0.0101372	
-0.0110917	
-0.0275958	
-0.04177	
-0.056203	
-0.0702477	
-0.0855221	
-0.100149	
-0.112446	
-0.121961	
-0.130375	
-0.139436	
-0.148756	
-0.157299	
-0.165195	
-0.173415	
-0.179887	
-0.185906	
-0.188495	
-0.192767	
-0.195809	
-0.199109	
-0.202475	
-0.204546	
-0.203316	
-0.202345	
-0.201892	
-0.202734	
-0.202151	
-0.200792	
-0.197232	
-0.185906	
-0.154839	
-0.0962012	
-0.0130333	
0.078419	
0.162558	
0.236794	
0.296662	
0.343456	
0.375752	
0.395298	
0.405524	
0.404424	
0.396399	
0.381124	
0.359248	
0.326434	
0.284947	
0.234852	
0.18288	
0.134857	
0.0949231	
0.0615912	
0.0353141	
0.0142147	
-0.00449002	
-0.0216414	
-0.0401519	
-0.0586624	
-0.0782732	
-0.0976251	
-0.114582	
-0.130569	
-0.142607	
-0.153286	
-0.164418	
-0.177039	
-0.187718	
-0.196456	
-0.202799	
-0.205582	
-0.208041	
-0.21186	
-0.215419	
-0.219238	
-0.221892	
-0.223704	
-0.224545	
-0.224998	
-0.225257	
-0.225645	
-0.227199	
-0.22927	
-0.227393	
-0.212313	
-0.173997	
-0.110893	
-0.0313497	
0.0489057	
0.121783	
0.185275	
0.236406	
0.276274	
0.304429	
0.324298	
0.339055	
0.344168	
0.339637	
0.326305	
0.302293	
0.267602	
0.224108	
0.178609	
0.136863	
0.100101	
0.0697462	
0.0412038	
0.0162858	
-0.0055903	
-0.0264955	
-0.0453944	
-0.0644874	
-0.0816388	
-0.0991785	
-0.111864	
-0.12222	
-0.134517	
-0.143772	
-0.152509	
-0.163447	
-0.174256	
-0.182282	
-0.189725	
-0.196391	
-0.202475	
-0.2072	
-0.210759	
-0.213284	
-0.215743	
-0.218526	
-0.217102	
-0.21419	
-0.214384	
-0.21283	
-0.206099	
-0.190954	
-0.155357	
-0.0957482	
-0.0189878	
0.0579668	
0.126831	
0.190388	
0.244431	
0.285724	
0.31679	
0.338796	
0.354135	
0.363326	
0.362873	
0.354265	
0.331224	
0.295367	
0.251162	
0.205533	
0.16327	
0.127025	
0.0962176	
0.0678693	
0.0451518	
0.0248291	
0.00405329	
-0.014975	
-0.0316733	
-0.0461063	
-0.0598274	
-0.0749077	
-0.0891465	
-0.0993726	
-0.106363	
-0.113611	
-0.122737	
-0.129727	
-0.134581	
-0.140342	
-0.144808	
-0.148303	
-0.150762	
-0.153416	
-0.156328	
-0.160147	
-0.164289	
-0.168949	
-0.172314	
-0.175809	
-0.17924	
-0.17924	
-0.172444	
-0.146102	
-0.0938712	
-0.023583	
0.0508474	
0.121718	
0.183722	
0.23893	
0.286047	
0.322162	
0.350446	
0.370121	
0.381707	
0.383778	
0.377306	
0.363973	
0.340997	
0.304623	
0.261194	
0.215695	
0.172525	
0.134339	
0.103078	
0.0747945	
0.0512357	
0.0295538	
0.0113022	
-0.00494308	
-0.021253	
-0.034068	
-0.0474655	
-0.0618338	
-0.0756843	
-0.0883051	
-0.102803	
-0.116459	
-0.12785	
-0.136847	
-0.145261	
-0.154386	
-0.162218	
-0.171861	
-0.179175	
-0.183641	
-0.187201	
-0.189531	
-0.189854	
-0.193673	
-0.195291	
-0.194708	
-0.193673	
-0.192314	
-0.190113	
-0.190178	
-0.189466	
-0.187524	
-0.186877	
-0.18144	
-0.166036	
-0.132251	
-0.0756843	
-0.00461947	
0.0723351	
0.14573	
0.208381	
0.26456	
0.311095	
0.348569	
0.379053	
0.398858	
0.409731	
0.412773	
0.406948	
0.393163	
0.366497	
0.328958	
0.2843	
0.236665	
0.19123	
0.152332	
0.119194	
0.0915576	
0.0669632	
0.0454754	
0.0234052	
0.00198219	
-0.0191819	
-0.040605	
-0.0619632	
-0.0818329	
-0.100667	
-0.116524	
-0.129857	
-0.141507	
-0.155034	
-0.167331	
-0.17691	
-0.184223	
-0.192637	
-0.198074	
-0.202734	
-0.207523	
-0.211083	
-0.21419	
-0.216067	
-0.21885	
-0.217361	
-0.215225	
-0.213154	
-0.212313	
-0.212572	
-0.212248	
-0.207264	
-0.188689	
-0.143966	
-0.0754902	
0.00690107	
0.0879979	
0.161457	
0.224108	
0.276598	
0.315884	
0.343909	
0.360931	
0.367274	
0.363973	
0.352517	
0.33323	
0.302293	
0.260871	
0.213365	
0.167218	
0.127155	
0.0967353	
0.0728529	
0.0522713	
0.0319485	
0.0119494	
-0.00753196	
-0.0241655	
-0.0395694	
-0.054326	
-0.0697946	
-0.0840982	
-0.0971073	
-0.107981	
-0.118466	
-0.127397	
-0.137494	
-0.147461	
-0.155034	
-0.162671	
-0.168302	
-0.171667	
-0.172509	
-0.172509	
-0.173479	
-0.17212	
-0.170243	
-0.170179	
-0.170696	
-0.172703	
-0.174709	
-0.175421	
-0.169531	
-0.149726	
-0.103709	
-0.0297316	
0.0561546	
0.141458	
0.217442	
0.278022	
0.32514	
0.356983	
0.376788	
0.38902	
0.392774	
0.385655	
0.374911	
0.358601	
0.330253	
0.291161	
0.245726	
0.198867	
0.155762	
0.117705	
0.0861209	
0.058614	
0.0316896	
0.00683634	
-0.014975	
-0.0338739	
-0.0516724	
-0.0644874	
-0.0743899	
-0.0854574	
-0.0956835	
-0.10468	
-0.112511	
-0.120925	
-0.131022	
-0.137947	
-0.143901	
-0.15115	
-0.156004	
-0.1606	
-0.164224	
-0.166166	
-0.166231	
-0.158076	
-0.129727	
-0.0735485	
0.00347079	
0.0849559	
0.160163	
0.22715	
0.278475	
0.314331	
0.33912	
0.353488	
0.36009	
0.358989	
0.353617	
0.340414	
0.316726	
0.280352	
0.23317	
0.179709	
0.12832	
0.0821729	
0.0426924	
0.0149266	
-0.00740252	
-0.0278547	
-0.0471419	
-0.064811	
-0.0843571	
-0.102285	
-0.117042	
-0.129404	
-0.140018	
-0.149662	
-0.160923	
-0.16992	
-0.177233	
-0.184871	
-0.191731	
-0.198203	
-0.205323	
-0.212054	
-0.217232	
-0.222992	
-0.227069	
-0.228493	
-0.228364	
-0.226746	
-0.22571	
-0.227393	
-0.230694	
-0.232959	
-0.234965	
-0.235548	
-0.235354	
-0.231988	
-0.227263	
-0.221633	
-0.21516	
-0.209918	
-0.204611	
-0.20008	
-0.196197	
-0.192119	
-0.188689	
-0.179952	
-0.153674	
-0.0952951	
-0.00779085	
0.0933051	
0.191035	
0.276598	
0.346304	
0.398599	
0.43342	
0.459114	
0.475165	
0.482026	
0.478402	
0.465716	
0.445199	
0.412126	
0.367533	
0.312778	
0.254593	
0.199255	
0.150455	
0.109615	
0.0774482	
0.0502001	
0.0251527	
0.00243524	
-0.0192467	
-0.0392458	
-0.0582741	
-0.0771729	
-0.0953599	
-0.113288	
-0.12908	
-0.142801	
-0.154516	
-0.166619	
-0.178463	
-0.190437	
-0.199174	
-0.205258	
-0.210824	
-0.214707	
-0.217426	
-0.21872	
-0.219626	
-0.220727	
-0.220532	
-0.219562	
-0.219756	
-0.219691	
-0.218914	
-0.215614	
-0.215031	
-0.215678	
-0.21419	
-0.210242	
-0.197232	
-0.160017	
-0.0930946	
-0.00423114	
0.0922048	
0.179515	
0.251033	
0.305529	
0.345592	
0.37284	
0.388373	
0.395493	
0.393292	
0.380348	
0.358795	
0.328246	
0.288248	
0.239577	
0.187282	
0.13874	
0.0983534	
0.0649568	
0.0361555	
0.011108	
-0.0112211	
-0.0314791	
-0.0490836	
-0.0652641	
-0.0807974	
-0.0970426	
-0.112123	
-0.124744	
-0.136005	
-0.147914	
-0.157234	
-0.164483	
-0.171926	
-0.178592	
-0.18377	
-0.188171	
-0.189789	
-0.192896	
-0.195614	
-0.195938	
-0.196132	
-0.195226	
-0.195679	
-0.196909	
-0.197232	
-0.200339	
-0.202216	
-0.203316	
-0.20254	
-0.200274	
-0.185259	
-0.146814	
-0.0741957	
0.020881	
0.120553	
0.210517	
0.284171	
0.341385	
0.38203	
0.407013	
0.419699	
0.422287	
0.417498	
0.405848	
0.387985	
0.36009	
0.318862	
0.268055	
0.20974	
0.154726	
0.107997	
0.0711054	
0.0424335	
0.0181627	
-2.41994E-05	
-0.0163989	
-0.0299258	
-0.0462358	
-0.0624163	
-0.0779496	
-0.0934829	
-0.106816	
-0.117106	
-0.127009	
-0.135423	
-0.142348	
-0.149209	
-0.157234	
-0.164612	
-0.172314	
-0.178204	
-0.180728	
-0.182346	
-0.182152	
-0.18034	
-0.179952	
-0.181376	
-0.182217	
-0.181376	
-0.179822	
-0.176716	
-0.174386	
-0.169855	
-0.156522	
-0.12209	
-0.0533552	
0.0404271	
0.13874	
0.227474	
0.301387	
0.359701	
0.403324	
0.433096	
0.452254	
0.460668	
0.458014	
0.445911	
0.424682	
0.395687	
0.356077	
0.306305	
0.251292	
0.1922	
0.13518	
0.0868329	
0.0490352	
0.0190041	
-0.0032603	
-0.0229358	
-0.0403461	
-0.0582094	
-0.0771082	
-0.0962012	
-0.115359	
-0.132316	
-0.147008	
-0.159694	
-0.168496	
-0.175421	
-0.182346	
-0.190696	
-0.198009	
-0.203057	
-0.206876	
-0.21063	
-0.215355	
-0.216649	
-0.215484	
-0.214578	
-0.213025	
-0.212248	
-0.212248	
-0.212054	
-0.211342	
-0.207782	
-0.202345	
-0.197685	
-0.193737	
-0.187848	
-0.17335	
-0.136976	
-0.0696652	
0.0237288	
0.124436	
0.218413	
0.297503	
0.357695	
0.400153	
0.428177	
0.443193	
0.445782	
0.439633	
0.42863	
0.407272	
0.37737	
0.335042	
0.281258	
0.221973	
0.163205	
0.109356	
0.0640507	
0.027871	
-0.00164225	
-0.0293433	
-0.0522549	
-0.0727071	
-0.0935476	
-0.111476	
-0.128951	
-0.144743	
-0.158788	
-0.172703	
-0.184353	
-0.192443	
-0.199174	
-0.206099	
-0.211601	
-0.216067	
-0.219691	
-0.220791	
-0.221762	
-0.224933	
-0.22694	
-0.228493	
-0.229723	
-0.229076	
-0.22927	
-0.229011	
-0.23037	
-0.229335	
-0.224157	
-0.201957	
-0.148561	
-0.0632577	
0.0365438	
0.13065	
0.210387	
0.272132	
0.315755	
0.343262	
0.359054	
0.367662	
0.366497	
0.354459	
0.332777	
0.303393	
0.263006	
0.212458	
0.156344	
0.102754	
0.0556368	
0.0173213	
-0.0105739	
-0.0333561	
-0.0544555	
-0.0731602	
-0.0908293	
-0.106621	
-0.122802	
-0.137559	
-0.15128	
-0.162283	
-0.170308	
-0.177622	
-0.184353	
-0.189789	
-0.195679	
-0.201828	
-0.205064	
-0.207976	
-0.2094	
-0.209918	
-0.210824	
-0.212507	
-0.213348	
-0.214643	
-0.209465	
-0.184353	
-0.128045	
-0.0401519	
0.0582257	
0.149807	
0.226115	
0.285012	
0.326499	
0.353229	
0.367403	
0.372257	
0.369474	
0.35873	
0.338731	
0.310901	
0.271873	
0.221649	
0.162428	
0.10489	
0.0544718	
0.0153797	
-0.0153633	
-0.0373041	
-0.0548438	
-0.0701182	
-0.0864929	
-0.103062	
-0.117689	
-0.132316	
-0.144484	
-0.154386	
-0.162283	
-0.167007	
-0.171344	
-0.176198	
-0.179822	
-0.182605	
-0.185647	
-0.187848	
-0.190372	
-0.19089	
-0.191472	
-0.191019	
-0.188624	
-0.1861	
-0.183511	
-0.182023	
-0.18157	
-0.180146	
-0.177945	
-0.175745	
-0.173156	
-0.169337	
-0.167201	
-0.165454	
-0.162283	
-0.147849	
-0.105262	
-0.0264308	
0.0766068	
0.187476	
0.286306	
0.36352	
0.42287	
0.462868	
0.486298	
0.496977	
0.495229	
0.486168	
0.469017	
0.444552	
0.411673	
0.368892	
0.314072	
0.252586	
0.188964	
0.131491	
0.0804901	
0.0391974	
0.00741884	
-0.0197644	
-0.0407344	
-0.060151	
-0.0779496	
-0.0945185	
-0.107657	
-0.119954	
-0.130569	
-0.138594	
-0.146231	
-0.15348	
-0.159953	
-0.166036	
-0.174127	
-0.183706	
-0.191084	
-0.196909	
-0.200922	
-0.205517	
-0.207653	
-0.207394	
-0.208818	
-0.210242	
-0.209724	
-0.208624	
-0.206488	
-0.204417	
-0.201504	
-0.200469	
-0.20118	
-0.198333	
-0.194579	
-0.190113	
-0.182411	
-0.167137	
-0.128627	
-0.0574974	
0.0417863	
0.147413	
0.243201	
0.321515	
0.38093	
0.423323	
0.451348	
0.465392	
0.466363	
0.457043	
0.44041	
0.417951	
0.389279	
0.350964	
0.298798	
0.2366	
0.171295	
0.112916	
0.0629504	
0.0229521	
-0.00850279	
-0.032903	
-0.0545202	
-0.0732249	
-0.0899232	
-0.106039	
-0.120084	
-0.134517	
-0.148561	
-0.160988	
-0.173544	
-0.184935	
-0.192443	
-0.198333	
-0.20364	
-0.209077	
-0.212248	
-0.215031	
-0.217167	
-0.218267	
-0.217555	
-0.21406	
-0.209853	
-0.207782	
-0.205193	
-0.20351	
-0.202087	
-0.199692	
-0.19665	
-0.197621	
-0.198397	
-0.196779	
-0.192767	
-0.178463	
-0.138918	
-0.0633871	
0.0389385	
0.14573	
0.237959	
0.31459	
0.370963	
0.409019	
0.430637	
0.437303	
0.431219	
0.418663	
0.397693	
0.369863	
0.330512	
0.280158	
0.223008	
0.16191	
0.105991	
0.0591318	
0.0216577	
-0.00746724	
-0.0303789	
-0.0499249	
-0.0692768	
-0.0853279	
-0.100214	
-0.113158	
-0.123579	
-0.135293	
-0.144096	
-0.151344	
-0.15827	
-0.165583	
-0.173479	
-0.18157	
-0.188948	
-0.192831	
-0.195938	
-0.195161	
-0.19199	
-0.188171	
-0.188301	
-0.188624	
-0.187136	
-0.185582	
-0.183835	
-0.183252	
-0.183447	
-0.18144	
-0.177816	
-0.174968	
-0.169596	
-0.152509	
-0.11154	
-0.0352977	
0.0657982	
0.173949	
0.270903	
0.35077	
0.409278	
0.449989	
0.476201	
0.488369	
0.486039	
0.474842	
0.457108	
0.431025	
0.395751	
0.350705	
0.294202	
0.23194	
0.168771	
0.113498	
0.0687107	
0.0327252	
0.00314718	
-0.0221592	
-0.0439705	
-0.063193	
-0.0796324	
-0.0946479	
-0.108563	
-0.120537	
-0.131345	
-0.144484	
-0.155616	
-0.164548	
-0.171797	
-0.177492	
-0.180858	
-0.18157	
-0.183835	
-0.185841	
-0.188689	
-0.191666	
-0.194708	
-0.194579	
-0.193349	
-0.191407	
-0.187718	
-0.184935	
-0.181764	
-0.180275	
-0.176845	
-0.172767	
-0.169984	
-0.168755	
-0.165777	
-0.163189	
-0.153739	
-0.118983	
-0.0485011	
0.0497471	
0.156603	
0.255952	
0.339767	
0.404554	
0.449147	
0.47633	
0.492511	
0.496653	
0.48798	
0.471865	
0.449018	
0.418081	
0.374976	
0.321321	
0.259835	
0.195307	
0.133886	
0.0839851	
0.0417216	
0.00767773	
-0.0174992	
-0.0361391	
-0.0505074	
-0.0638402	
-0.0775613	
-0.0921885	
-0.106233	
-0.119631	
-0.131993	
-0.143125	
-0.152768	
-0.160923	
-0.170373	
-0.178592	
-0.185841	
-0.192831	
-0.199886	
-0.204934	
-0.208041	
-0.21063	
-0.214707	
-0.21995	
-0.22105	
-0.220403	
-0.219626	
-0.218008	
-0.215808	
-0.213154	
-0.208688	
-0.204158	
-0.200145	
-0.19665	
-0.189919	
-0.170567	
-0.123902	
-0.0456533	
0.0554426	
0.159451	
0.251809	
0.326758	
0.382289	
0.418275	
0.439374	
0.447723	
0.445911	
0.437174	
0.420605	
0.395816	
0.360996	
0.31582	
0.25744	
0.195695	
0.135957	
0.0822376	
0.037191	
-0.00034781	
-0.0309614	
-0.0535494	
-0.0741957	
-0.0934182	
-0.110828	
-0.125844	
-0.13717	
-0.147979	
-0.159241	
-0.169272	
-0.177881	
-0.187006	
-0.195226	
-0.202604	
-0.209659	
-0.215549	
-0.218461	
-0.220403	
-0.221827	
-0.223186	
-0.221568	
-0.217944	
-0.216908	
-0.218461	
-0.21749	
-0.21419	
-0.209271	
-0.205258	
-0.200274	
-0.195809	
-0.192508	
-0.184288	
-0.155875	
-0.092059	
0.00262941	
0.108191	
0.205533	
0.286565	
0.347987	
0.391609	
0.417433	
0.425718	
0.422546	
0.409731	
0.389344	
0.364102	
0.332453	
0.289542	
0.233687	
0.174596	
0.118353	
0.0695521	
0.030913	
-0.000930309	
-0.027078	
-0.0491483	
-0.0685002	
-0.0867518	
-0.104809	
-0.120213	
-0.131345	
-0.14416	
-0.154645	
-0.164418	
-0.174191	
-0.182217	
-0.185971	
-0.18856	
-0.190954	
-0.191602	
-0.19322	
-0.198397	
-0.200015	
-0.197944	
-0.196262	
-0.193608	
-0.189595	
-0.186618	
-0.185777	
-0.183317	
-0.179887	
-0.178592	
-0.177233	
-0.17445	
-0.160535	
-0.120796	
-0.0450708	
0.056996	
0.166829	
0.266696	
0.346627	
0.405589	
0.445458	
0.46824	
0.477949	
0.474712	
0.466299	
0.451671	
0.428889	
0.395493	
0.353488	
0.29951	
0.23647	
0.172331	
0.115052	
0.0678046	
0.0303952	
-0.00241892	
-0.03012	
-0.0525785	
-0.0734191	
-0.0894054	
-0.102091	
-0.113806	
-0.125585	
-0.135034	
-0.144613	
-0.153869	
-0.160859	
-0.166813	
-0.171732	
-0.175292	
-0.176068	
-0.177492	
-0.182411	
-0.186294	
-0.189013	
-0.187783	
-0.188495	
-0.188754	
-0.187654	
-0.187783	
-0.186424	
-0.184159	
-0.184288	
-0.184806	
-0.1861	
-0.185259	
-0.181634	
-0.176716	
-0.15937	
-0.113353	
-0.0308319	
0.0733707	
0.179644	
0.275174	
0.351417	
0.407401	
0.442481	
0.460409	
0.46481	
0.459503	
0.4496	
0.430701	
0.404101	
0.371222	
0.328117	
0.273038	
0.209805	
0.14806	
0.0923342	
0.0472877	
0.013438	
-0.0132922	
-0.0358155	
-0.0582741	
-0.0771729	
-0.0936771	
-0.110311	
-0.126685	
-0.140212	
-0.152898	
-0.1628	
-0.174644	
-0.183382	
-0.193479	
-0.203446	
-0.210695	
-0.216261	
-0.221374	
-0.224933	
-0.228428	
-0.228817	
-0.227069	
-0.226228	
-0.22461	
-0.219432	
-0.214902	
-0.209918	
-0.204546	
-0.202475	
-0.199627	
-0.196974	
-0.195161	
-0.188624	
-0.16746	
-0.112382	
-0.0224828	
0.0859915	
0.190647	
0.278669	
0.347275	
0.397434	
0.426689	
0.439115	
0.440216	
0.432061	
0.418275	
0.396463	
0.366238	
0.323133	
0.270708	
0.211811	
0.151879	
0.0949231	
0.0494235	
0.0151855	
-0.01148	
-0.0332266	
-0.0534847	
-0.0749077	
-0.0938712	
-0.11044	
-0.128239	
-0.143837	
-0.156134	
-0.164936	
-0.173868	
-0.180922	
-0.186294	
-0.187395	
-0.189336	
-0.191343	
-0.194255	
-0.197103	
-0.195873	
-0.193284	
-0.191019	
-0.189919	
-0.187524	
-0.183576	
-0.182411	
-0.180793	
-0.178139	
-0.177104	
-0.176586	
-0.175745	
-0.166619	
-0.133611	
-0.0653935	
0.034408	
0.145147	
0.245531	
0.324945	
0.38559	
0.427854	
0.453225	
0.464033	
0.461768	
0.449147	
0.428954	
0.402288	
0.369151	
0.328958	
0.277245	
0.216989	
0.154144	
0.0976414	
0.0533068	
0.0174508	
-0.0094089	
-0.0327089	
-0.0527727	
-0.0719305	
-0.089729	
-0.105586	
-0.120213	
-0.131734	
-0.143448	
-0.152639	
-0.161182	
-0.167719	
-0.173221	
-0.177881	
-0.180211	
-0.184612	
-0.189077	
-0.191213	
-0.193025	
-0.195809	
-0.19555	
-0.196391	
-0.195679	
-0.19555	
-0.194967	
-0.191796	
-0.188883	
-0.187848	
-0.18733	
-0.185324	
-0.180405	
-0.159305	
-0.106363	
-0.0189878	
0.0880626	
0.195242	
0.286306	
0.358472	
0.412191	
0.447529	
0.46701	
0.471541	
0.464098	
0.448629	
0.427206	
0.396658	
0.357695	
0.311548	
0.254657	
0.191035	
0.12709	
0.070264	
0.0230816	
-0.0151692	
-0.0448119	
-0.0680471	
-0.0872049	
-0.104615	
-0.119242	
-0.132705	
-0.145519	
-0.157428	
-0.169014	
-0.178592	
-0.186877	
-0.194838	
-0.201634	
-0.20597	
-0.209141	
-0.211989	
-0.212313	
-0.212442	
-0.206099	
-0.177298	
-0.117818	
-0.0327089	
0.0614618	
0.14683	
0.214724	
0.262553	
0.291743	
0.309024	
0.31459	
0.31226	
0.300675	
0.281711	
0.253816	
0.214077	
0.163464	
0.109162	
0.0531774	
0.00347079	
-0.0339386	
-0.0638402	
-0.0883051	
-0.109469	
-0.126038	
-0.141636	
-0.155551	
-0.168172	
-0.17678	
-0.184741	
-0.192508	
-0.19885	
-0.203834	
-0.210695	
-0.216131	
-0.220856	
-0.221762	
-0.223963	
-0.227393	
-0.229723	
-0.229982	
-0.229788	
-0.227781	
-0.226681	
-0.227458	
-0.229011	
-0.229011	
-0.227522	
-0.226098	
-0.22461	
-0.222539	
-0.218332	
-0.21296	
-0.206941	
-0.199433	
-0.191925	
-0.184482	
-0.176651	
-0.170696	
-0.168496	
-0.167137	
-0.159823	
-0.130698	
-0.0655877	
0.0361555	
0.156409	
0.270449	
0.366044	
0.440216	
0.492511	
0.525196	
0.540923	
0.543188	
0.535228	
0.51594	
0.488304	
0.455102	
0.410314	
0.355041	
0.291096	
0.222361	
0.159969	
0.106638	
0.063986	
0.0314955	
0.00308246	
-0.0214472	
-0.0431291	
-0.0622869	
-0.0793735	
-0.0956835	
-0.110699	
-0.125456	
-0.138012	
-0.147979	
-0.157752	
-0.167266	
-0.173091	
-0.178722	
-0.184612	
-0.188236	
-0.189984	
-0.191472	
-0.191861	
-0.191925	
-0.193543	
-0.196067	
-0.19788	
-0.198333	
-0.19775	
-0.197103	
-0.197491	
-0.198397	
-0.197362	
-0.195355	
-0.193932	
-0.19199	
-0.184547	
-0.159888	
-0.104615	
-0.0171756	
0.0882567	
0.191747	
0.279446	
0.349993	
0.4019	
0.43562	
0.45303	
0.458597	
0.454778	
0.440927	
0.419699	
0.392062	
0.357307	
0.308635	
0.249674	
0.18411	
0.121006	
0.0696168	
0.0287124	
-0.00254836	
-0.0279841	
-0.0508958	
-0.0726424	
-0.0931593	
-0.11154	
-0.126815	
-0.141571	
-0.153869	
-0.165195	
-0.176392	
-0.186489	
-0.194708	
-0.199886	
-0.204028	
-0.208041	
-0.210759	
-0.213284	
-0.215031	
-0.216325	
-0.217555	
-0.21885	
-0.220468	
-0.219691	
-0.219562	
-0.219173	
-0.217167	
-0.213348	
-0.211018	
-0.209465	
-0.208818	
-0.208041	
-0.204481	
-0.195097	
-0.165713	
-0.0998257	
-0.00300142	
0.107285	
0.209158	
0.292714	
0.35543	
0.399117	
0.425912	
0.435814	
0.435102	
0.424423	
0.405719	
0.38339	
0.352517	
0.309606	
0.257052	
0.198867	
0.138287	
0.0841145	
0.0408154	
0.00631857	
-0.0222239	
-0.0440999	
-0.0611219	
-0.079956	
-0.0961365	
-0.110634	
-0.124938	
-0.135941	
-0.144743	
-0.152639	
-0.160211	
-0.168366	
-0.173156	
-0.178334	
-0.183058	
-0.188366	
-0.190307	
-0.191084	
-0.190954	
-0.191407	
-0.189336	
-0.185777	
-0.180469	
-0.175551	
-0.173415	
-0.171538	
-0.168819	
-0.168625	
-0.168819	
-0.165972	
-0.15594	
-0.122155	
-0.0558146	
0.0400388	
0.143141	
0.235953	
0.307276	
0.360672	
0.394845	
0.411673	
0.417239	
0.412903	
0.401188	
0.382872	
0.356724	
0.32281	
0.275757	
0.221778	
0.16327	
0.107738	
0.0606851	
0.0218519	
-0.00863224	
-0.032903	
-0.0519313	
-0.0675941	
-0.0803443	
-0.0932887	
-0.104097	
-0.116589	
-0.127591	
-0.136782	
-0.145649	
-0.155487	
-0.164807	
-0.168884	
-0.170696	
-0.17212	
-0.174709	
-0.177298	
-0.18157	
-0.183706	
-0.183382	
-0.183447	
-0.181634	
-0.182735	
-0.18623	
-0.185712	
-0.182411	
-0.180858	
-0.180016	
-0.177945	
-0.175551	
-0.164095	
-0.12798	
-0.0606688	
0.0346021	
0.139452	
0.23783	
0.316143	
0.375493	
0.413874	
0.43795	
0.449989	
0.4496	
0.439698	
0.422482	
0.399311	
0.369927	
0.332647	
0.286047	
0.227603	
0.167865	
0.113628	
0.0649568	
0.025088	
-0.00843807	
-0.0376277	
-0.0604746	
-0.0784027	
-0.0942596	
-0.107269	
-0.118919	
-0.128821	
-0.137559	
-0.145714	
-0.152056	
-0.158399	
-0.166619	
-0.174256	
-0.180987	
-0.188107	
-0.194967	
-0.199045	
-0.202022	
-0.206035	
-0.208947	
-0.210695	
-0.211018	
-0.207588	
-0.204352	
-0.199951	
-0.195355	
-0.19322	
-0.19199	
-0.192508	
-0.189854	
-0.18843	
-0.186424	
-0.180405	
-0.15814	
-0.107916	
-0.0230653	
0.0793251	
0.18191	
0.271809	
0.343197	
0.393486	
0.427336	
0.445846	
0.449989	
0.442351	
0.428307	
0.408372	
0.381124	
0.34831	
0.30417	
0.249544	
0.188123	
0.125019	
0.0693579	
0.0245055	
-0.0114153	
-0.0389869	
-0.0609277	
-0.0800207	
-0.097884	
-0.111993	
-0.126232	
-0.138659	
-0.151733	
-0.162477	
-0.169337	
-0.178139	
-0.186294	
-0.19309	
-0.198656	
-0.201957	
-0.203899	
-0.206617	
-0.208106	
-0.207847	
-0.207847	
-0.206552	
-0.206294	
-0.204805	
-0.204675	
-0.202993	
-0.199174	
-0.195679	
-0.192702	
-0.193479	
-0.193284	
-0.192055	
-0.190631	
-0.183447	
-0.156522	
-0.0973015	
-0.00649641	
0.0970589	
0.194272	
0.275951	
0.340155	
0.382742	
0.407207	
0.419051	
0.420022	
0.412644	
0.395622	
0.371998	
0.338731	
0.295432	
0.24249	
0.182622	
0.125019	
0.0758948	
0.0380971	
0.00780717	
-0.0175639	
-0.0398283	
-0.0600216	
-0.0755549	
-0.0886288	
-0.0996315	
-0.10921	
-0.118013	
-0.126621	
-0.135876	
-0.146555	
-0.15581	
-0.161894	
-0.166813	
-0.172314	
-0.175939	
-0.178916	
-0.181246	
-0.184547	
-0.185777	
-0.186812	
-0.188301	
-0.189142	
-0.189207	
-0.190307	
-0.18843	
-0.186553	
-0.184029	
-0.181634	
-0.178916	
-0.170049	
-0.140406	
-0.079244	
0.0104608	
0.110974	
0.202168	
0.275498	
0.330706	
0.370057	
0.394522	
0.407401	
0.410832	
0.402741	
0.388567	
0.368439	
0.338602	
0.301128	
0.252716	
0.195695	
0.13531	
0.081202	
0.0366085	
0.000623022	
-0.0269486	
-0.0500544	
-0.0653935	
-0.0809268	
-0.0946479	
-0.106363	
-0.114	
-0.120278	
-0.12785	
-0.137041	
-0.145584	
-0.15238	
-0.158788	
-0.165842	
-0.171861	
-0.177945	
-0.184547	
-0.190437	
-0.195614	
-0.199562	
-0.200533	
-0.200857	
-0.200015	
-0.198462	
-0.197621	
-0.19898	
-0.200274	
-0.198203	
-0.196197	
-0.196456	
-0.196456	
-0.195291	
-0.191537	
-0.180534	
-0.147202	
-0.0813152	
0.011108	
0.113887	
0.210387	
0.291549	
0.357048	
0.404101	
0.433808	
0.449794	
0.452254	
0.445134	
0.431866	
0.410767	
0.383454	
0.34831	
0.300027	
0.239771	
0.177703	
0.119129	
0.070264	
0.0289713	
-0.00287197	
-0.0277253	
-0.0477891	
-0.0660407	
-0.0813152	
-0.0947126	
-0.107398	
-0.119631	
-0.130569	
-0.139953	
-0.150697	
-0.15937	
-0.16759	
-0.175615	
-0.182087	
-0.188301	
-0.194385	
-0.200857	
-0.206229	
-0.210242	
-0.212701	
-0.213801	
-0.212636	
-0.209853	
-0.209659	
-0.208559	
-0.206552	
-0.204158	
-0.203964	
-0.202863	
-0.199692	
-0.197944	
-0.193155	
-0.18733	
-0.169337	
-0.123449	
-0.0485658	
0.0485821	
0.149484	
0.23783	
0.309865	
0.361708	
0.39834	
0.419116	
0.427595	
0.425135	
0.415621	
0.399764	
0.376076	
0.342873	
0.299639	
0.24592	
0.18657	
0.128708	
0.0783543	
0.036738	
0.00398857	
-0.0214472	
-0.0427408	
-0.0600863	
-0.075296	
-0.0899879	
-0.101897	
-0.114129	
-0.123902	
-0.132446	
-0.141895	
-0.151992	
-0.162477	
-0.172897	
-0.181117	
-0.187977	
-0.195355	
-0.200274	
-0.201828	
-0.200339	
-0.198786	
-0.199045	
-0.19775	
-0.197685	
-0.195614	
-0.189466	
-0.185518	
-0.183835	
-0.18377	
-0.182152	
-0.177816	
-0.160211	
-0.11277	
-0.0334855	
0.0641801	
0.162234	
0.246696	
0.314849	
0.363261	
0.394781	
0.413485	
0.416463	
0.409926	
0.395946	
0.376011	
0.344945	
0.303393	
0.252133	
0.194466	
0.135957	
0.0837262	
0.0397152	
0.00593023	
-0.0224828	
-0.0448766	
-0.0638402	
-0.081121	
-0.0970426	
-0.111929	
-0.127074	
-0.140148	
-0.150891	
-0.158011	
-0.165001	
-0.171732	
-0.177816	
-0.181376	
-0.184612	
-0.187912	
-0.190954	
-0.192249	
-0.191731	
-0.190696	
-0.189142	
-0.188301	
-0.187524	
-0.184288	
-0.180922	
-0.178981	
-0.177622	
-0.17568	
-0.173479	
-0.163965	
-0.134258	
-0.0716068	
0.0181627	
0.115181	
0.207993	
0.287342	
0.348116	
0.387855	
0.412579	
0.426689	
0.427401	
0.420087	
0.407596	
0.388244	
0.35886	
0.319962	
0.268961	
0.208446	
0.145147	
0.089357	
0.0427571	
0.00761301	
-0.0220297	
-0.0447472	
-0.0655877	
-0.086234	
-0.102609	
-0.115359	
-0.12552	
-0.136135	
-0.146684	
-0.155746	
-0.162218	
-0.167719	
-0.175033	
-0.181893	
-0.187848	
-0.191925	
-0.195744	
-0.199433	
-0.20118	
-0.200339	
-0.199239	
-0.199433	
-0.199886	
-0.200015	
-0.199304	
-0.19885	
-0.200533	
-0.20131	
-0.201698	
-0.203057	
-0.202604	
-0.201763	
-0.200274	
-0.197815	
-0.193284	
-0.183447	
-0.163124	
-0.118595	
-0.0462358	
0.0401035	
0.127155	
0.20631	
0.272262	
0.32391	
0.364555	
0.391674	
0.408243	
0.414586	
0.413291	
0.405071	
0.38915	
0.364102	
0.330576	
0.286889	
0.23537	
0.183787	
0.136992	
0.0965412	
0.0629504	
0.0375146	
0.0147972	
-0.0032603	
-0.0220944	
-0.0382102	
-0.0527727	
-0.0681766	
-0.0825449	
-0.0975604	
-0.113482	
-0.129727	
-0.142348	
-0.151539	
-0.160341	
-0.172056	
-0.182735	
-0.191019	
-0.19775	
-0.204093	
-0.208365	
-0.214319	
-0.218591	
-0.22215	
-0.22351	
-0.223898	
-0.224092	
-0.226552	
-0.226357	
-0.224804	
-0.222603	
-0.218655	
-0.215614	
-0.213348	
-0.205905	
-0.188301	
-0.147396	
-0.0837099	
-0.00902057	
0.0652804	
0.131815	
0.188252	
0.235435	
0.272585	
0.298927	
0.314719	
0.324945	
0.330253	
0.330317	
0.320544	
0.299833	
0.272003	
0.234723	
0.195437	
0.157509	
0.121977	
0.0927873	
0.0689048	
0.0468993	
0.0265766	
0.00961939	
-0.00656113	
-0.021965	
-0.0376277	
-0.0532905	
-0.0668821	
-0.0771729	
-0.0890171	
-0.100538	
-0.112188	
-0.124679	
-0.134517	
-0.140924	
-0.148432	
-0.155422	
-0.162347	
-0.169402	
-0.174903	
-0.178075	
-0.182282	
-0.187654	
-0.192572	
-0.19542	
-0.195097	
-0.195161	
-0.195614	
-0.196456	
-0.196326	
-0.193737	
-0.184547	
-0.152963	
-0.099761	
-0.0332914	
0.0346668	
0.0985476	
0.156474	
0.206375	
0.247085	
0.277504	
0.299445	
0.316014	
0.325916	
0.32514	
0.318667	
0.306435	
0.285724	
0.255369	
0.218478	
0.179903	
0.145471	
0.117511	
0.0953762	
0.0760243	
0.0582904	
0.0419157	
0.0272885	
0.0118847	
-0.00351919	
-0.0164636	
-0.0290844	
-0.0432586	
-0.0571091	
-0.0694063	
-0.0807974	
-0.0913471	
-0.0995668	
-0.105262	
-0.111864	
-0.117171	
-0.123449	
-0.128951	
-0.132834	
-0.135876	
-0.136199	
-0.136976	
-0.140342	
-0.143772	
-0.143448	
-0.145584	
-0.149662	
-0.153092	
-0.154969	
-0.154904	
-0.155293	
-0.153027	
-0.147914	
-0.135099	
-0.104097	
-0.0560735	
0.00101135	
0.0626268	
0.120683	
0.172395	
0.217248	
0.254916	
0.287924	
0.314396	
0.334007	
0.345851	
0.350381	
0.34488	
0.334007	
0.313943	
0.286047	
0.252521	
0.217507	
0.182169	
0.151167	
0.12709	
0.106897	
0.0861209	
0.066316	
0.0472877	
0.0276121	
0.0112374	
-0.00416641	
-0.0189231	
-0.0334855	
-0.0474655	
-0.0584683	
-0.0708949	
-0.0836452	
-0.0947774	
-0.102609	
-0.108951	
-0.11387	
-0.116912	
-0.120537	
-0.125261	
-0.131281	
-0.138659	
-0.144419	
-0.14662	
-0.147526	
-0.149921	
-0.155034	
-0.158334	
-0.157105	
-0.156458	
-0.157428	
-0.157946	
-0.15814	
-0.15361	
-0.1384	
-0.106039	
-0.0558146	
0.00793662	
0.0711701	
0.128838	
0.181198	
0.226891	
0.264366	
0.293167	
0.314007	
0.327987	
0.336725	
0.340479	
0.33679	
0.32391	
0.301063	
0.268119	
0.231616	
0.190906	
0.154597	
0.124501	
0.0997773	
0.0776423	
0.0591318	
0.0414627	
0.0234699	
0.00664218	
-0.00908529	
-0.0242303	
-0.0385986	
-0.0502485	
-0.0626752	
-0.0749724	
-0.0865576	
-0.0976898	
-0.10824	
-0.11866	
-0.131216	
-0.141507	
-0.14882	
-0.154257	
-0.15827	
-0.161506	
-0.166295	
-0.170308	
-0.172832	
-0.174127	
-0.175874	
-0.175874	
-0.175033	
-0.173868	
-0.170826	
-0.169402	
-0.166101	
-0.155098	
-0.127203	
-0.0753607	
-0.00643169	
0.0662512	
0.135116	
0.19589	
0.243525	
0.278669	
0.303652	
0.320221	
0.329994	
0.331935	
0.326758	
0.316661	
0.298604	
0.269996	
0.23304	
0.192395	
0.153044	
0.11777	
0.0867681	
0.0614618	
0.0409449	
0.0238583	
0.00903689	
-0.00571974	
-0.0220297	
-0.0399577	
-0.0563324	
-0.0725777	
-0.0879815	
-0.100538	
-0.11154	
-0.12319	
-0.130439	
-0.136847	
-0.143643	
-0.149597	
-0.154904	
-0.157428	
-0.157493	
-0.158076	
-0.157299	
-0.154645	
-0.152898	
-0.141183	
-0.110052	
-0.0551674	
0.0129849	
0.0826906	
0.144824	
0.196343	
0.238088	
0.268896	
0.291678	
0.3076	
0.316532	
0.321515	
0.32048	
0.30993	
0.290449	
0.259058	
0.219643	
0.175761	
0.134468	
0.0993889	
0.0692932	
0.043016	
0.0217224	
0.00133496	
-0.0169167	
-0.0335502	
-0.0500544	
-0.0650052	
-0.0758785	
-0.0840982	
-0.0923826	
-0.100732	
-0.109599	
-0.119566	
-0.130957	
-0.140342	
-0.145455	
-0.150891	
-0.15827	
-0.164742	
-0.171667	
-0.176716	
-0.177816	
-0.177945	
-0.179434	
-0.183447	
-0.1839	
-0.184094	
-0.184353	
-0.183576	
-0.182152	
-0.180922	
-0.181634	
-0.182411	
-0.180146	
-0.180211	
-0.179499	
-0.176651	
-0.172767	
-0.170502	
-0.169661	
-0.171408	
-0.170891	
-0.168819	
-0.160406	
-0.133222	
-0.0813799	
-0.00915002	
0.075377	
0.16191	
0.240354	
0.306888	
0.359572	
0.397499	
0.426559	
0.446235	
0.456655	
0.460797	
0.454907	
0.439504	
0.413485	
0.378924	
0.332777	
0.279187	
0.226244	
0.179839	
0.138805	
0.103337	
0.075377	
0.0490352	
0.0229521	
0.0005583	
-0.0182111	
-0.0320616	
-0.0442294	
-0.061316	
-0.0784674	
-0.0903762	
-0.100861	
-0.112705	
-0.125197	
-0.137947	
-0.148173	
-0.157169	
-0.165001	
-0.170826	
-0.175227	
-0.178851	
-0.180081	
-0.18144	
-0.186489	
-0.190566	
-0.193479	
-0.195873	
-0.197685	
-0.198009	
-0.196974	
-0.195679	
-0.19542	
-0.194708	
-0.193284	
-0.186359	
-0.159176	
-0.10235	
-0.0243597	
0.0613971	
0.143076	
0.214724	
0.272262	
0.314266	
0.343327	
0.36009	
0.369345	
0.373552	
0.37271	
0.36339	
0.344556	
0.313813	
0.269608	
0.218866	
0.166829	
0.119776	
0.0780954	
0.0429513	
0.0158974	
-0.00701419	
-0.0260425	
-0.0409286	
-0.0555558	
-0.0719952	
-0.0893407	
-0.102803	
-0.115812	
-0.126103	
-0.134711	
-0.146684	
-0.157234	
-0.165519	
-0.171732	
-0.177751	
-0.182541	
-0.184353	
-0.185712	
-0.187977	
-0.190178	
-0.192378	
-0.192378	
-0.190501	
-0.190113	
-0.189013	
-0.188754	
-0.190825	
-0.191472	
-0.187654	
-0.183188	
-0.172185	
-0.142348	
-0.0831921	
-0.00105975	
0.0909104	
0.179191	
0.254139	
0.315561	
0.359054	
0.388308	
0.406107	
0.414068	
0.412968	
0.405136	
0.390509	
0.36572	
0.333748	
0.29252	
0.243719	
0.192265	
0.144824	
0.102625	
0.0697462	
0.0444399	
0.0223049	
0.000752466	
-0.021253	
-0.0400872	
-0.0560088	
-0.0692768	
-0.0813152	
-0.095101	
-0.107916	
-0.119178	
-0.129857	
-0.140148	
-0.150827	
-0.160535	
-0.168043	
-0.174321	
-0.181376	
-0.186424	
-0.187912	
-0.188948	
-0.188042	
-0.185841	
-0.183576	
-0.182411	
-0.182346	
-0.180793	
-0.179175	
-0.179434	
-0.181893	
-0.181958	
-0.176716	
-0.16047	
-0.12209	
-0.055038	
0.0298774	
0.1201	
0.201391	
0.271679	
0.32747	
0.370251	
0.399958	
0.416463	
0.424747	
0.424617	
0.417433	
0.402094	
0.378471	
0.345139	
0.301516	
0.248897	
0.196472	
0.147995	
0.107673	
0.0727882	
0.0433396	
0.0178391	
-0.00397225	
-0.0267544	
-0.0453944	
-0.0618985	
-0.0786615	
-0.0935476	
-0.110181	
-0.125715	
-0.140406	
-0.151798	
-0.160859	
-0.167396	
-0.173026	
-0.177298	
-0.181376	
-0.186618	
-0.190954	
-0.191861	
-0.191278	
-0.189531	
-0.185194	
-0.170114	
-0.132899	
-0.0665585	
0.0164799	
0.100813	
0.172525	
0.230581	
0.273944	
0.303976	
0.321321	
0.329152	
0.329282	
0.323651	
0.312195	
0.29239	
0.264042	
0.225338	
0.177185	
0.126443	
0.0786779	
0.0358318	
-0.000283088	
-0.0299258	
-0.0540024	
-0.0739368	
-0.093224	
-0.107786	
-0.12209	
-0.137364	
-0.153933	
-0.167266	
-0.180664	
-0.193025	
-0.203252	
-0.211665	
-0.21762	
-0.224027	
-0.231535	
-0.238849	
-0.24435	
-0.249528	
-0.2538	
-0.256194	
-0.256324	
-0.256065	
-0.2549	
-0.250499	
-0.24681	
-0.244221	
-0.242538	
-0.241955	
-0.242732	
-0.240661	
-0.237813	
-0.23503	
-0.229658	
-0.225192	
-0.222021	
-0.218332	
-0.216325	
-0.214384	
-0.208882	
-0.203705	
-0.196262	
-0.173738	
-0.120278	
-0.0328383	
0.0731765	
0.179062	
0.272262	
0.347339	
0.403194	
0.440669	
0.461574	
0.470959	
0.470894	
0.462415	
0.445911	
0.420734	
0.383778	
0.334136	
0.276016	
0.215242	
0.160098	
0.115505	
0.0784837	
0.0456049	
0.0179685	
-0.00694946	
-0.0287608	
-0.0471419	
-0.0627399	
-0.0787263	
-0.0922532	
-0.104486	
-0.115035	
-0.125391	
-0.1373	
-0.147591	
-0.156263	
-0.166101	
-0.175356	
-0.181246	
-0.187589	
-0.192249	
-0.19432	
-0.194773	
-0.195679	
-0.194385	
-0.19322	
-0.191666	
-0.188495	
-0.184871	
-0.182735	
-0.181699	
-0.17801	
-0.174644	
-0.172185	
-0.164224	
-0.138788	
-0.0842277	
0.0017233	
0.100878	
0.196666	
0.280222	
0.342679	
0.388826	
0.423258	
0.442222	
0.451477	
0.452383	
0.444422	
0.430572	
0.409408	
0.3775	
0.332389	
0.278087	
0.220031	
0.163982	
0.114081	
0.0720115	
0.0397799	
0.0116258	
-0.0124508	
-0.0356861	
-0.0549733	
-0.0702477	
-0.085781	
-0.100926	
-0.112382	
-0.125779	
-0.137753	
-0.148756	
-0.15937	
-0.170308	
-0.180599	
-0.187459	
-0.193932	
-0.199821	
-0.206164	
-0.209853	
-0.210242	
-0.208753	
-0.204999	
-0.20021	
-0.197491	
-0.196715	
-0.193673	
-0.188495	
-0.184612	
-0.182735	
-0.180664	
-0.177881	
-0.177363	
-0.172573	
-0.154581	
-0.109663	
-0.0312203	
0.0694226	
0.171684	
0.263459	
0.337178	
0.391868	
0.432902	
0.458532	
0.470182	
0.469017	
0.459567	
0.443322	
0.419893	
0.38805	
0.345721	
0.295044	
0.237506	
0.180356	
0.128255	
0.0856031	
0.0501354	
0.0206222	
-0.00390753	
-0.0241008	
-0.0417052	
-0.0596333	
-0.0767199	
-0.0941301	
-0.109469	
-0.123255	
-0.133934	
-0.143189	
-0.151668	
-0.159823	
-0.16746	
-0.175162	
-0.184288	
-0.192055	
-0.197362	
-0.199757	
-0.201698	
-0.203381	
-0.202216	
-0.201957	
-0.205582	
-0.210112	
-0.213348	
-0.217749	
-0.219303	
-0.219173	
-0.216779	
-0.213154	
-0.207394	
-0.201763	
-0.188042	
-0.149273	
-0.0783379	
0.0158974	
0.117576	
0.211682	
0.28786	
0.345268	
0.383843	
0.406301	
0.418728	
0.423582	
0.420346	
0.408308	
0.389732	
0.364038	
0.324104	
0.276339	
0.220613	
0.165988	
0.117058	
0.0756359	
0.041851	
0.0160916	
-0.00526669	
-0.0251364	
-0.0444883	
-0.066688	
-0.0849396	
-0.0998257	
-0.111605	
-0.123643	
-0.134128	
-0.144743	
-0.154904	
-0.165001	
-0.175033	
-0.185129	
-0.193349	
-0.200015	
-0.204093	
-0.206099	
-0.207523	
-0.208235	
-0.20817	
-0.207135	
-0.206488	
-0.206876	
-0.207459	
-0.206164	
-0.203057	
-0.198009	
-0.193802	
-0.189595	
-0.181958	
-0.161118	
-0.109405	
-0.0239714	
0.0791957	
0.180939	
0.26689	
0.3309	
0.377047	
0.406948	
0.420152	
0.423064	
0.416657	
0.402094	
0.37983	
0.349605	
0.31103	
0.261841	
0.206051	
0.150778	
0.101848	
0.0608793	
0.0258646	
0.00120552	
-0.0193114	
-0.03711	
-0.0535494	
-0.0669468	
-0.0813152	
-0.0945185	
-0.106492	
-0.118789	
-0.12908	
-0.1384	
-0.145455	
-0.150827	
-0.158399	
-0.166619	
-0.172056	
-0.176068	
-0.178528	
-0.179628	
-0.181634	
-0.180987	
-0.179628	
-0.177169	
-0.175227	
-0.171085	
-0.169014	
-0.165066	
-0.161959	
-0.161312	
-0.1617	
-0.160147	
-0.152186	
-0.128498	
-0.0729013	
0.0171919	
0.118417	
0.215177	
0.297115	
0.361967	
0.407531	
0.438403	
0.455231	
0.461897	
0.460215	
0.451995	
0.435038	
0.409731	
0.375752	
0.332453	
0.276404	
0.21563	
0.157509	
0.107091	
0.0676751	
0.0397152	
0.0182274	
0.00088191	
-0.010315	
-0.0219003	
-0.0341327	
-0.0443588	
-0.053873	
-0.0633224	
-0.0710891	
-0.0800207	
-0.091606	
-0.107657	
-0.121313	
-0.135293	
-0.149532	
-0.161894	
-0.173026	
-0.182799	
-0.191407	
-0.198656	
-0.206682	
-0.21296	
-0.218979	
-0.223639	
-0.224545	
-0.226487	
-0.22694	
-0.225516	
-0.224157	
-0.219885	
-0.213801	
-0.206164	
-0.191602	
-0.156652	
-0.0877874	
0.00741884	
0.111233	
0.207798	
0.284041	
0.338731	
0.374134	
0.395428	
0.404489	
0.403065	
0.393551	
0.376335	
0.350834	
0.320091	
0.283264	
0.236859	
0.185081	
0.130779	
0.0832731	
0.0429513	
0.0113669	
-0.0145867	
-0.0360097	
-0.0519313	
-0.0673999	
-0.0817682	
-0.0947126	
-0.107075	
-0.120084	
-0.134193	
-0.145066	
-0.154386	
-0.1617	
-0.170308	
-0.180016	
-0.185194	
-0.187006	
-0.190631	
-0.194255	
-0.195809	
-0.193673	
-0.192249	
-0.193349	
-0.191925	
-0.19199	
-0.193025	
-0.193155	
-0.192055	
-0.189531	
-0.186294	
-0.182994	
-0.173479	
-0.143189	
-0.0837746	
0.000817188	
0.095894	
0.18644	
0.258411	
0.30637	
0.337113	
0.354265	
0.359442	
0.356142	
0.345074	
0.325916	
0.301581	
0.270903	
0.232652	
0.186958	
0.133756	
0.0802959	
0.0342138	
-0.00235419	
-0.0323852	
-0.0557499	
-0.0743252	
-0.0905704	
-0.104615	
-0.117948	
-0.130828	
-0.141636	
-0.150438	
-0.156975	
-0.162671	
-0.169855	
-0.175421	
-0.181376	
-0.187265	
-0.19322	
-0.199562	
-0.203834	
-0.20584	
-0.204805	
-0.202281	
-0.201504	
-0.202087	
-0.199821	
-0.197685	
-0.194449	
-0.191537	
-0.188236	
-0.185065	
-0.180922	
-0.171473	
-0.146231	
-0.0890818	
0.000428855	
0.105214	
0.202556	
0.2832	
0.34365	
0.385849	
0.412061	
0.426365	
0.430766	
0.424876	
0.411349	
0.392968	
0.367856	
0.334265	
0.292002	
0.240677	
0.182104	
0.127349	
0.0817845	
0.0412685	
0.0105255	
-0.012645	
-0.0312203	
-0.0493424	
-0.0669468	
-0.0823507	
-0.0959424	
-0.106104	
-0.1151	
-0.124808	
-0.135488	
-0.145973	
-0.154839	
-0.162994	
-0.170826	
-0.178139	
-0.180793	
-0.182799	
-0.186359	
-0.189919	
-0.194126	
-0.196456	
-0.195744	
-0.196003	
-0.194902	
-0.192378	
-0.187395	
-0.182152	
-0.182605	
-0.181311	
-0.17924	
-0.177298	
-0.169272	
-0.141701	
-0.079244	
0.0118199	
0.111492	
0.205922	
0.284365	
0.343521	
0.385784	
0.412903	
0.42643	
0.428695	
0.421252	
0.408113	
0.388891	
0.36462	
0.331418	
0.287666	
0.233687	
0.173755	
0.118288	
0.0687107	
0.0291655	
-0.00209531	
-0.0252011	
-0.0438411	
-0.0602805	
-0.0760079	
-0.089729	
-0.102673	
-0.114129	
-0.123126	
-0.130763	
-0.139241	
-0.150633	
-0.161376	
-0.169661	
-0.177427	
-0.182799	
-0.188754	
-0.195809	
-0.202993	
-0.209335	
-0.211601	
-0.211407	
-0.208947	
-0.207329	
-0.207717	
-0.209789	
-0.211277	
-0.21406	
-0.21639	
-0.217814	
-0.219303	
-0.215484	
-0.207135	
-0.181376	
-0.121508	
-0.0301847	
0.0723998	
0.168836	
0.250321	
0.314072	
0.358472	
0.387338	
0.402677	
0.406366	
0.401059	
0.386561	
0.364491	
0.337437	
0.299121	
0.248509	
0.188511	
0.127478	
0.0710407	
0.0223696	
-0.0151692	
-0.0450061	
-0.0693416	
-0.0879168	
-0.101055	
-0.110699	
-0.119048	
-0.128239	
-0.1384	
-0.147526	
-0.15814	
-0.166166	
-0.172573	
-0.178463	
-0.184806	
-0.191213	
-0.197491	
-0.201569	
-0.205193	
-0.207588	
-0.211407	
-0.21296	
-0.207264	
-0.182411	
-0.125585	
-0.0431291	
0.0501354	
0.137446	
0.20851	
0.258541	
0.289801	
0.307406	
0.315367	
0.312907	
0.303134	
0.284882	
0.262489	
0.230257	
0.186958	
0.134209	
0.0812668	
0.0324663	
-0.00701419	
-0.0362686	
-0.0607335	
-0.0793735	
-0.095101	
-0.109663	
-0.122608	
-0.134517	
-0.144808	
-0.155487	
-0.164289	
-0.170632	
-0.176974	
-0.183706	
-0.190113	
-0.192961	
-0.19652	
-0.19885	
-0.198592	
-0.198268	
-0.198009	
-0.199109	
-0.199886	
-0.197621	
-0.196132	
-0.196262	
-0.195614	
-0.19322	
-0.192055	
-0.189984	
-0.185259	
-0.179887	
-0.173479	
-0.168431	
-0.166101	
-0.162283	
-0.161441	
-0.161182	
-0.158334	
-0.155875	
-0.15005	
-0.133675	
-0.089276	
-0.011027	
0.0936287	
0.206504	
0.305011	
0.384101	
0.442287	
0.47989	
0.502543	
0.512445	
0.511539	
0.501507	
0.482544	
0.455231	
0.422482	
0.379571	
0.326499	
0.264624	
0.203203	
0.145277	
0.093564	
0.0518182	
0.0202985	
-0.00429586	
-0.02546	
-0.0436469	
-0.0573033	
-0.0692768	
-0.0822213	
-0.0934829	
-0.105715	
-0.115747	
-0.123902	
-0.131086	
-0.138724	
-0.143837	
-0.149985	
-0.157234	
-0.1628	
-0.166942	
-0.169208	
-0.173026	
-0.177622	
-0.180469	
-0.182346	
-0.184935	
-0.186747	
-0.186036	
-0.185841	
-0.184417	
-0.181893	
-0.178528	
-0.175939	
-0.168949	
-0.150568	
-0.108045	
-0.0339386	
0.0618501	
0.163011	
0.253816	
0.327146	
0.380542	
0.413809	
0.431866	
0.437368	
0.434132	
0.425006	
0.410249	
0.387338	
0.358083	
0.316661	
0.263201	
0.202103	
0.140423	
0.0852148	
0.0368027	
0.00101135	
-0.0288903	
-0.0542613	
-0.0745841	
-0.0882404	
-0.101638	
-0.115035	
-0.125973	
-0.138983	
-0.153221	
-0.164354	
-0.174644	
-0.185971	
-0.191925	
-0.195097	
-0.199951	
-0.205258	
-0.207135	
-0.208106	
-0.209789	
-0.212636	
-0.213542	
-0.211924	
-0.210759	
-0.210889	
-0.211601	
-0.210436	
-0.211795	
-0.211601	
-0.209465	
-0.210177	
-0.20953	
-0.204611	
-0.187265	
-0.1373	
-0.0529669	
0.051624	
0.155374	
0.245143	
0.31226	
0.359378	
0.390444	
0.40656	
0.411544	
0.407466	
0.396528	
0.377629	
0.35077	
0.311289	
0.260418	
0.202556	
0.143918	
0.0883862	
0.0439868	
0.0101372	
-0.0139395	
-0.0308966	
-0.0454591	
-0.0620927	
-0.0798913	
-0.0940654	
-0.106621	
-0.117883	
-0.127721	
-0.13717	
-0.145196	
-0.153739	
-0.160729	
-0.164289	
-0.167784	
-0.174191	
-0.178463	
-0.182411	
-0.183447	
-0.18157	
-0.180534	
-0.180405	
-0.180146	
-0.180405	
-0.183511	
-0.183835	
-0.182605	
-0.182282	
-0.18157	
-0.179757	
-0.164224	
-0.122931	
-0.0481774	
0.0479996	
0.149031	
0.238865	
0.309153	
0.362161	
0.396528	
0.416074	
0.425977	
0.4241	
0.413744	
0.396722	
0.372387	
0.340802	
0.296727	
0.239512	
0.17589	
0.117899	
0.0683223	
0.0314955	
0.0037944	
-0.0202822	
-0.0395047	
-0.053161	
-0.0673999	
-0.0809268	
-0.0947126	
-0.106816	
-0.118077	
-0.128239	
-0.137429	
-0.147655	
-0.153998	
-0.157881	
-0.162024	
-0.165454	
-0.168431	
-0.171344	
-0.175874	
-0.180275	
-0.184029	
-0.186747	
-0.184353	
-0.181052	
-0.178269	
-0.178139	
-0.177104	
-0.175615	
-0.17568	
-0.174903	
-0.174256	
-0.172185	
-0.165389	
-0.138853	
-0.0815093	
0.0043769	
0.10722	
0.208705	
0.295238	
0.364038	
0.413421	
0.444099	
0.462027	
0.465069	
0.458726	
0.446429	
0.428177	
0.399894	
0.363196	
0.316985	
0.258282	
0.192848	
0.130909	
0.0766068	
0.0327252	
-0.000736142	
-0.0290844	
-0.0500544	
-0.0673999	
-0.0844218	
-0.100343	
-0.116524	
-0.131604	
-0.141118	
-0.149144	
-0.157881	
-0.167396	
-0.175939	
-0.182087	
-0.186165	
-0.190825	
-0.195873	
-0.200274	
-0.203575	
-0.20351	
-0.203252	
-0.200533	
-0.199562	
-0.200792	
-0.203187	
-0.205193	
-0.206358	
-0.206552	
-0.207459	
-0.206941	
-0.206423	
-0.205646	
-0.201504	
-0.189789	
-0.15594	
-0.0895349	
0.00431218	
0.110392	
0.210387	
0.291808	
0.352064	
0.392451	
0.416916	
0.429989	
0.430184	
0.424164	
0.410055	
0.387596	
0.356918	
0.315237	
0.263524	
0.204821	
0.145277	
0.0927873	
0.0486468	
0.0120788	
-0.0174344	
-0.0398283	
-0.0604746	
-0.0774318	
-0.0936771	
-0.108628	
-0.120213	
-0.132057	
-0.143901	
-0.152315	
-0.161182	
-0.168561	
-0.174774	
-0.181699	
-0.187265	
-0.191537	
-0.195161	
-0.196585	
-0.196715	
-0.196909	
-0.19555	
-0.194579	
-0.19309	
-0.191731	
-0.191537	
-0.190372	
-0.187459	
-0.186359	
-0.185841	
-0.182735	
-0.175421	
-0.153674	
-0.102091	
-0.017305	
0.0836615	
0.182363	
0.265531	
0.329864	
0.373358	
0.401771	
0.418339	
0.424423	
0.41944	
0.407078	
0.385331	
0.355559	
0.317049	
0.266437	
0.209934	
0.150261	
0.0966706	
0.0522065	
0.0168035	
-0.00953835	
-0.0307672	
-0.0468183	
-0.0610571	
-0.0778849	
-0.0924474	
-0.104421	
-0.112964	
-0.121508	
-0.13141	
-0.140471	
-0.149338	
-0.156652	
-0.161376	
-0.164418	
-0.167654	
-0.168237	
-0.167201	
-0.16636	
-0.166813	
-0.167201	
-0.164677	
-0.162994	
-0.162347	
-0.162153	
-0.163512	
-0.163512	
-0.163059	
-0.162153	
-0.160147	
-0.151927	
-0.12099	
-0.0561383	
0.0361555	
0.140617	
0.23783	
0.31569	
0.374199	
0.414521	
0.442934	
0.459438	
0.463062	
0.454907	
0.439374	
0.417045	
0.387338	
0.34708	
0.296079	
0.234529	
0.169483	
0.107156	
0.0534363	
0.0118199	
-0.0193114	
-0.0446177	
-0.065976	
-0.0813799	
-0.0959424	
-0.109405	
-0.122478	
-0.134711	
-0.145649	
-0.155875	
-0.163901	
-0.167137	
-0.169208	
-0.175162	
-0.18034	
-0.184353	
-0.187071	
-0.189401	
-0.190566	
-0.191278	
-0.189272	
-0.171538	
-0.126362	
-0.0496013	
0.0444399	
0.137446	
0.215759	
0.274074	
0.316467	
0.343974	
0.357565	
0.359766	
0.352582	
0.336919	
0.313619	
0.282941	
0.241001	
0.186181	
0.12476	
0.0624326	
0.00987828	
-0.0325794	
-0.0644227	
-0.0895996	
-0.109534	
-0.12688	
-0.143125	
-0.157493	
-0.16869	
-0.17801	
-0.187718	
-0.19652	
-0.205582	
-0.21406	
-0.221568	
-0.228817	
-0.23736	
-0.243962	
-0.247133	
-0.248881	
-0.248816	
-0.248104	
-0.24778	
-0.246874	
-0.246486	
-0.243832	
-0.242603	
-0.242603	
-0.241826	
-0.237684	
-0.231923	
-0.22817	
-0.224998	
-0.221115	
-0.219173	
-0.213801	
-0.208818	
-0.207653	
-0.204805	
-0.204999	
-0.205064	
-0.203705	
-0.200404	
-0.192961	
-0.168561	
-0.111281	
-0.017305	
0.0980945	
0.214594	
0.313101	
0.385784	
0.436785	
0.468564	
0.486621	
0.492511	
0.48455	
0.467528	
0.442546	
0.409278	
0.365138	
0.310383	
0.246826	
0.183463	
0.127284	
0.0826906	
0.050459	
0.0254763	
0.00515357	
-0.0125156	
-0.0292139	
-0.0459122	
-0.0612513	
-0.077626	
-0.0921237	
-0.105003	
-0.116006	
-0.126103	
-0.136135	
-0.146749	
-0.15581	
-0.164742	
-0.170437	
-0.176068	
-0.179757	
-0.182929	
-0.185065	
-0.185712	
-0.187201	
-0.187265	
-0.186489	
-0.185712	
-0.185777	
-0.186618	
-0.185194	
-0.183511	
-0.184223	
-0.183641	
-0.171667	
-0.135811	
-0.0675293	
0.0269649	
0.129873	
0.222102	
0.294138	
0.347987	
0.384166	
0.405524	
0.416463	
0.416074	
0.407725	
0.393486	
0.370898	
0.339702	
0.298862	
0.248379	
0.191035	
0.134015	
0.0834026	
0.043016	
0.0113022	
-0.0119978	
-0.029408	
-0.0448766	
-0.0605394	
-0.0765257	
-0.0903762	
-0.101703	
-0.112446	
-0.123967	
-0.134581	
-0.143254	
-0.152704	
-0.161376	
-0.169272	
-0.174903	
-0.17911	
-0.180081	
-0.179952	
-0.182217	
-0.185712	
-0.187912	
-0.188948	
-0.188236	
-0.189919	
-0.191213	
-0.192055	
-0.19419	
-0.195355	
-0.196003	
-0.19652	
-0.193996	
-0.191925	
-0.181764	
-0.147332	
-0.0815093	
0.00884273	
0.105408	
0.194595	
0.26922	
0.327858	
0.370057	
0.398081	
0.417239	
0.425135	
0.426559	
0.420152	
0.405524	
0.381901	
0.347792	
0.304105	
0.250644	
0.193042	
0.138546	
0.091234	
0.0529832	
0.0226933	
-0.00125392	
-0.0196997	
-0.0360744	
-0.053873	
-0.0695357	
-0.085781	
-0.0989196	
-0.112964	
-0.125973	
-0.136782	
-0.149079	
-0.159435	
-0.170502	
-0.181505	
-0.191407	
-0.199821	
-0.207264	
-0.21419	
-0.220079	
-0.225128	
-0.230564	
-0.235677	
-0.238719	
-0.238784	
-0.238978	
-0.242279	
-0.245774	
-0.248233	
-0.247975	
-0.249981	
-0.249852	
-0.239884	
-0.20707	
-0.144743	
-0.062481	
0.026253	
0.109162	
0.17822	
0.232522	
0.273556	
0.302228	
0.322162	
0.332906	
0.336078	
0.331871	
0.319315	
0.297697	
0.26566	
0.222814	
0.175243	
0.128643	
0.0874801	
0.0502001	
0.0188747	
-0.0050078	
-0.0250717	
-0.0463005	
-0.0640991	
-0.0781438	
-0.0903762	
-0.10222	
-0.112382	
-0.123902	
-0.133675	
-0.145584	
-0.156069	
-0.16513	
-0.173803	
-0.182087	
-0.189077	
-0.193867	
-0.198333	
-0.201116	
-0.203057	
-0.205776	
-0.209077	
-0.213219	
-0.214254	
-0.215096	
-0.218138	
-0.220209	
-0.219562	
-0.219432	
-0.216649	
-0.20817	
-0.187395	
-0.142478	
-0.0747782	
0.000493577	
0.0736943	
0.140164	
0.192395	
0.233493	
0.265725	
0.287666	
0.30061	
0.307147	
0.308118	
0.304105	
0.290254	
0.263977	
0.226374	
0.183139	
0.142623	
0.106249	
0.0782895	
0.0536951	
0.0317544	
0.0119494	
-0.0067553	
-0.0240361	
-0.0385986	
-0.0540024	
-0.0696005	
-0.0853279	
-0.0977546	
-0.106686	
-0.114906	
-0.122025	
-0.128303	
-0.135164	
-0.140989	
-0.145973	
-0.149985	
-0.152704	
-0.155875	
-0.157234	
-0.157428	
-0.158788	
-0.162412	
-0.163512	
-0.162994	
-0.163124	
-0.165001	
-0.169014	
-0.170955	
-0.171861	
-0.164418	
-0.139759	
-0.0940007	
-0.0320616	
0.0361555	
0.101784	
0.160551	
0.212523	
0.25757	
0.291614	
0.317179	
0.336466	
0.350381	
0.355041	
0.351352	
0.343844	
0.325399	
0.294332	
0.257376	
0.214788	
0.173107	
0.137316	
0.106314	
0.0789368	
0.0541482	
0.0309777	
0.0078719	
-0.0119978	
-0.0288903	
-0.0459122	
-0.0622221	
-0.0748429	
-0.0842277	
-0.0919943	
-0.10002	
-0.105521	
-0.111476	
-0.119242	
-0.126038	
-0.132122	
-0.138012	
-0.144808	
-0.151215	
-0.156393	
-0.159888	
-0.162024	
-0.163059	
-0.163706	
-0.164418	
-0.163447	
-0.162994	
-0.164871	
-0.165842	
-0.166166	
-0.166425	
-0.164418	
-0.15471	
-0.12675	
-0.079956	
-0.0185994	
0.0479349	
0.110003	
0.165859	
0.216601	
0.258476	
0.290578	
0.316661	
0.337178	
0.353358	
0.358795	
0.357177	
0.346822	
0.325981	
0.294656	
0.255887	
0.214788	
0.175502	
0.141135	
0.111492	
0.0861856	
0.0606851	
0.038356	
0.0182274	
-0.000995031	
-0.0170461	
-0.0334208	
-0.0514783	
-0.0692768	
-0.0859751	
-0.0996962	
-0.109793	
-0.119307	
-0.132705	
-0.144808	
-0.15361	
-0.160017	
-0.16526	
-0.169208	
-0.171991	
-0.175874	
-0.180016	
-0.180987	
-0.182541	
-0.183835	
-0.186618	
-0.188495	
-0.192055	
-0.194579	
-0.195614	
-0.195226	
-0.193414	
-0.189725	
-0.174256	
-0.137753	
-0.0808621	
-0.0130333	
0.0544071	
0.115311	
0.16903	
0.21084	
0.243072	
0.26676	
0.285724	
0.29938	
0.307341	
0.307535	
0.298733	
0.278475	
0.248768	
0.2133	
0.176732	
0.140229	
0.10735	
0.0810726	
0.0589376	
0.0391327	
0.0203633	
0.00191746	
-0.0140689	
-0.0274016	
-0.0405402	
-0.0537435	
-0.0673999	
-0.0797618	
-0.0913471	
-0.103127	
-0.114259	
-0.125585	
-0.132834	
-0.137882	
-0.143448	
-0.150503	
-0.156975	
-0.159953	
-0.161635	
-0.164807	
-0.169078	
-0.171473	
-0.17335	
-0.176651	
-0.180081	
-0.182799	
-0.184547	
-0.184223	
-0.179434	
-0.167525	
-0.139889	
-0.089729	
-0.022418	
0.0526596	
0.123983	
0.185275	
0.235694	
0.276274	
0.308441	
0.329347	
0.341773	
0.346174	
0.344038	
0.333942	
0.315755	
0.291096	
0.257634	
0.217183	
0.177962	
0.141329	
0.111427	
0.0856031	
0.0626915	
0.0415274	
0.0237935	
0.00696579	
-0.00856752	
-0.0211883	
-0.0319969	
-0.0441647	
-0.0569149	
-0.0670763	
-0.0749077	
-0.0815093	
-0.0899232	
-0.0960071	
-0.101638	
-0.107916	
-0.11277	
-0.115747	
-0.119307	
-0.123838	
-0.125326	
-0.126362	
-0.128174	
-0.129533	
-0.132316	
-0.13387	
-0.137106	
-0.140018	
-0.142801	
-0.143966	
-0.144354	
-0.142736	
-0.136329	
-0.118983	
-0.0835804	
-0.0272075	
0.0467699	
0.119129	
0.187023	
0.244043	
0.287989	
0.321192	
0.343844	
0.356659	
0.362937	
0.36475	
0.360996	
0.349216	
0.332777	
0.309412	
0.275498	
0.234529	
0.191294	
0.15039	
0.114987	
0.0876742	
0.0630798	
0.0427571	
0.0239877	
0.00560662	
-0.0123214	
-0.0286961	
-0.0436469	
-0.0554263	
-0.0651346	
-0.0751666	
-0.0879815	
-0.100408	
-0.114971	
-0.126815	
-0.136653	
-0.145261	
-0.152251	
-0.158464	
-0.166489	
-0.174191	
-0.178269	
-0.184482	
-0.191343	
-0.196391	
-0.201504	
-0.206229	
-0.207523	
-0.206617	
-0.206229	
-0.204093	
-0.201892	
-0.20008	
-0.197103	
-0.188301	
-0.167072	
-0.121766	
-0.0517372	
0.0306541	
0.108515	
0.175373	
0.227992	
0.268508	
0.294591	
0.312519	
0.324298	
0.330447	
0.329088	
0.323975	
0.312001	
0.293232	
0.261971	
0.222685	
0.179515	
0.137899	
0.102496	
0.0727882	
0.0492293	
0.0286477	
0.00851912	
-0.0067553	
-0.0222886	
-0.0379513	
-0.0518019	
-0.0662996	
-0.0809915	
-0.0943243	
-0.107657	
-0.120796	
-0.130504	
-0.139436	
-0.147914	
-0.158334	
-0.166619	
-0.172444	
-0.176651	
-0.178463	
-0.181181	
-0.184482	
-0.185841	
-0.1861	
-0.185518	
-0.185259	
-0.184353	
-0.185194	
-0.18623	
-0.186359	
-0.188236	
-0.184547	
-0.16759	
-0.124744	
-0.0541966	
0.0315602	
0.112981	
0.182298	
0.235888	
0.272844	
0.299186	
0.31802	
0.327534	
0.333489	
0.332518	
0.325787	
0.310512	
0.28553	
0.250839	
0.210193	
0.165794	
0.124242	
0.0887098	
0.0597143	
0.037191	
0.0177744	
0.00146441	
-0.00934418	
-0.0178875	
-0.0277253	
-0.0392458	
-0.0532905	
-0.0677882	
-0.0828685	
-0.0938065	
-0.104162	
-0.112576	
-0.119372	
-0.124161	
-0.128692	
-0.132899	
-0.137494	
-0.142348	
-0.144096	
-0.144613	
-0.142866	
-0.141507	
-0.141313	
-0.14073	
-0.141571	
-0.143384	
-0.144808	
-0.14539	
-0.144613	
-0.143837	
-0.140277	
-0.132705	
-0.109728	
-0.0606688	
0.0123377	
0.0957645	
0.174467	
0.239965	
0.293037	
0.334913	
0.362873	
0.378794	
0.38805	
0.392192	
0.391221	
0.382225	
0.363973	
0.33666	
0.298733	
0.252263	
0.202168	
0.15382	
0.113757	
0.0818493	
0.0538246	
0.0310424	
0.0138911	
-0.0032603	
-0.0180169	
-0.0321911	
-0.0482422	
-0.061316	
-0.0754902	
-0.0921237	
-0.106168	
-0.117883	
-0.128562	
-0.138335	
-0.148108	
-0.155875	
-0.159953	
-0.16293	
-0.166231	
-0.169402	
-0.172962	
-0.17568	
-0.177686	
-0.177492	
-0.177039	
-0.176068	
-0.174062	
-0.173479	
-0.172767	
-0.172314	
-0.173091	
-0.173674	
-0.171926	
-0.166425	
-0.145843	
-0.0992432	
-0.02779	
0.0549896	
0.135957	
0.204692	
0.259123	
0.298862	
0.325657	
0.340285	
0.343197	
0.340155	
0.332	
0.321062	
0.303393	
0.274656	
0.23647	
0.191488	
0.143853	
0.102107	
0.0641801	
0.033243	
0.00981356	
-0.00863224	
-0.0253953	
-0.0407344	
-0.0561383	
-0.0708302	
-0.0851338	
-0.0984665	
-0.112446	
-0.125973	
-0.139047	
-0.151992	
-0.1628	
-0.174191	
-0.182411	
-0.187589	
-0.190954	
-0.192443	
-0.193155	
-0.194255	
-0.195809	
-0.197103	
-0.197427	
-0.195744	
-0.192896	
-0.19432	
-0.196262	
-0.197038	
-0.197297	
-0.19788	
-0.197815	
-0.192572	
-0.182152	
-0.158011	
-0.107851	
-0.0314791	
0.0553132	
0.138805	
0.207604	
0.25977	
0.297374	
0.322357	
0.336272	
0.343585	
0.343715	
0.337955	
0.32268	
0.299704	
0.26676	
0.226568	
0.17945	
0.13285	
0.0920753	
0.057449	
0.0280652	
0.00411801	
-0.0143278	
-0.0307025	
-0.0461711	
-0.060151	
-0.0730954	
-0.0877226	
-0.100991	
-0.112188	
-0.12332	
-0.134452	
-0.141895	
-0.148238	
-0.15361	
-0.159694	
-0.166489	
-0.170826	
-0.171344	
-0.171408	
-0.172962	
-0.172573	
-0.17102	
-0.169402	
-0.166748	
-0.164224	
-0.160082	
-0.156393	
-0.153869	
-0.151992	
-0.144872	
-0.119501	
-0.0668174	
0.0120788	
0.100619	
0.184175	
0.255434	
0.310512	
0.349993	
0.376335	
0.393745	
0.4019	
0.401447	
0.392645	
0.375688	
0.35407	
0.323651	
0.28197	
0.232393	
0.180227	
0.132074	
0.091687	
0.0590671	
0.0333077	
0.009943	
-0.00953835	
-0.0269486	
-0.0409286	
-0.0513488	
-0.0629341	
-0.0766552	
-0.0884993	
-0.0987901	
-0.109469	
-0.117689	
-0.124938	
-0.131863	
-0.138724	
-0.144419	
-0.148561	
-0.151474	
-0.155293	
-0.158076	
-0.163383	
-0.165454	
-0.166036	
-0.165066	
-0.163124	
-0.161829	
-0.162024	
-0.159823	
-0.158205	
-0.156846	
-0.156911	
-0.156069	
-0.153221	
-0.144484	
-0.116265	
-0.0584035	
0.0230169	
0.11311	
0.197572	
0.269673	
0.32624	
0.36695	
0.393745	
0.410702	
0.416721	
0.415298	
0.408113	
0.394198	
0.371416	
0.339573	
0.29828	
0.247538	
0.194919	
0.146054	
0.103208	
0.067481	
0.0397152	
0.0147324	
-0.00584919	
-0.0245539	
-0.0435822	
-0.062028	
-0.0782732	
-0.0921885	
-0.10591	
-0.116459	
-0.127462	
-0.140342	
-0.153998	
-0.165972	
-0.173738	
-0.183641	
-0.191019	
-0.19555	
-0.200274	
-0.204934	
-0.210565	
-0.215872	
-0.217102	
-0.21529	
-0.214319	
-0.214449	
-0.214578	
-0.212636	
-0.210177	
-0.207588	
-0.204093	
-0.199109	
-0.195355	
-0.18966	
-0.16992	
-0.122802	
-0.0440999	
0.0484527	
0.138869	
0.214724	
0.274333	
0.317502	
0.346239	
0.363714	
0.370963	
0.36928	
0.364102	
0.351546	
0.330835	
0.300481	
0.258476	
0.209481	
0.156862	
0.106573	
0.0657982	
0.0333077	
0.00936051	
-0.00824391	
-0.0249422	
-0.042935	
-0.061316	
-0.0796971	
-0.0941949	
-0.106168	
-0.118207	
-0.130892	
-0.140083	
-0.148303	
-0.157169	
-0.165066	
-0.172379	
-0.178075	
-0.182929	
-0.186942	
-0.189595	
-0.191278	
-0.189984	
-0.188301	
-0.186359	
-0.182346	
-0.181764	
-0.183511	
-0.185647	
-0.188301	
-0.186618	
-0.183317	
-0.177686	
-0.169272	
-0.148691	
-0.100991	
-0.0227417	
0.074924	
0.170454	
0.249868	
0.310901	
0.353812	
0.382289	
0.398664	
0.405848	
0.404618	
0.395169	
0.380606	
0.356077	
0.322615	
0.278604	
0.226762	
0.171554	
0.121524	
0.0808784	
0.0477407	
0.0202338	
-0.00351919	
-0.0228064	
-0.0389222	
-0.0567208	
-0.0731602	
-0.0891465	
-0.103515	
-0.113741	
-0.122478	
-0.130633	
-0.1384	
-0.143189	
-0.148303	
-0.153286	
-0.156199	
-0.158723	
-0.160082	
-0.160406	
-0.159435	
-0.160794	
-0.163965	
-0.165066	
-0.165066	
-0.163901	
-0.163771	
-0.163189	
-0.161959	
-0.16047	
-0.159953	
-0.158205	
-0.149468	
-0.124032	
-0.0677235	
0.0158974	
0.11078	
0.202168	
0.279316	
0.337566	
0.379441	
0.408825	
0.4263	
0.432967	
0.429795	
0.417628	
0.397175	
0.369863	
0.334265	
0.28896	
0.234917	
0.178479	
0.124631	
0.0783543	
0.0400388	
0.0102666	
-0.0137453	
-0.0336797	
-0.0501838	
-0.0656524	
-0.0793088	
-0.0901174	
-0.099049	
-0.109016	
-0.118919	
-0.127397	
-0.135941	
-0.144613	
-0.153027	
-0.159435	
-0.166942	
-0.173026	
-0.178463	
-0.183188	
-0.185647	
-0.187654	
-0.187977	
-0.189207	
-0.189142	
-0.187848	
-0.186294	
-0.184353	
-0.180275	
-0.177816	
-0.176198	
-0.174839	
-0.176133	
-0.176262	
-0.16979	
-0.142801	
-0.0839688	
0.00372968	
0.101719	
0.192589	
0.269608	
0.329152	
0.369604	
0.394198	
0.404942	
0.406431	
0.399505	
0.38792	
0.369086	
0.341385	
0.303069	
0.253169	
0.197767	
0.141135	
0.0890981	
0.0482585	
0.0175155	
-0.00746724	
-0.0269486	
-0.0455886	
-0.0640344	
-0.0815093	
-0.098596	
-0.113482	
-0.124614	
-0.136135	
-0.148691	
-0.160859	
-0.170114	
-0.177363	
-0.183641	
-0.192961	
-0.198915	
-0.201828	
-0.203575	
-0.206552	
-0.2083	
-0.209271	
-0.213154	
-0.213931	
-0.21406	
-0.212572	
-0.207005	
-0.202216	
-0.196067	
-0.179757	
-0.139436	
-0.0633224	
0.0347316	
0.130326	
0.21084	
0.272068	
0.316208	
0.34242	
0.354653	
0.356983	
0.352647	
0.341061	
0.322292	
0.296015	
0.258735	
0.210582	
0.15861	
0.105279	
0.0570607	
0.0178391	
-0.00979724	
-0.0332914	
-0.0529022	
-0.0701182	
-0.0852632	
-0.100214	
-0.114129	
-0.125326	
-0.136976	
-0.14772	
-0.158593	
-0.166942	
-0.172703	
-0.175939	
-0.180081	
-0.183964	
-0.186683	
-0.186683	
-0.184871	
-0.183382	
-0.182735	
-0.182799	
-0.183123	
-0.182023	
-0.178269	
-0.161959	
-0.11756	
-0.0405402	
0.0542776	
0.150066	
0.232522	
0.295367	
0.338731	
0.365656	
0.381642	
0.390768	
0.389473	
0.377241	
0.357501	
0.3309	
0.295691	
0.247149	
0.190841	
0.133497	
0.0810726	
0.0384854	
0.00754829	
-0.0162694	
-0.0384691	
-0.0576916	
-0.0762021	
-0.0915412	
-0.105974	
-0.118725	
-0.128627	
-0.139565	
-0.149532	
-0.15814	
-0.16759	
-0.174968	
-0.180858	
-0.184288	
-0.187071	
-0.188301	
-0.189725	
-0.188689	
-0.18733	
-0.186877	
-0.187395	
-0.18623	
-0.186165	
-0.187654	
-0.186942	
-0.184029	
-0.184029	
-0.183641	
-0.181505	
-0.178851	
-0.173997	
-0.168884	
-0.162024	
-0.141377	
-0.0903115	
-0.00565502	
0.098677	
0.203462	
0.292455	
0.36119	
0.413938	
0.449082	
0.469729	
0.476589	
0.4729	
0.458467	
0.437432	
0.410508	
0.3764	
0.332324	
0.277116	
0.213623	
0.149937	
0.0962176	
0.051624	
0.014603	
-0.0129039	
-0.0365922	
-0.056656	
-0.0733543	
-0.0859751	
-0.0969779	
-0.10824	
-0.118983	
-0.127591	
-0.138012	
-0.151021	
-0.161959	
-0.170179	
-0.178916	
-0.185841	
-0.188689	
-0.192767	
-0.198915	
-0.204417	
-0.210306	
-0.214449	
-0.214125	
-0.213607	
-0.212572	
-0.211148	
-0.209465	
-0.208235	
-0.207135	
-0.205323	
-0.20241	
-0.20008	
-0.198786	
-0.197685	
-0.193608	
-0.185324	
-0.154386	
-0.0870107	
0.0114963	
0.117641	
0.212005	
0.28896	
0.346951	
0.387661	
0.411803	
0.423711	
0.424747	
0.418663	
0.406107	
0.386431	
0.354588	
0.31116	
0.254981	
0.19343	
0.132397	
0.0787426	
0.0363496	
0.00450635	
-0.0200233	
-0.0412522	
-0.0607335	
-0.0771729	
-0.0921885	
-0.106816	
-0.118789	
-0.132899	
-0.145714	
-0.155228	
-0.162865	
-0.172056	
-0.180728	
-0.186424	
-0.191343	
-0.193673	
-0.196456	
-0.199886	
-0.200986	
-0.204028	
-0.208624	
-0.210306	
-0.209659	
-0.207912	
-0.204934	
-0.201957	
-0.199757	
-0.196779	
-0.195614	
-0.19322	
-0.192055	
-0.187783	
-0.174256	
-0.13963	
-0.0717363	
0.0252174	
0.129873	
0.227668	
0.307276	
0.364232	
0.401123	
0.422093	
0.432967	
0.434002	
0.424876	
0.408049	
0.38326	
0.351999	
0.307665	
0.250386	
0.189935	
0.131038	
0.0783543	
0.0360907	
0.00586551	
-0.0174344	
-0.0360097	
-0.0528374	
-0.0697299	
-0.0831274	
-0.0949715	
-0.106104	
-0.116136	
-0.125326	
-0.134323	
-0.140471	
-0.146879	
-0.154839	
-0.158917	
-0.1617	
-0.164612	
-0.16746	
-0.171602	
-0.173997	
-0.175227	
-0.177686	
-0.177622	
-0.177298	
-0.17568	
-0.174839	
-0.173932	
-0.172767	
-0.171926	
-0.170373	
-0.169531	
-0.166942	
-0.163124	
-0.159176	
-0.148044	
-0.114453	
-0.0449413	
0.0496177	
0.156927	
0.256858	
0.335754	
0.395557	
0.437044	
0.463321	
0.475877	
0.477172	
0.467658	
0.450183	
0.425782	
0.393616	
0.353423	
0.303781	
0.24579	
0.183204	
0.123919	
0.0723998	
0.0347963	
0.00431218	
-0.0232594	
-0.0467536	
-0.0651346	
-0.0798265	
-0.0916707	
-0.102932	
-0.114776	
-0.126232	
-0.136329	
-0.144678	
-0.152898	
-0.162477	
-0.173544	
-0.181764	
-0.187912	
-0.192249	
-0.193479	
-0.195614	
-0.196779	
-0.198074	
-0.19788	
-0.196067	
-0.195097	
-0.192961	
-0.190954	
-0.189595	
-0.187848	
-0.187783	
-0.186489	
-0.186359	
-0.188495	
-0.190242	
-0.190825	
-0.189142	
-0.175874	
-0.13607	
-0.0620927	
0.036738	
0.141976	
0.237441	
0.313166	
0.368633	
0.406689	
0.430637	
0.440474	
0.44028	
0.431996	
0.416527	
0.392321	
0.360996	
0.320285	
0.267408	
0.205792	
0.144436	
0.0882567	
0.0444399	
0.0102019	
-0.017305	
-0.0401519	
-0.0598921	
-0.0758138	
-0.0889524	
-0.102738	
-0.115359	
-0.127203	
-0.137947	
-0.149597	
-0.160729	
-0.170632	
-0.179887	
-0.187977	
-0.194579	
-0.199757	
-0.203252	
-0.206358	
-0.209077	
-0.20584	
-0.184806	
-0.131151	
-0.0510252	
0.0387443	
0.121265	
0.188382	
0.237441	
0.269479	
0.286047	
0.292067	
0.29019	
0.281711	
0.265013	
0.239771	
0.203462	
0.15505	
0.100295	
0.0459932	
-0.00157753	
-0.0369805	
-0.0622869	
-0.0806032	
-0.0981429	
-0.116977	
-0.131604	
-0.144031	
-0.157623	
-0.168366	
-0.178204	
-0.187265	
-0.194708	
-0.198656	
-0.202345	
-0.206941	
-0.209724	
-0.210371	
-0.213284	
-0.213219	
-0.213089	
-0.215743	
-0.218138	
-0.21762	
-0.215614	
-0.213154	
-0.210954	
-0.207459	
-0.204417	
-0.200533	
-0.199368	
-0.198397	
-0.195355	
-0.191213	
-0.186036	
-0.18144	
-0.178269	
-0.173738	
-0.168237	
-0.16293	
-0.15937	
-0.155293	
-0.151798	
-0.147785	
-0.141183	
-0.134711	
-0.129986	
-0.125779	
-0.121508	
-0.113482	
-0.0943243	
-0.0444236	
0.0467052	
0.163011	
0.282229	
0.386237	
0.46934	
0.529661	
0.569336	
0.588235	
0.593542	
0.587005	
0.571537	
0.546166	
0.513675	
0.474712	
0.421964	
0.359248	
0.29006	
0.221843	
0.161652	
0.110198	
0.0670926	
0.0334371	
0.00567135	
-0.0165283	
-0.0347152	
-0.0507663	
-0.0677882	
-0.0828038	
-0.0938065	
-0.104356	
-0.115747	
-0.125973	
-0.135617	
-0.143966	
-0.151021	
-0.155487	
-0.15827	
-0.158917	
-0.161765	
-0.164936	
-0.166231	
-0.16746	
-0.169143	
-0.170049	
-0.170114	
-0.170243	
-0.169855	
-0.170891	
-0.170049	
-0.16869	
-0.167137	
-0.166166	
-0.167266	
-0.167978	
-0.165454	
-0.157299	
-0.133934	
-0.081121	
0.00256468	
0.103337	
0.206116	
0.295173	
0.363585	
0.412579	
0.446041	
0.464745	
0.470635	
0.466557	
0.452836	
0.433096	
0.404036	
0.36708	
0.322033	
0.265789	
0.200938	
0.138093	
0.0834673	
0.0388738	
0.00508885	
-0.0208	
-0.0418347	
-0.0598274	
-0.0740663	
-0.0900526	
-0.104356	
-0.119307	
-0.132963	
-0.145196	
-0.156716	
-0.167525	
-0.173674	
-0.178204	
-0.182346	
-0.188171	
-0.192767	
-0.198268	
-0.205452	
-0.209594	
-0.210954	
-0.211665	
-0.210824	
-0.21173	
-0.21406	
-0.213542	
-0.212119	
-0.210824	
-0.208882	
-0.205193	
-0.202928	
-0.203575	
-0.202345	
-0.20008	
-0.194514	
-0.177492	
-0.133546	
-0.0547791	
0.0448282	
0.149743	
0.243396	
0.318344	
0.373228	
0.411026	
0.432255	
0.438662	
0.436332	
0.427142	
0.409408	
0.383972	
0.351223	
0.305852	
0.250127	
0.188317	
0.131556	
0.0829495	
0.0459285	
0.0165447	
-0.00850279	
-0.0286314	
-0.0454591	
-0.0624163	
-0.0783379	
-0.0915412	
-0.101379	
-0.111735	
-0.122414	
-0.130957	
-0.139436	
-0.147526	
-0.153869	
-0.158334	
-0.164612	
-0.170826	
-0.175033	
-0.177622	
-0.18157	
-0.181764	
-0.183511	
-0.184094	
-0.185841	
-0.184612	
-0.181376	
-0.178981	
-0.176327	
-0.175356	
-0.173738	
-0.174191	
-0.173479	
-0.165195	
-0.135034	
-0.0675941	
0.0299421	
0.138287	
0.238024	
0.317891	
0.376076	
0.413809	
0.434973	
0.445523	
0.445264	
0.43685	
0.420669	
0.39601	
0.362808	
0.319574	
0.263977	
0.203656	
0.144241	
0.0925931	
0.0494235	
0.0155738	
-0.0101856	
-0.0288255	
-0.0437763	
-0.0584683	
-0.0727071	
-0.0842277	
-0.0949068	
-0.105392	
-0.115941	
-0.123514	
-0.131734	
-0.137947	
-0.144419	
-0.150309	
-0.15594	
-0.161118	
-0.167849	
-0.173738	
-0.175551	
-0.175421	
-0.174515	
-0.173932	
-0.17445	
-0.176845	
-0.176521	
-0.177945	
-0.178981	
-0.178981	
-0.178463	
-0.17691	
-0.170955	
-0.167137	
-0.160017	
-0.137818	
-0.0870754	
-0.00125392	
0.104631	
0.20851	
0.298927	
0.369021	
0.421252	
0.454584	
0.473418	
0.47989	
0.475942	
0.460927	
0.43575	
0.406884	
0.368698	
0.323327	
0.269996	
0.208705	
0.147607	
0.0942112	
0.0503296	
0.0153797	
-0.0123214	
-0.0352977	
-0.0569149	
-0.0748429	
-0.0905704	
-0.106298	
-0.118595	
-0.129015	
-0.142219	
-0.153674	
-0.163965	
-0.174968	
-0.1839	
-0.191213	
-0.19775	
-0.20351	
-0.211018	
-0.21516	
-0.218008	
-0.21995	
-0.224092	
-0.228493	
-0.230758	
-0.229982	
-0.227263	
-0.224351	
-0.222086	
-0.221309	
-0.220662	
-0.219044	
-0.218397	
-0.216325	
-0.215678	
-0.207523	
-0.177816	
-0.115618	
-0.0213178	
0.0881273	
0.192459	
0.282229	
0.349346	
0.395946	
0.424488	
0.439957	
0.443516	
0.435685	
0.420152	
0.395687	
0.364685	
0.325657	
0.276274	
0.21783	
0.156215	
0.0978356	
0.0485821	
0.0109786	
-0.0170461	
-0.0415758	
-0.0641638	
-0.0819624	
-0.097431	
-0.109081	
-0.118789	
-0.12921	
-0.139565	
-0.150179	
-0.160341	
-0.169014	
-0.175551	
-0.180146	
-0.182605	
-0.185712	
-0.187459	
-0.18966	
-0.19309	
-0.195291	
-0.195291	
-0.196909	
-0.197297	
-0.196326	
-0.195614	
-0.193802	
-0.191019	
-0.188366	
-0.187136	
-0.18623	
-0.183123	
-0.174839	
-0.153545	
-0.102479	
-0.0171108	
0.088904	
0.191747	
0.277763	
0.343456	
0.390315	
0.419051	
0.431672	
0.432902	
0.424423	
0.407854	
0.384878	
0.353164	
0.311936	
0.259964	
0.203268	
0.144306	
0.087739	
0.0428866	
0.00871328	
-0.0177581	
-0.0383397	
-0.0570444	
-0.0734838	
-0.0899232	
-0.105198	
-0.120601	
-0.129792	
-0.140989	
-0.150568	
-0.158529	
-0.164224	
-0.166878	
-0.170373	
-0.174191	
-0.177427	
-0.180146	
-0.182152	
-0.184612	
-0.186747	
-0.185129	
-0.182735	
-0.181958	
-0.180664	
-0.179563	
-0.177816	
-0.178204	
-0.175745	
-0.173026	
-0.170632	
-0.167719	
-0.16403	
-0.150568	
-0.108498	
-0.0285019	
0.0747298	
0.180745	
0.273038	
0.349152	
0.404359	
0.440798	
0.460991	
0.469211	
0.466946	
0.454778	
0.436009	
0.408566	
0.372775	
0.327923	
0.273362	
0.21084	
0.147607	
0.0883215	
0.0401682	
0.00366496	
-0.0237772	
-0.0459769	
-0.0631282	
-0.0795029	
-0.0954246	
-0.111087	
-0.12552	
-0.138594	
-0.148173	
-0.156328	
-0.16526	
-0.172832	
-0.179628	
-0.186812	
-0.191537	
-0.194644	
-0.197168	
-0.199239	
-0.200015	
-0.20118	
-0.202022	
-0.203446	
-0.203446	
-0.202281	
-0.19788	
-0.194967	
-0.192961	
-0.191019	
-0.190242	
-0.187848	
-0.187071	
-0.188366	
-0.188883	
-0.183252	
-0.156522	
-0.0945185	
0.000234689	
0.109356	
0.211941	
0.29938	
0.365073	
0.410638	
0.436332	
0.445846	
0.44384	
0.434973	
0.418016	
0.395428	
0.364944	
0.322874	
0.272456	
0.214853	
0.152526	
0.0940817	
0.0435338	
0.00347079	
-0.0278547	
-0.0517372	
-0.0700535	
-0.0829332	
-0.0914765	
-0.102803	
-0.114259	
-0.12455	
-0.132446	
-0.142995	
-0.153804	
-0.165066	
-0.175097	
-0.183252	
-0.191472	
-0.197103	
-0.203252	
-0.208235	
-0.211277	
-0.212054	
-0.215355	
-0.216649	
-0.21516	
-0.213219	
-0.210565	
-0.206747	
-0.204352	
-0.201698	
-0.199368	
-0.19652	
-0.195873	
-0.197232	
-0.194902	
-0.179304	
-0.135682	
-0.0570444	
0.0476113	
0.156862	
0.252133	
0.327081	
0.377953	
0.409667	
0.427401	
0.432772	
0.426559	
0.412709	
0.392709	
0.361449	
0.319703	
0.269284	
0.211358	
0.151102	
0.0945995	
0.0470288	
0.0115611	
-0.0159458	
-0.0377572	
-0.0556205	
-0.0736132	
-0.0886935	
-0.102091	
-0.113482	
-0.123579	
-0.133158	
-0.142219	
-0.149014	
-0.155357	
-0.160017	
-0.164548	
-0.170373	
-0.17568	
-0.178916	
-0.18267	
-0.183964	
-0.183835	
-0.184935	
-0.186489	
-0.189531	
-0.190113	
-0.187654	
-0.187071	
-0.185129	
-0.184288	
-0.182799	
-0.182282	
-0.180664	
-0.176586	
-0.158852	
-0.119372	
-0.0448766	
0.0543424	
0.16094	
0.257764	
0.335948	
0.394263	
0.436979	
0.462156	
0.472382	
0.471282	
0.461639	
0.441834	
0.413744	
0.381771	
0.341579	
0.287924	
0.227021	
0.165664	
0.107414	
0.0595201	
0.021593	
-0.00694946	
-0.03012	
-0.0505722	
-0.0661702	
-0.0814446	
-0.0947774	
-0.107657	
-0.118789	
-0.128303	
-0.137494	
-0.146879	
-0.157623	
-0.164807	
-0.170632	
-0.178463	
-0.184871	
-0.189725	
-0.192831	
-0.193737	
-0.193996	
-0.192961	
-0.191666	
-0.190178	
-0.18966	
-0.187977	
-0.183511	
-0.180922	
-0.177751	
-0.175809	
-0.177104	
-0.177557	
-0.171732	
-0.147461	
-0.0899232	
0.00152913	
0.108256	
0.210258	
0.297115	
0.364167	
0.41245	
0.441186	
0.453289	
0.453742	
0.443775	
0.427142	
0.403971	
0.370639	
0.327664	
0.274656	
0.213818	
0.149613	
0.0892923	
0.0395857	
0.00152913	
-0.0291491	
-0.0546497	
-0.0778849	
-0.0934829	
-0.105262	
-0.114453	
-0.12332	
-0.133805	
-0.14429	
-0.15348	
-0.164612	
-0.174709	
-0.187136	
-0.195679	
-0.199886	
-0.202734	
-0.204805	
-0.204417	
-0.198397	
-0.170049	
-0.110958	
-0.0286961	
0.0627562	
0.145277	
0.210711	
0.258929	
0.290772	
0.304752	
0.306241	
0.298409	
0.284494	
0.265013	
0.235823	
0.194336	
0.142235	
0.085409	
0.031366	
-0.0129686	
-0.0454591	
-0.0701182	
-0.0916707	
-0.107981	
-0.122802	
-0.136005	
-0.150697	
-0.164224	
-0.172444	
-0.179757	
-0.187783	
-0.193155	
-0.19788	
-0.204805	
-0.210177	
-0.215743	
-0.220015	
-0.222215	
-0.223057	
-0.222474	
-0.220597	
-0.219432	
-0.22215	
-0.221503	
-0.220015	
-0.218655	
-0.214707	
-0.211342	
-0.208753	
-0.20364	
-0.199562	
-0.197491	
-0.19322	
-0.185194	
-0.177945	
-0.171085	
-0.164354	
-0.159176	
-0.153351	
-0.149856	
-0.147591	
-0.143901	
-0.138983	
-0.130245	
-0.104421	
-0.0413816	
0.0613971	
0.183139	
0.302422	
0.402029	
0.476913	
0.527396	
0.558722	
0.573996	
0.577491	
0.568948	
0.551732	
0.52649	
0.490116	
0.44384	
0.387143	
0.32158	
0.25278	
0.185793	
0.125666	
0.0760243	
0.0390032	
0.00916634	
-0.0181464	
-0.038728	
-0.0548438	
-0.0722541	
-0.0886935	
-0.103321	
-0.1162	
-0.126491	
-0.136782	
-0.145325	
-0.149791	
-0.156975	
-0.165324	
-0.167913	
-0.169272	
-0.174127	
-0.178722	
-0.181764	
-0.184417	
-0.185971	
-0.185647	
-0.182799	
-0.178204	
-0.172703	
-0.169208	
-0.168561	
-0.167331	
-0.165713	
-0.163124	
-0.162541	
-0.161959	
-0.160535	
-0.148626	
-0.111346	
-0.0402166	
0.058614	
0.164952	
0.26443	
0.345462	
0.404036	
0.444164	
0.468952	
0.48099	
0.479114	
0.468499	
0.449406	
0.420993	
0.385914	
0.340285	
0.283847	
0.218542	
0.151879	
0.0890334	
0.0379677	
-0.000153644	
-0.0297964	
-0.0521902	
-0.0712185	
-0.090894	
-0.109405	
-0.125003	
-0.138788	
-0.152445	
-0.163577	
-0.17225	
-0.179175	
-0.188107	
-0.194061	
-0.201828	
-0.207976	
-0.212313	
-0.215096	
-0.215678	
-0.215678	
-0.21516	
-0.21639	
-0.21885	
-0.218202	
-0.214902	
-0.211601	
-0.21186	
-0.210371	
-0.209012	
-0.207588	
-0.203964	
-0.200598	
-0.198397	
-0.193349	
-0.183706	
-0.154516	
-0.0925121	
0.00295302	
0.111492	
0.213559	
0.297762	
0.361255	
0.404942	
0.431349	
0.442675	
0.442546	
0.431866	
0.412126	
0.385655	
0.35174	
0.309606	
0.253428	
0.194077	
0.135763	
0.0826906	
0.0402329	
0.00774245	
-0.0183406	
-0.0400872	
-0.0591802	
-0.0776907	
-0.0929651	
-0.107786	
-0.11976	
-0.13031	
-0.140406	
-0.147785	
-0.153545	
-0.161571	
-0.168107	
-0.172897	
-0.178916	
-0.184029	
-0.187265	
-0.189401	
-0.189984	
-0.189595	
-0.187912	
-0.185712	
-0.182929	
-0.179822	
-0.177945	
-0.176392	
-0.174709	
-0.172962	
-0.171408	
-0.171279	
-0.169078	
-0.154386	
-0.114194	
-0.0376925	
0.0627562	
0.168642	
0.265466	
0.340349	
0.393939	
0.430572	
0.4507	
0.458338	
0.454778	
0.440216	
0.416851	
0.384296	
0.342356	
0.29252	
0.23194	
0.168124	
0.109033	
0.0590671	
0.0188099	
-0.013357	
-0.0402166	
-0.0635813	
-0.0828685	
-0.0954893	
-0.106751	
-0.117236	
-0.128951	
-0.14073	
-0.150956	
-0.160988	
-0.167396	
-0.172962	
-0.175939	
-0.176262	
-0.178398	
-0.179757	
-0.179757	
-0.181311	
-0.183123	
-0.18267	
-0.181376	
-0.177881	
-0.175227	
-0.173156	
-0.171602	
-0.170696	
-0.170567	
-0.169402	
-0.165324	
-0.1617	
-0.158334	
-0.152251	
-0.134517	
-0.0900526	
-0.00915002	
0.0949878	
0.201779	
0.297374	
0.372257	
0.428566	
0.467981	
0.490828	
0.498983	
0.496394	
0.481767	
0.456525	
0.424294	
0.385655	
0.338925	
0.282747	
0.219254	
0.155115	
0.0941465	
0.0432749	
0.00457107	
-0.0242303	
-0.0469477	
-0.067853	
-0.0868165	
-0.106039	
-0.122608	
-0.137559	
-0.150438	
-0.159564	
-0.166295	
-0.175874	
-0.181893	
-0.187265	
-0.193608	
-0.199951	
-0.203122	
-0.206099	
-0.210954	
-0.214384	
-0.214643	
-0.211407	
-0.206035	
-0.201439	
-0.197685	
-0.195938	
-0.192896	
-0.193155	
-0.19432	
-0.191343	
-0.187718	
-0.185259	
-0.182217	
-0.177686	
-0.167913	
-0.143837	
-0.0888229	
0.00191746	
0.108126	
0.212588	
0.299769	
0.367338	
0.41698	
0.446947	
0.460668	
0.463386	
0.456331	
0.441769	
0.419699	
0.388438	
0.347469	
0.294591	
0.233234	
0.168253	
0.106314	
0.052336	
0.00838967	
-0.0237772	
-0.0505722	
-0.0733543	
-0.093936	
-0.113094	
-0.131022	
-0.146102	
-0.158723	
-0.167978	
-0.17801	
-0.187848	
-0.197103	
-0.205517	
-0.211536	
-0.214384	
-0.216196	
-0.219044	
-0.221568	
-0.221956	
-0.220532	
-0.220468	
-0.218138	
-0.213413	
-0.209012	
-0.207264	
-0.205517	
-0.204287	
-0.202022	
-0.200727	
-0.198786	
-0.199239	
-0.198721	
-0.196844	
-0.187524	
-0.16047	
-0.0993079	
-0.00468419	
0.104696	
0.211423	
0.29705	
0.360996	
0.403518	
0.427401	
0.438015	
0.437174	
0.426041	
0.406948	
0.378147	
0.34145	
0.293491	
0.236211	
0.173302	
0.111816	
0.0602968	
0.0221108	
-0.00694946	
-0.0305083	
-0.0516724	
-0.0672057	
-0.0800854	
-0.0916707	
-0.106557	
-0.119178	
-0.131669	
-0.143707	
-0.152704	
-0.160535	
-0.16746	
-0.176133	
-0.185129	
-0.191537	
-0.194902	
-0.198009	
-0.20021	
-0.199368	
-0.197168	
-0.193543	
-0.189531	
-0.185647	
-0.182152	
-0.179693	
-0.176586	
-0.173803	
-0.172638	
-0.171732	
-0.169272	
-0.156587	
-0.115747	
-0.0411875	
0.0588729	
0.165729	
0.260094	
0.33789	
0.396722	
0.436462	
0.459373	
0.466493	
0.462221	
0.447594	
0.425653	
0.395298	
0.356595	
0.309153	
0.253169	
0.191294	
0.129679	
0.0766715	
0.0320132	
-0.00209531	
-0.0275311	
-0.0482422	
-0.0665585	
-0.0848749	
-0.100538	
-0.112641	
-0.124355	
-0.135293	
-0.14539	
-0.15361	
-0.159629	
-0.164742	
-0.169467	
-0.172767	
-0.175486	
-0.175551	
-0.173803	
-0.172056	
-0.171991	
-0.170049	
-0.168172	
-0.166101	
-0.161894	
-0.157752	
-0.156328	
-0.158593	
-0.158723	
-0.156069	
-0.151021	
-0.146296	
-0.145131	
-0.145066	
-0.142801	
-0.134711	
-0.106427	
-0.0411227	
0.0553779	
0.162946	
0.263395	
0.345657	
0.407078	
0.4496	
0.476395	
0.488628	
0.488498	
0.47989	
0.462221	
0.438015	
0.408761	
0.367468	
0.316532	
0.256016	
0.191618	
0.129873	
0.0767362	
0.0344727	
0.00217635	
-0.022418	
-0.0439705	
-0.0621574	
-0.0800207	
-0.0965248	
-0.111864	
-0.128174	
-0.142672	
-0.154516	
-0.16746	
-0.179369	
-0.188171	
-0.193867	
-0.198009	
-0.203575	
-0.207912	
-0.2105	
-0.213801	
-0.217361	
-0.219303	
-0.21762	
-0.214772	
-0.213219	
-0.209918	
-0.206747	
-0.203964	
-0.201375	
-0.200533	
-0.201698	
-0.205387	
-0.207459	
-0.205776	
-0.200986	
-0.193479	
-0.163642	
-0.0971073	
0.0017233	
0.112916	
0.216665	
0.301257	
0.364038	
0.406948	
0.43452	
0.448047	
0.452254	
0.443128	
0.422546	
0.395363	
0.360737	
0.317179	
0.263848	
0.202685	
0.140358	
0.0828848	
0.0346021	
-0.000995031	
