
-0.21073 
-0.079583 
0.056543 
0.18698 
0.30784 
0.41144 
0.49557 
0.56432 
0.61547 
0.64696 
0.663 
0.66462 
0.64612 
0.60499 
0.54782 
0.48464 
0.41965 
0.35738 
0.30105 
0.2477 
0.19862 
0.1549 
0.11209 
0.070964 
0.031646 
-0.0060556 
-0.042334 
-0.076479 
-0.10933 
-0.14328 
-0.17406 
-0.20239 
-0.22845 
-0.2505 
-0.27333 
-0.29635 
-0.31743 
-0.33567 
-0.35028 
-0.36212 
-0.3713 
-0.38068 
-0.39122 
-0.40241 
-0.41055 
-0.41605 
-0.42206 
-0.42711 
-0.43138 
-0.43332 
-0.43642 
-0.4381 
-0.43616 
-0.435 
-0.43176 
-0.41566 
-0.37324 
-0.29745 
-0.18894 
-0.061347 
0.068312 
0.19176 
0.30338 
0.40083 
0.48122 
0.54401 
0.58721 
0.61359 
0.62278 
0.61301 
0.58785 
0.54543 
0.49156 
0.43485 
0.38014 
0.32808 
0.27868 
0.23153 
0.18918 
0.14882 
0.10976 
0.072387 
0.037078 
0.0035153 
-0.029207 
-0.061023 
-0.092323 
-0.12375 
-0.15324 
-0.18176 
-0.20808 
-0.23278 
-0.25671 
-0.27727 
-0.2946 
-0.30754 
-0.31963 
-0.33043 
-0.33884 
-0.34912 
-0.35571 
-0.36218 
-0.36897 
-0.37531 
-0.38229 
-0.38656 
-0.39212 
-0.39639 
-0.39756 
-0.39464 
-0.37744 
-0.33761 
-0.2657 
-0.16417 
-0.043563 
0.078013 
0.1961 
0.30597 
0.40019 
0.47488 
0.53205 
0.57033 
0.58947 
0.59367 
0.58126 
0.55145 
0.5043 
0.44584 
0.38557 
0.32679 
0.27409 
0.22313 
0.17767 
0.13725 
0.099094 
0.062622 
0.029059 
-0.0041155 
-0.036967 
-0.06652 
-0.097949 
-0.12485 
-0.148 
-0.16947 
-0.19094 
-0.21086 
-0.23013 
-0.24895 
-0.26647 
-0.28639 
-0.30417 
-0.31614 
-0.32687 
-0.33431 
-0.33813 
-0.33942 
-0.34259 
-0.34576 
-0.35086 
-0.35765 
-0.36445 
-0.37098 
-0.37751 
-0.38346 
-0.38598 
-0.3852 
-0.37499 
-0.3466 
-0.2871 
-0.18926 
-0.068395 
0.063656 
0.19441 
0.31677 
0.42845 
0.52422 
0.60273 
0.66203 
0.70439 
0.73038 
0.73918 
0.73148 
0.706 
0.66171 
0.60506 
0.54511 
0.48076 
0.41771 
0.35932 
0.30267 
0.25035 
0.20153 
0.15652 
0.1141 
0.074003 
0.033392 
-0.0076076 
-0.049771 
-0.090383 
-0.12705 
-0.16313 
-0.19728 
-0.2291 
-0.25742 
-0.28316 
-0.30514 
-0.32448 
-0.33987 
-0.35183 
-0.36483 
-0.37576 
-0.38372 
-0.39076 
-0.39568 
-0.40105 
-0.4059 
-0.40952 
-0.41495 
-0.41605 
-0.41605 
-0.41508 
-0.41489 
-0.40881 
-0.38708 
-0.33871 
-0.25613 
-0.14037 
-0.010518 
0.11804 
0.24078 
0.35427 
0.45244 
0.53315 
0.59439 
0.63959 
0.6685 
0.67917 
0.67464 
0.65 
0.60661 
0.54905 
0.48775 
0.428 
0.36889 
0.31521 
0.26788 
0.22222 
0.17799 
0.1355 
0.095279 
0.055702 
0.015543 
-0.021899 
-0.057014 
-0.093228 
-0.12957 
-0.16203 
-0.19366 
-0.22134 
-0.24584 
-0.2688 
-0.28956 
-0.30702 
-0.32364 
-0.33871 
-0.34867 
-0.35643 
-0.3647 
-0.37078 
-0.3746 
-0.37706 
-0.37932 
-0.38249 
-0.38359 
-0.38747 
-0.39148 
-0.39542 
-0.39807 
-0.39943 
-0.39322 
-0.36761 
-0.31161 
-0.21765 
-0.098983 
0.028994 
0.15432 
0.2726 
0.37865 
0.4666 
0.53832 
0.59199 
0.62847 
0.64573 
0.64386 
0.62504 
0.59064 
0.54382 
0.48904 
0.43317 
0.3815 
0.33319 
0.28573 
0.24078 
0.1972 
0.15678 
0.11513 
0.074133 
0.033909 
-0.0050209 
-0.04505 
-0.083528 
-0.11819 
-0.15156 
-0.18428 
-0.21616 
-0.2441 
-0.27029 
-0.2959 
-0.3186 
-0.33832 
-0.3563 
-0.36968 
-0.37964 
-0.38792 
-0.39361 
-0.39872 
-0.40286 
-0.40648 
-0.40764 
-0.40855 
-0.40945 
-0.40719 
-0.40409 
-0.39154 
-0.35798 
-0.29079 
-0.18687 
-0.064515 
0.062751 
0.18769 
0.3048 
0.4084 
0.49603 
0.56858 
0.62219 
0.65892 
0.68149 
0.68777 
0.67503 
0.64618 
0.60247 
0.54802 
0.49085 
0.43233 
0.3782 
0.32466 
0.27221 
0.22429 
0.17754 
0.13317 
0.089653 
0.048007 
0.0084947 
-0.033151 
-0.07622 
-0.11716 
-0.15427 
-0.18894 
-0.22276 
-0.24985 
-0.27359 
-0.29738 
-0.31704 
-0.33282 
-0.3488 
-0.36645 
-0.38081 
-0.39167 
-0.40059 
-0.40777 
-0.41379 
-0.41586 
-0.41799 
-0.42245 
-0.42653 
-0.43351 
-0.4381 
-0.43952 
-0.44037 
-0.43739 
-0.42355 
-0.38857 
-0.32422 
-0.22295 
-0.09769 
0.037401 
0.17198 
0.29898 
0.41299 
0.50818 
0.58449 
0.64218 
0.68583 
0.71292 
0.72379 
0.71318 
0.68434 
0.64205 
0.58773 
0.52817 
0.46893 
0.41112 
0.35518 
0.30066 
0.24783 
0.19758 
0.14818 
0.099935 
0.049882 
0.0014459 
-0.045632 
-0.091417 
-0.13306 
-0.17309 
-0.21144 
-0.24306 
-0.27022 
-0.2915 
-0.31148 
-0.32771 
-0.34485 
-0.36134 
-0.37337 
-0.38346 
-0.39277 
-0.40092 
-0.40706 
-0.40894 
-0.41062 
-0.40835 
-0.40823 
-0.40629 
-0.40654 
-0.40447 
-0.39962 
-0.39458 
-0.38598 
-0.36826 
-0.32862 
-0.25192 
-0.14289 
-0.013557 
0.12076 
0.25216 
0.37264 
0.47663 
0.56341 
0.63189 
0.68589 
0.72553 
0.7503 
0.75877 
0.74791 
0.71932 
0.67787 
0.63073 
0.57822 
0.52519 
0.47333 
0.41901 
0.36481 
0.31198 
0.25908 
0.20838 
0.1582 
0.10957 
0.061652 
0.01729 
-0.024227 
-0.064192 
-0.10286 
-0.13753 
-0.16986 
-0.19987 
-0.2258 
-0.24694 
-0.26951 
-0.29241 
-0.30999 
-0.32648 
-0.34071 
-0.3541 
-0.36554 
-0.37725 
-0.38494 
-0.39051 
-0.39355 
-0.39626 
-0.40131 
-0.40732 
-0.40764 
-0.39872 
-0.36949 
-0.30482 
-0.20323 
-0.078419 
0.055444 
0.18905 
0.3136 
0.42812 
0.53224 
0.62142 
0.69934 
0.76084 
0.80604 
0.8332 
0.83275 
0.79951 
0.73523 
0.64502 
0.54388 
0.4408 
0.34011 
0.24647 
0.15936 
0.077043 
0.0032566 
-0.059019 
-0.1136 
-0.16365 
-0.21228 
-0.26382 
-0.31239 
-0.35384 
-0.38798 
-0.41683 
-0.43746 
-0.44651 
-0.44929 
-0.45168 
-0.45737 
-0.46403 
-0.46947 
-0.47651 
-0.48033 
-0.48279 
-0.48214 
-0.48039 
-0.47703 
-0.47438 
-0.47296 
-0.47212 
-0.47212 
-0.47057 
-0.46785 
-0.46365 
-0.45828 
-0.45175 
-0.44198 
-0.422 
-0.37738 
-0.29182 
-0.17477 
-0.042852 
0.09211 
0.21724 
0.33093 
0.42851 
0.50792 
0.56975 
0.61424 
0.63868 
0.64858 
0.6447 
0.61961 
0.57596 
0.52008 
0.458 
0.3932 
0.33267 
0.27531 
0.22028 
0.16932 
0.11927 
0.067407 
0.016643 
-0.029983 
-0.073828 
-0.11664 
-0.15492 
-0.19262 
-0.2278 
-0.25884 
-0.28781 
-0.31387 
-0.33813 
-0.35753 
-0.37408 
-0.38837 
-0.39904 
-0.40719 
-0.4154 
-0.4229 
-0.4286 
-0.43222 
-0.43493 
-0.43726 
-0.4403 
-0.44463 
-0.45104 
-0.4575 
-0.45918 
-0.45808 
-0.45666 
-0.44735 
-0.41657 
-0.35998 
-0.26647 
-0.14341 
-0.0032749 
0.13996 
0.2746 
0.39198 
0.49124 
0.56981 
0.62704 
0.66442 
0.68266 
0.68376 
0.66934 
0.63293 
0.58171 
0.52183 
0.46033 
0.40161 
0.34483 
0.29226 
0.24473 
0.20133 
0.15904 
0.11681 
0.077366 
0.041799 
0.00649 
-0.026491 
-0.057531 
-0.090059 
-0.12382 
-0.15227 
-0.1824 
-0.20911 
-0.23207 
-0.25128 
-0.27016 
-0.28704 
-0.30178 
-0.31607 
-0.32597 
-0.33703 
-0.34653 
-0.35242 
-0.35694 
-0.36037 
-0.3636 
-0.36794 
-0.37499 
-0.379 
-0.38397 
-0.39025 
-0.39458 
-0.396 
-0.39025 
-0.36613 
-0.3131 
-0.22192 
-0.09769 
0.043803 
0.18562 
0.31974 
0.43873 
0.53942 
0.61721 
0.67121 
0.70536 
0.71926 
0.717 
0.70051 
0.66914 
0.62096 
0.56069 
0.49422 
0.43175 
0.37316 
0.31909 
0.26865 
0.21957 
0.17501 
0.13104 
0.083574 
0.035203 
-0.013816 
-0.065421 
-0.11302 
-0.15149 
-0.18434 
-0.21073 
-0.23039 
-0.24539 
-0.25574 
-0.26505 
-0.27081 
-0.27527 
-0.28096 
-0.28581 
-0.29124 
-0.29557 
-0.29654 
-0.29978 
-0.30657 
-0.30767 
-0.30495 
-0.30288 
-0.30301 
-0.30417 
-0.30553 
-0.30728 
-0.30715 
-0.30708 
-0.30715 
-0.30799 
-0.30708 
-0.29997 
-0.27566 
-0.2192 
-0.1244 
-0.0013995 
0.13208 
0.26225 
0.38228 
0.48258 
0.56069 
0.61896 
0.66287 
0.69087 
0.70141 
0.69811 
0.6769 
0.6383 
0.58313 
0.51362 
0.44158 
0.3751 
0.31412 
0.25798 
0.20554 
0.15723 
0.10873 
0.0601 
0.010952 
-0.03535 
-0.080747 
-0.12175 
-0.15925 
-0.19424 
-0.2256 
-0.25399 
-0.27766 
-0.29952 
-0.3226 
-0.34388 
-0.3563 
-0.36251 
-0.36457 
-0.36496 
-0.36335 
-0.36056 
-0.35733 
-0.35565 
-0.3563 
-0.35571 
-0.3552 
-0.35345 
-0.35397 
-0.35571 
-0.3594 
-0.36373 
-0.36833 
-0.37499 
-0.3821 
-0.38501 
-0.38669 
-0.38617 
-0.36878 
-0.32319 
-0.24345 
-0.12783 
0.005132 
0.13899 
0.26749 
0.38654 
0.48671 
0.56567 
0.62362 
0.65944 
0.67981 
0.68259 
0.66985 
0.64159 
0.59743 
0.54285 
0.48367 
0.42793 
0.37658 
0.32407 
0.26768 
0.21181 
0.16001 
0.11015 
0.064562 
0.024338 
-0.01582 
-0.057725 
-0.093034 
-0.12039 
-0.14289 
-0.1599 
-0.17296 
-0.18312 
-0.19333 
-0.20407 
-0.2126 
-0.22121 
-0.23065 
-0.2388 
-0.24714 
-0.25509 
-0.26337 
-0.2721 
-0.28018 
-0.28626 
-0.29046 
-0.29124 
-0.29228 
-0.29325 
-0.297 
-0.29907 
-0.30159 
-0.3034 
-0.30262 
-0.30165 
-0.30249 
-0.29881 
-0.28988 
-0.26486 
-0.20866 
-0.11075 
0.01231 
0.14268 
0.27202 
0.39327 
0.50172 
0.58928 
0.65977 
0.7137 
0.75321 
0.77591 
0.77998 
0.76433 
0.734 
0.69029 
0.63946 
0.58753 
0.53567 
0.48768 
0.4408 
0.3956 
0.34988 
0.30558 
0.26199 
0.22015 
0.1776 
0.13596 
0.092175 
0.051887 
0.012633 
-0.026879 
-0.065485 
-0.1026 
-0.1372 
-0.16999 
-0.20032 
-0.22942 
-0.25457 
-0.27449 
-0.2915 
-0.30851 
-0.32235 
-0.3347 
-0.34854 
-0.35953 
-0.36904 
-0.37654 
-0.38423 
-0.39186 
-0.39594 
-0.40027 
-0.4026 
-0.40687 
-0.40971 
-0.4145 
-0.41527 
-0.41172 
-0.39982 
-0.36438 
-0.29512 
-0.18907 
-0.060441 
0.071805 
0.20114 
0.32265 
0.43491 
0.52952 
0.60551 
0.66597 
0.71337 
0.74629 
0.76362 
0.76595 
0.74842 
0.71467 
0.67024 
0.61864 
0.56102 
0.50133 
0.43647 
0.3632 
0.28172 
0.19209 
0.10246 
0.018324 
-0.065356 
-0.14373 
-0.2139 
-0.27462 
-0.32784 
-0.37505 
-0.4156 
-0.44541 
-0.46863 
-0.49035 
-0.51286 
-0.53213 
-0.54687 
-0.56543 
-0.58225 
-0.59447 
-0.60216 
-0.60378 
-0.59602 
-0.59059 
-0.58787 
-0.58703 
-0.58664 
-0.58089 
-0.56841 
-0.55308 
-0.53245 
-0.50988 
-0.4857 
-0.46112 
-0.44043 
-0.42038 
-0.40247 
-0.37841 
-0.33114 
-0.24462 
-0.12349 
0.020458 
0.16648 
0.30448 
0.43019 
0.54188 
0.63745 
0.71221 
0.76808 
0.8085 
0.83185 
0.83747 
0.8237 
0.7902 
0.73918 
0.67444 
0.60519 
0.54032 
0.47954 
0.42069 
0.36695 
0.31399 
0.26426 
0.21317 
0.15917 
0.10692 
0.059324 
0.012957 
-0.030629 
-0.074927 
-0.11877 
-0.15815 
-0.19165 
-0.22321 
-0.24947 
-0.2721 
-0.29053 
-0.30728 
-0.32248 
-0.33593 
-0.34517 
-0.35112 
-0.35643 
-0.36173 
-0.366 
-0.36839 
-0.37033 
-0.37149 
-0.37033 
-0.36787 
-0.36626 
-0.36335 
-0.36238 
-0.36328 
-0.36231 
-0.36108 
-0.36302 
-0.36386 
-0.35701 
-0.32564 
-0.25703 
-0.15246 
-0.022546 
0.11274 
0.24078 
0.35621 
0.45807 
0.54504 
0.61366 
0.66727 
0.70691 
0.72883 
0.73336 
0.72191 
0.69378 
0.652 
0.60137 
0.54569 
0.49014 
0.44235 
0.39877 
0.35563 
0.31373 
0.27454 
0.23684 
0.19784 
0.15671 
0.1174 
0.076655 
0.037789 
0.0015752 
-0.036449 
-0.070723 
-0.10267 
-0.13164 
-0.15764 
-0.18156 
-0.20329 
-0.22496 
-0.24403 
-0.26059 
-0.27436 
-0.28613 
-0.29758 
-0.30644 
-0.31387 
-0.31911 
-0.32532 
-0.33062 
-0.33573 
-0.34285 
-0.35261 
-0.36238 
-0.37292 
-0.38559 
-0.40014 
-0.4112 
-0.41379 
-0.3973 
-0.34821 
-0.26156 
-0.14354 
-0.01013 
0.12477 
0.25268 
0.36986 
0.47488 
0.5669 
0.64243 
0.69999 
0.73918 
0.76511 
0.77753 
0.7739 
0.7525 
0.71596 
0.66733 
0.61521 
0.56147 
0.5056 
0.44914 
0.39178 
0.33507 
0.27868 
0.225 
0.17288 
0.12315 
0.075943 
0.028412 
-0.015885 
-0.059989 
-0.10273 
-0.14309 
-0.17678 
-0.20536 
-0.23175 
-0.25613 
-0.2785 
-0.29732 
-0.314 
-0.33153 
-0.3488 
-0.36302 
-0.37499 
-0.38417 
-0.39406 
-0.40234 
-0.40797 
-0.41236 
-0.41877 
-0.42536 
-0.43189 
-0.43526 
-0.43733 
-0.4403 
-0.43991 
-0.43661 
-0.4275 
-0.39814 
-0.33851 
-0.23996 
-0.11761 
0.012245 
0.13809 
0.26135 
0.3773 
0.4807 
0.56554 
0.63273 
0.68654 
0.72579 
0.74939 
0.75521 
0.74273 
0.71189 
0.66255 
0.5993 
0.5292 
0.45626 
0.38622 
0.31961 
0.25934 
0.20256 
0.14708 
0.092757 
0.038371 
-0.015109 
-0.067037 
-0.11631 
-0.16385 
-0.20911 
-0.25276 
-0.29247 
-0.32532 
-0.35261 
-0.37537 
-0.39283 
-0.409 
-0.42161 
-0.42924 
-0.43312 
-0.4392 
-0.44573 
-0.45246 
-0.45951 
-0.46662 
-0.47218 
-0.47574 
-0.47988 
-0.48208 
-0.48201 
-0.47645 
-0.4694 
-0.46216 
-0.45627 
-0.45123 
-0.44703 
-0.44418 
-0.44088 
-0.42355 
-0.37984 
-0.30081 
-0.18803 
-0.057079 
0.076655 
0.20269 
0.31884 
0.42386 
0.51517 
0.59115 
0.64994 
0.69262 
0.71913 
0.73187 
0.72696 
0.7049 
0.67141 
0.63008 
0.5832 
0.53463 
0.48762 
0.44261 
0.39857 
0.35815 
0.31651 
0.27434 
0.23199 
0.18433 
0.13363 
0.081763 
0.028542 
-0.026103 
-0.083657 
-0.14296 
-0.20045 
-0.25748 
-0.30676 
-0.34757 
-0.38533 
-0.41482 
-0.43396 
-0.44308 
-0.44612 
-0.44528 
-0.44353 
-0.43998 
-0.43577 
-0.43092 
-0.42329 
-0.41579 
-0.41191 
-0.40887 
-0.40641 
-0.40499 
-0.39975 
-0.39348 
-0.39038 
-0.38785 
-0.38417 
-0.37744 
-0.35914 
-0.31142 
-0.22153 
-0.10041 
0.037143 
0.17101 
0.30138 
0.4225 
0.52894 
0.62148 
0.69372 
0.74733 
0.78587 
0.81018 
0.81943 
0.81497 
0.79233 
0.7534 
0.70426 
0.64832 
0.5918 
0.53567 
0.47986 
0.42405 
0.36591 
0.30952 
0.25378 
0.20121 
0.15206 
0.099418 
0.049365 
0.0033859 
-0.040394 
-0.082234 
-0.11942 
-0.1544 
-0.18758 
-0.21881 
-0.24966 
-0.27604 
-0.29913 
-0.32157 
-0.34123 
-0.35746 
-0.37156 
-0.38488 
-0.39452 
-0.40137 
-0.41126 
-0.41786 
-0.42297 
-0.42872 
-0.43422 
-0.43927 
-0.44522 
-0.45058 
-0.45175 
-0.45175 
-0.44948 
-0.43985 
-0.40907 
-0.34414 
-0.24229 
-0.11825 
0.011922 
0.13764 
0.25637 
0.36055 
0.44675 
0.51323 
0.56302 
0.59439 
0.60564 
0.59872 
0.57052 
0.52092 
0.45574 
0.38428 
0.31444 
0.25287 
0.19293 
0.13783 
0.086872 
0.037207 
-0.0076723 
-0.048672 
-0.091417 
-0.13462 
-0.1771 
-0.21467 
-0.24837 
-0.2796 
-0.30489 
-0.32338 
-0.33224 
-0.33483 
-0.33722 
-0.33722 
-0.33935 
-0.34104 
-0.33981 
-0.33922 
-0.33871 
-0.3378 
-0.33735 
-0.33741 
-0.33573 
-0.3356 
-0.33657 
-0.3367 
-0.33787 
-0.34039 
-0.34291 
-0.34369 
-0.34285 
-0.33651 
-0.32105 
-0.28885 
-0.22095 
-0.11709 
0.0063607 
0.13925 
0.27137 
0.39534 
0.50831 
0.60441 
0.68337 
0.747 
0.79305 
0.82396 
0.84071 
0.84109 
0.82292 
0.78684 
0.74054 
0.68925 
0.63442 
0.57744 
0.52034 
0.46356 
0.40859 
0.35001 
0.29362 
0.23664 
0.17961 
0.12748 
0.079565 
0.034944 
-0.0077369 
-0.049448 
-0.091353 
-0.12867 
-0.16488 
-0.20284 
-0.23698 
-0.26473 
-0.28982 
-0.30902 
-0.32532 
-0.34162 
-0.35694 
-0.37162 
-0.38598 
-0.39646 
-0.4048 
-0.41275 
-0.41857 
-0.42226 
-0.42821 
-0.43429 
-0.43998 
-0.44366 
-0.44573 
-0.44735 
-0.44599 
-0.44037 
-0.42265 
-0.37693 
-0.29467 
-0.17768 
-0.04324 
0.092692 
0.22319 
0.34716 
0.45671 
0.55002 
0.62633 
0.68389 
0.72702 
0.75735 
0.77196 
0.77371 
0.75631 
0.71519 
0.65951 
0.59755 
0.53237 
0.46841 
0.40323 
0.33623 
0.27118 
0.20961 
0.15322 
0.10026 
0.052016 
0.0025452 
-0.045697 
-0.091417 
-0.13358 
-0.17225 
-0.20814 
-0.23783 
-0.2657 
-0.29176 
-0.31575 
-0.33981 
-0.36153 
-0.38113 
-0.39639 
-0.40713 
-0.41579 
-0.42303 
-0.42782 
-0.4328 
-0.43881 
-0.44211 
-0.4456 
-0.45013 
-0.45401 
-0.45841 
-0.46125 
-0.46151 
-0.45977 
-0.45123 
-0.4275 
-0.3755 
-0.28484 
-0.16326 
-0.027784 
0.10647 
0.23011 
0.34218 
0.44119 
0.52506 
0.59115 
0.64036 
0.67516 
0.69643 
0.70206 
0.69068 
0.66339 
0.62019 
0.56748 
0.51025 
0.44811 
0.38764 
0.32588 
0.26671 
0.21058 
0.15587 
0.10388 
0.053892 
0.0059726 
-0.038972 
-0.079454 
-0.11884 
-0.15505 
-0.19094 
-0.22457 
-0.25283 
-0.28031 
-0.3056 
-0.32758 
-0.3475 
-0.36516 
-0.38022 
-0.39277 
-0.40363 
-0.41411 
-0.41967 
-0.42459 
-0.43125 
-0.43584 
-0.44159 
-0.44567 
-0.44502 
-0.44366 
-0.44282 
-0.44043 
-0.43855 
-0.4383 
-0.43726 
-0.43526 
-0.42795 
-0.40363 
-0.35125 
-0.26175 
-0.14218 
-0.009289 
0.12386 
0.24705 
0.36022 
0.46072 
0.54563 
0.61417 
0.66791 
0.70743 
0.73342 
0.74791 
0.74629 
0.72683 
0.68925 
0.63842 
0.58113 
0.52254 
0.46292 
0.40129 
0.34056 
0.28346 
0.22694 
0.17081 
0.11966 
0.071352 
0.024209 
-0.019118 
-0.061735 
-0.10409 
-0.14554 
-0.18318 
-0.21914 
-0.25024 
-0.27811 
-0.30482 
-0.32758 
-0.3488 
-0.368 
-0.38294 
-0.39697 
-0.40887 
-0.41883 
-0.42717 
-0.43267 
-0.43526 
-0.43771 
-0.43946 
-0.44049 
-0.44205 
-0.44308 
-0.44373 
-0.44541 
-0.44489 
-0.44224 
-0.43713 
-0.42316 
-0.38721 
-0.31627 
-0.21073 
-0.087149 
0.041669 
0.16137 
0.2724 
0.36973 
0.44934 
0.51426 
0.56341 
0.59794 
0.61825 
0.62426 
0.61657 
0.594 
0.55791 
0.51077 
0.45865 
0.40556 
0.35447 
0.30338 
0.25378 
0.208 
0.16079 
0.11636 
0.073939 
0.034944 
-0.0055382 
-0.046538 
-0.083334 
-0.11625 
-0.14858 
-0.17852 
-0.20569 
-0.23226 
-0.25684 
-0.28025 
-0.30217 
-0.32241 
-0.34116 
-0.35358 
-0.36393 
-0.3702 
-0.37602 
-0.38281 
-0.3885 
-0.39335 
-0.39962 
-0.40415 
-0.40544 
-0.4059 
-0.40719 
-0.40861 
-0.40855 
-0.40797 
-0.39762 
-0.37233 
-0.32131 
-0.23433 
-0.12136 
-0.00036481 
0.11869 
0.23095 
0.33261 
0.41875 
0.48949 
0.54479 
0.58908 
0.61961 
0.63461 
0.63454 
0.61864 
0.58844 
0.54834 
0.50107 
0.45516 
0.40795 
0.35667 
0.30629 
0.25533 
0.20599 
0.15859 
0.11332 
0.071352 
0.031322 
-0.0048269 
-0.038454 
-0.071887 
-0.10616 
-0.14115 
-0.17303 
-0.20019 
-0.22489 
-0.24785 
-0.26867 
-0.28529 
-0.30249 
-0.3195 
-0.33425 
-0.34744 
-0.36037 
-0.37182 
-0.37977 
-0.38417 
-0.38688 
-0.38979 
-0.39089 
-0.39471 
-0.39846 
-0.39904 
-0.39917 
-0.39814 
-0.3962 
-0.39477 
-0.38494 
-0.36218 
-0.30999 
-0.21991 
-0.10636 
0.016384 
0.13537 
0.24757 
0.34638 
0.43162 
0.50385 
0.56192 
0.60667 
0.64276 
0.67018 
0.68479 
0.6844 
0.66559 
0.6317 
0.58798 
0.53942 
0.48775 
0.43394 
0.38053 
0.32847 
0.27719 
0.22856 
0.18116 
0.1355 
0.090429 
0.047813 
0.0067487 
-0.030435 
-0.065744 
-0.10008 
-0.13319 
-0.16378 
-0.1923 
-0.21894 
-0.24268 
-0.26583 
-0.28574 
-0.30346 
-0.32008 
-0.33405 
-0.34479 
-0.35468 
-0.36244 
-0.37149 
-0.37977 
-0.38688 
-0.39477 
-0.40047 
-0.4048 
-0.4079 
-0.40764 
-0.40641 
-0.40182 
-0.39064 
-0.36664 
-0.31704 
-0.23433 
-0.13002 
-0.018924 
0.091916 
0.19551 
0.2909 
0.37277 
0.44436 
0.50327 
0.55041 
0.5843 
0.60661 
0.61404 
0.6081 
0.5874 
0.55216 
0.51006 
0.46382 
0.41571 
0.36727 
0.31586 
0.266 
0.2197 
0.17631 
0.13667 
0.096055 
0.053892 
0.011146 
-0.027849 
-0.063351 
-0.097819 
-0.12912 
-0.15744 
-0.18512 
-0.21228 
-0.23543 
-0.2558 
-0.27449 
-0.29247 
-0.31116 
-0.3259 
-0.33787 
-0.34673 
-0.35487 
-0.36251 
-0.37039 
-0.37647 
-0.38094 
-0.38456 
-0.38676 
-0.38824 
-0.38928 
-0.39018 
-0.39096 
-0.38947 
-0.38824 
-0.37718 
-0.34621 
-0.28367 
-0.189 
-0.078613 
0.035332 
0.14436 
0.24531 
0.33623 
0.41157 
0.46906 
0.5151 
0.54912 
0.56891 
0.57654 
0.57001 
0.55449 
0.5281 
0.49059 
0.44966 
0.41008 
0.37206 
0.33358 
0.29303 
0.24835 
0.20483 
0.16189 
0.12283 
0.084803 
0.046131 
0.0093354 
-0.025585 
-0.058889 
-0.088766 
-0.11677 
-0.14179 
-0.16326 
-0.1846 
-0.20627 
-0.22696 
-0.24371 
-0.25858 
-0.27145 
-0.27986 
-0.28885 
-0.29842 
-0.30553 
-0.31375 
-0.31963 
-0.32603 
-0.32888 
-0.33043 
-0.33457 
-0.33586 
-0.33496 
-0.33515 
-0.33062 
-0.30793 
-0.2547 
-0.16967 
-0.061735 
0.051693 
0.16305 
0.26697 
0.35958 
0.44035 
0.50889 
0.56451 
0.60861 
0.64218 
0.66371 
0.67076 
0.66403 
0.63907 
0.60202 
0.55791 
0.50689 
0.45315 
0.40032 
0.34541 
0.2929 
0.24414 
0.19564 
0.15051 
0.10634 
0.062945 
0.021558 
-0.020089 
-0.059019 
-0.093422 
-0.12886 
-0.16178 
-0.19049 
-0.21914 
-0.24636 
-0.27029 
-0.28956 
-0.30696 
-0.32357 
-0.33612 
-0.34731 
-0.35694 
-0.36393 
-0.36729 
-0.36981 
-0.37434 
-0.38119 
-0.38747 
-0.39193 
-0.39503 
-0.39749 
-0.39904 
-0.40208 
-0.40486 
-0.40079 
-0.38275 
-0.3411 
-0.26395 
-0.15841 
-0.039554 
0.081957 
0.19991 
0.30784 
0.40129 
0.48238 
0.54964 
0.60202 
0.64321 
0.67516 
0.69488 
0.69753 
0.68718 
0.65886 
0.61514 
0.56322 
0.50663 
0.44694 
0.38816 
0.3319 
0.27622 
0.22345 
0.17236 
0.12237 
0.074262 
0.029382 
-0.012199 
-0.052228 
-0.091029 
-0.12957 
-0.16456 
-0.19527 
-0.22437 
-0.24992 
-0.2765 
-0.30139 
-0.32086 
-0.33716 
-0.34957 
-0.3616 
-0.37143 
-0.37654 
-0.38262 
-0.38895 
-0.39516 
-0.4026 
-0.40958 
-0.41249 
-0.41262 
-0.41502 
-0.41618 
-0.41844 
-0.41754 
-0.40176 
-0.36166 
-0.28633 
-0.18105 
-0.060506 
0.062751 
0.18517 
0.2951 
0.38919 
0.47139 
0.53793 
0.58915 
0.6306 
0.66067 
0.67444 
0.67102 
0.64929 
0.61126 
0.56153 
0.5087 
0.45218 
0.39573 
0.33934 
0.2856 
0.23664 
0.18575 
0.13499 
0.086032 
0.040829 
-0.0026282 
-0.044921 
-0.085856 
-0.12181 
-0.15453 
-0.18454 
-0.21254 
-0.23776 
-0.26098 
-0.28283 
-0.3001 
-0.31594 
-0.33004 
-0.34395 
-0.35759 
-0.36878 
-0.37667 
-0.38288 
-0.38798 
-0.39089 
-0.39367 
-0.39646 
-0.39982 
-0.40325 
-0.40784 
-0.41049 
-0.41004 
-0.41036 
-0.40997 
-0.40318 
-0.38171 
-0.33256 
-0.24604 
-0.13332 
-0.01194 
0.1097 
0.22636 
0.33293 
0.42567 
0.50068 
0.56134 
0.60447 
0.63694 
0.65841 
0.66468 
0.65265 
0.62446 
0.5841 
0.53909 
0.48859 
0.43808 
0.38609 
0.33073 
0.27764 
0.2252 
0.17792 
0.13091 
0.083186 
0.039665 
-0.0012055 
-0.041235 
-0.079324 
-0.11515 
-0.1502 
-0.18163 
-0.20814 
-0.23472 
-0.25865 
-0.27908 
-0.29713 
-0.31336 
-0.32694 
-0.33877 
-0.34692 
-0.35345 
-0.3574 
-0.36166 
-0.36736 
-0.37195 
-0.3779 
-0.37984 
-0.38081 
-0.37977 
-0.37751 
-0.37415 
-0.3638 
-0.33696 
-0.28051 
-0.18887 
-0.071823 
0.052275 
0.17501 
0.29484 
0.40433 
0.49758 
0.57537 
0.64321 
0.6976 
0.7406 
0.76964 
0.77901 
0.76912 
0.73737 
0.68389 
0.61734 
0.54537 
0.47229 
0.40168 
0.33584 
0.27396 
0.21537 
0.16124 
0.10918 
0.058871 
0.012245 
-0.034768 
-0.079777 
-0.11851 
-0.15402 
-0.18784 
-0.22386 
-0.25664 
-0.28704 
-0.31323 
-0.33502 
-0.35462 
-0.37182 
-0.38423 
-0.39587 
-0.4081 
-0.41902 
-0.42666 
-0.43189 
-0.43577 
-0.43868 
-0.44211 
-0.44295 
-0.44418 
-0.44425 
-0.44418 
-0.44483 
-0.44489 
-0.43752 
-0.41915 
-0.38009 
-0.30579 
-0.19469 
-0.065227 
0.070964 
0.20457 
0.32931 
0.44028 
0.53483 
0.61262 
0.67574 
0.72715 
0.76543 
0.78742 
0.79208 
0.77462 
0.7329 
0.6725 
0.60098 
0.52351 
0.44449 
0.36934 
0.2984 
0.23444 
0.17799 
0.12587 
0.076202 
0.029512 
-0.018084 
-0.064645 
-0.10907 
-0.15007 
-0.18823 
-0.22612 
-0.26039 
-0.29085 
-0.31827 
-0.3444 
-0.36697 
-0.38579 
-0.40344 
-0.41812 
-0.43125 
-0.44056 
-0.44651 
-0.44948 
-0.45259 
-0.45395 
-0.45686 
-0.45938 
-0.45834 
-0.45763 
-0.45479 
-0.45265 
-0.45226 
-0.45136 
-0.44043 
-0.41288 
-0.35358 
-0.25626 
-0.13216 
0.0011872 
0.13453 
0.26212 
0.3773 
0.47449 
0.55656 
0.62349 
0.67891 
0.71978 
0.74228 
0.74319 
0.7245 
0.6857 
0.63319 
0.57272 
0.50825 
0.44287 
0.37898 
0.31612 
0.25714 
0.20224 
0.1465 
0.097025 
0.050787 
0.0090767 
-0.029142 
-0.067231 
-0.10429 
-0.14044 
-0.17574 
-0.20892 
-0.23873 
-0.2635 
-0.28613 
-0.30773 
-0.32694 
-0.34543 
-0.36166 
-0.37803 
-0.39109 
-0.39865 
-0.40473 
-0.40984 
-0.41327 
-0.41502 
-0.41379 
-0.41146 
-0.41114 
-0.41262 
-0.41514 
-0.41308 
-0.39781 
-0.35649 
-0.28148 
-0.17374 
-0.04809 
0.084091 
0.21673 
0.33733 
0.44112 
0.52894 
0.60137 
0.65634 
0.69818 
0.72456 
0.73278 
0.72081 
0.68608 
0.63267 
0.56917 
0.50081 
0.43136 
0.36216 
0.29562 
0.23419 
0.17786 
0.1258 
0.075685 
0.027442 
-0.015044 
-0.056238 
-0.098013 
-0.13856 
-0.17691 
-0.21248 
-0.24403 
-0.271 
-0.29758 
-0.32112 
-0.3433 
-0.36412 
-0.38236 
-0.39464 
-0.40751 
-0.4187 
-0.42866 
-0.43558 
-0.44037 
-0.44593 
-0.45007 
-0.45446 
-0.4566 
-0.45692 
-0.45744 
-0.45291 
-0.43849 
-0.40228 
-0.32733 
-0.21603 
-0.084756 
0.052986 
0.1906 
0.31955 
0.43369 
0.53049 
0.61004 
0.67018 
0.71512 
0.74558 
0.758 
0.74849 
0.71661 
0.66513 
0.60072 
0.52745 
0.45044 
0.37684 
0.30765 
0.24402 
0.18258 
0.12425 
0.071869 
0.022786 
-0.024939 
-0.069042 
-0.11146 
-0.15259 
-0.19062 
-0.22793 
-0.26007 
-0.28652 
-0.31142 
-0.3367 
-0.35921 
-0.37686 
-0.39005 
-0.40014 
-0.40855 
-0.41618 
-0.42581 
-0.43513 
-0.44024 
-0.44399 
-0.45084 
-0.45724 
-0.46171 
-0.46526 
-0.46901 
-0.46927 
-0.46158 
-0.44114 
-0.40085 
-0.32526 
-0.21332 
-0.080553 
0.055767 
0.19066 
0.31761 
0.43181 
0.52752 
0.60538 
0.665 
0.71021 
0.7395 
0.75011 
0.74163 
0.71059 
0.66002 
0.59516 
0.52254 
0.44992 
0.38072 
0.31302 
0.24777 
0.18653 
0.13143 
0.081117 
0.034103 
-0.0096123 
-0.052034 
-0.093293 
-0.13196 
-0.1687 
-0.20601 
-0.24035 
-0.27203 
-0.30017 
-0.32655 
-0.35365 
-0.37777 
-0.39574 
-0.40861 
-0.41896 
-0.42646 
-0.43267 
-0.4359 
-0.43733 
-0.43972 
-0.4425 
-0.44502 
-0.44722 
-0.44864 
-0.44968 
-0.45045 
-0.44851 
-0.44224 
-0.43241 
-0.40984 
-0.35837 
-0.26537 
-0.14406 
-0.0064436 
0.13369 
0.26794 
0.38984 
0.49299 
0.57324 
0.6381 
0.68984 
0.72547 
0.74623 
0.75011 
0.73032 
0.68925 
0.63312 
0.56658 
0.49609 
0.42392 
0.3533 
0.28708 
0.22423 
0.167 
0.113 
0.063139 
0.019747 
-0.022223 
-0.065291 
-0.1083 
-0.14425 
-0.1782 
-0.21112 
-0.23892 
-0.26363 
-0.29034 
-0.31329 
-0.33101 
-0.34601 
-0.3574 
-0.368 
-0.37783 
-0.38928 
-0.40008 
-0.40823 
-0.4145 
-0.41999 
-0.4242 
-0.42737 
-0.42879 
-0.43008 
-0.42581 
-0.40764 
-0.36276 
-0.28012 
-0.17031 
-0.041364 
0.091011 
0.21666 
0.33158 
0.42922 
0.50967 
0.57492 
0.62672 
0.66313 
0.68421 
0.68466 
0.66177 
0.61767 
0.55623 
0.48814 
0.42062 
0.35182 
0.28598 
0.22461 
0.16687 
0.11242 
0.06301 
0.017548 
-0.025262 
-0.064451 
-0.10306 
-0.14134 
-0.17607 
-0.20879 
-0.23821 
-0.26421 
-0.28962 
-0.31045 
-0.32978 
-0.34653 
-0.36173 
-0.3755 
-0.38824 
-0.39859 
-0.40654 
-0.41417 
-0.42148 
-0.42879 
-0.43338 
-0.4359 
-0.43946 
-0.44062 
-0.43894 
-0.43261 
-0.41566 
-0.37376 
-0.29447 
-0.18596 
-0.058178 
0.073292 
0.20224 
0.32213 
0.42748 
0.51788 
0.59445 
0.65524 
0.70238 
0.73439 
0.75185 
0.74636 
0.7148 
0.66015 
0.5907 
0.51387 
0.43828 
0.36598 
0.29678 
0.22979 
0.1681 
0.11099 
0.063139 
0.019488 
-0.026426 
-0.071047 
-0.11062 
-0.1482 
-0.18318 
-0.2161 
-0.24824 
-0.27831 
-0.30605 
-0.32849 
-0.34763 
-0.36412 
-0.38055 
-0.39329 
-0.40447 
-0.41379 
-0.42122 
-0.42698 
-0.43241 
-0.4372 
-0.44062 
-0.44134 
-0.43267 
-0.41004 
-0.35662 
-0.26893 
-0.1535 
-0.023193 
0.10692 
0.2316 
0.34367 
0.44086 
0.52131 
0.58766 
0.64185 
0.68259 
0.70749 
0.71156 
0.6921 
0.64573 
0.57984 
0.50767 
0.43427 
0.361 
0.2898 
0.2241 
0.16467 
0.10996 
0.056996 
0.009594 
-0.034251 
-0.07635 
-0.11748 
-0.15615 
-0.19101 
-0.22373 
-0.25005 
-0.27462 
-0.29758 
-0.31775 
-0.33631 
-0.35494 
-0.37098 
-0.38462 
-0.39549 
-0.40751 
-0.41948 
-0.42827 
-0.43364 
-0.43157 
-0.41385 
-0.36651 
-0.28076 
-0.16617 
-0.036837 
0.092175 
0.21233 
0.3222 
0.41694 
0.49687 
0.55959 
0.60719 
0.63726 
0.64696 
0.6317 
0.58954 
0.52733 
0.45457 
0.37827 
0.30752 
0.24272 
0.18484 
0.13285 
0.081505 
0.032939 
-0.009871 
-0.049642 
-0.089348 
-0.12886 
-0.16928 
-0.20737 
-0.24209 
-0.27417 
-0.30204 
-0.32687 
-0.34841 
-0.36794 
-0.38378 
-0.39607 
-0.40648 
-0.41728 
-0.42672 
-0.43442 
-0.44134 
-0.4478 
-0.45272 
-0.45369 
-0.44302 
-0.4048 
-0.32972 
-0.22166 
-0.098207 
0.030676 
0.15878 
0.27596 
0.3751 
0.45748 
0.52286 
0.57414 
0.61359 
0.63332 
0.62872 
0.59749 
0.54504 
0.48063 
0.41138 
0.34179 
0.27687 
0.21556 
0.1582 
0.102 
0.050658 
0.005714 
-0.033863 
-0.069689 
-0.10674 
-0.14529 
-0.18202 
-0.21655 
-0.24888 
-0.27915 
-0.30417 
-0.32571 
-0.34466 
-0.36147 
-0.37512 
-0.38456 
-0.39464 
-0.40234 
-0.40855 
-0.41353 
-0.41935 
-0.42187 
-0.41734 
-0.39238 
-0.33237 
-0.23731 
-0.11787 
0.012504 
0.14216 
0.26193 
0.3665 
0.45613 
0.53049 
0.58921 
0.62847 
0.65175 
0.6542 
0.62782 
0.57731 
0.51019 
0.43679 
0.36352 
0.29562 
0.23173 
0.17107 
0.11455 
0.060423 
0.010758 
-0.033216 
-0.075186 
-0.11133 
-0.14632 
-0.17975 
-0.20821 
-0.23466 
-0.25975 
-0.28458 
-0.30702 
-0.33069 
-0.35242 
-0.37305 
-0.39135 
-0.41068 
-0.43034 
-0.44838 
-0.46255 
-0.47018 
-0.45964 
-0.42142 
-0.34601 
-0.243 
-0.12136 
0.0094647 
0.13389 
0.24466 
0.34153 
0.42276 
0.48516 
0.53127 
0.56238 
0.57305 
0.56373 
0.53153 
0.48063 
0.41636 
0.34645 
0.27402 
0.20276 
0.13654 
0.074973 
0.021622 
-0.025715 
-0.069301 
-0.11043 
-0.14839 
-0.18583 
-0.22062 
-0.24966 
-0.27656 
-0.30139 
-0.32073 
-0.3358 
-0.34621 
-0.35313 
-0.35862 
-0.36483 
-0.37143 
-0.37537 
-0.3768 
-0.37757 
-0.37524 
-0.37111 
-0.36503 
-0.34511 
-0.29842 
-0.21248 
-0.094198 
0.043933 
0.1884 
0.3244 
0.44196 
0.54479 
0.63319 
0.70555 
0.75767 
0.78516 
0.78205 
0.74849 
0.68466 
0.59878 
0.50185 
0.4031 
0.31114 
0.22785 
0.15574 
0.093533 
0.041346 
-0.0049562 
-0.043951 
-0.078936 
-0.11302 
-0.14638 
-0.17937 
-0.21041 
-0.24054 
-0.27165 
-0.30482 
-0.33793 
-0.3682 
-0.39814 
-0.42944 
-0.46229 
-0.49145 
-0.51629 
-0.53491 
-0.55004 
-0.56336 
-0.57507 
-0.58121 
-0.58393 
-0.58445 
-0.5783 
-0.5536 
-0.49999 
-0.40034 
-0.26861 
-0.12298 
0.023433 
0.16176 
0.28443 
0.38441 
0.46421 
0.5226 
0.55798 
0.57608 
0.57544 
0.55824 
0.52435 
0.47824 
0.42651 
0.38001 
0.33617 
0.29581 
0.25675 
0.21685 
0.17573 
0.13214 
0.08739 
0.041087 
-0.0062496 
-0.056626 
-0.10532 
-0.15117 
-0.19573 
-0.23201 
-0.26162 
-0.28639 
-0.30534 
-0.31853 
-0.32758 
-0.33289 
-0.33774 
-0.34614 
-0.35507 
-0.36108 
-0.36736 
-0.37175 
-0.37499 
-0.37783 
-0.3755 
-0.35526 
-0.29958 
-0.2029 
-0.077708 
0.061587 
0.20166 
0.33196 
0.44487 
0.53935 
0.61967 
0.68298 
0.72941 
0.7589 
0.7664 
0.74972 
0.70781 
0.65039 
0.58333 
0.51064 
0.44158 
0.37684 
0.3134 
0.25585 
0.20024 
0.14753 
0.097995 
0.051887 
0.0063607 
-0.038713 
-0.082299 
-0.12071 
-0.15777 
-0.19443 
-0.22871 
-0.25942 
-0.28536 
-0.3087 
-0.32985 
-0.35216 
-0.37259 
-0.39225 
-0.4123 
-0.43034 
-0.44282 
-0.45304 
-0.45647 
-0.44929 
-0.42161 
-0.35979 
-0.25981 
-0.13455 
0.0033213 
0.14126 
0.26639 
0.3773 
0.47203 
0.54892 
0.60635 
0.64709 
0.66196 
0.64948 
0.60616 
0.53586 
0.44947 
0.36016 
0.27331 
0.19125 
0.11862 
0.052857 
-0.009483 
-0.062963 
-0.11101 
-0.15486 
-0.19553 
-0.23265 
-0.26861 
-0.30204 
-0.33192 
-0.35546 
-0.37473 
-0.38824 
-0.39924 
-0.41094 
-0.42491 
-0.43894 
-0.45388 
-0.46753 
-0.4824 
-0.49708 
-0.50891 
-0.51952 
-0.52566 
-0.52017 
-0.49068 
-0.4295 
-0.32855 
-0.19877 
-0.057079 
0.085126 
0.21698 
0.333 
0.43123 
0.51064 
0.57014 
0.60991 
0.63325 
0.63636 
0.61579 
0.57621 
0.52435 
0.46641 
0.40646 
0.34858 
0.29381 
0.23994 
0.18775 
0.14035 
0.095408 
0.049882 
0.0052613 
-0.037484 
-0.078548 
-0.11838 
-0.15738 
-0.19385 
-0.22813 
-0.26072 
-0.28872 
-0.31562 
-0.34349 
-0.36852 
-0.39122 
-0.41146 
-0.42866 
-0.44496 
-0.46132 
-0.47412 
-0.48518 
-0.49281 
-0.49766 
-0.48964 
-0.45957 
-0.39464 
-0.29066 
-0.16145 
-0.021447 
0.11746 
0.24544 
0.35447 
0.44274 
0.50812 
0.55397 
0.57867 
0.5865 
0.57188 
0.5367 
0.48335 
0.41855 
0.35039 
0.28514 
0.22235 
0.1646 
0.11009 
0.062622 
0.019294 
-0.023581 
-0.068137 
-0.11205 
-0.15221 
-0.19185 
-0.23084 
-0.26531 
-0.29648 
-0.3239 
-0.34498 
-0.3647 
-0.38152 
-0.396 
-0.40997 
-0.42239 
-0.43325 
-0.44121 
-0.45317 
-0.46539 
-0.47309 
-0.48143 
-0.48828 
-0.49094 
-0.48764 
-0.48046 
-0.45892 
-0.40887 
-0.31497 
-0.18531 
-0.034509 
0.12309 
0.27176 
0.40426 
0.51685 
0.60648 
0.67186 
0.71991 
0.75146 
0.75709 
0.73801 
0.69863 
0.64172 
0.57647 
0.51187 
0.44927 
0.39107 
0.33636 
0.28592 
0.23638 
0.18614 
0.13557 
0.087131 
0.040699 
-0.00030014 
-0.03923 
-0.073052 
-0.10202 
-0.12957 
-0.15447 
-0.17639 
-0.19573 
-0.21558 
-0.23731 
-0.25574 
-0.27081 
-0.28329 
-0.29616 
-0.3078 
-0.31911 
-0.32907 
-0.33903 
-0.34524 
-0.34686 
-0.33638 
-0.30159 
-0.23019 
-0.12401 
0.0039033 
0.13809 
0.26943 
0.38732 
0.48704 
0.57046 
0.6383 
0.68751 
0.72055 
0.72999 
0.7148 
0.68072 
0.62821 
0.56567 
0.49829 
0.42942 
0.36507 
0.30338 
0.24731 
0.19454 
0.14566 
0.097866 
0.049882 
0.0044853 
-0.038713 
-0.078678 
-0.11573 
-0.15356 
-0.1848 
-0.21668 
-0.24649 
-0.27598 
-0.30262 
-0.32648 
-0.34259 
-0.35442 
-0.36729 
-0.38048 
-0.39322 
-0.40512 
-0.41236 
-0.41708 
-0.41211 
-0.39135 
-0.33392 
-0.23957 
-0.11741 
0.017031 
0.15374 
0.28379 
0.40232 
0.50702 
0.59717 
0.67069 
0.72579 
0.75935 
0.76349 
0.73232 
0.67425 
0.59587 
0.50935 
0.42276 
0.33849 
0.26128 
0.18717 
0.11727 
0.054732 
-0.0053442 
-0.064257 
-0.12065 
-0.17374 
-0.22412 
-0.27068 
-0.31045 
-0.34524 
-0.37427 
-0.39807 
-0.41805 
-0.43235 
-0.44121 
-0.45097 
-0.45795 
-0.46727 
-0.47373 
-0.48175 
-0.49087 
-0.50018 
-0.50626 
-0.51131 
-0.51241 
-0.50277 
-0.47341 
-0.41185 
-0.31161 
-0.18331 
-0.039489 
0.10563 
0.24272 
0.36701 
0.47352 
0.56529 
0.63965 
0.69624 
0.73484 
0.75127 
0.73808 
0.69443 
0.63066 
0.55578 
0.47553 
0.39366 
0.31366 
0.23917 
0.1721 
0.11449 
0.058936 
0.0055846 
-0.042658 
-0.08689 
-0.12996 
-0.17199 
-0.20976 
-0.2441 
-0.27734 
-0.30935 
-0.3391 
-0.36651 
-0.38908 
-0.40965 
-0.42711 
-0.44347 
-0.45388 
-0.46559 
-0.47328 
-0.48104 
-0.48731 
-0.49546 
-0.50258 
-0.50523 
-0.49333 
-0.45925 
-0.38831 
-0.27928 
-0.14761 
-0.0065083 
0.13246 
0.26025 
0.37135 
0.46615 
0.54479 
0.60945 
0.66009 
0.69093 
0.69417 
0.67231 
0.6251 
0.55966 
0.48678 
0.40995 
0.33649 
0.26807 
0.20774 
0.15148 
0.099547 
0.049171 
0.0015106 
-0.038842 
-0.079324 
-0.11987 
-0.15867 
-0.19611 
-0.23045 
-0.26324 
-0.29499 
-0.32099 
-0.3442 
-0.36373 
-0.38068 
-0.3949 
-0.40687 
-0.41909 
-0.43073 
-0.44088 
-0.44916 
-0.45647 
-0.46326 
-0.46643 
-0.45944 
-0.43455 
-0.3799 
-0.28846 
-0.16954 
-0.037743 
0.096702 
0.22461 
0.33597 
0.42903 
0.50456 
0.56535 
0.60861 
0.63196 
0.63513 
0.61521 
0.57479 
0.51691 
0.45024 
0.38279 
0.31703 
0.25585 
0.20386 
0.1549 
0.10879 
0.063204 
0.016902 
-0.026749 
-0.067555 
-0.1037 
-0.13934 
-0.17452 
-0.20517 
-0.2353 
-0.26169 
-0.2871 
-0.3109 
-0.33386 
-0.353 
-0.36626 
-0.37887 
-0.39309 
-0.40551 
-0.41372 
-0.42116 
-0.42491 
-0.42685 
-0.42484 
-0.40603 
-0.36044 
-0.27882 
-0.1696 
-0.046602 
0.074456 
0.18588 
0.28404 
0.36747 
0.43802 
0.49357 
0.53218 
0.55455 
0.55746 
0.54168 
0.50818 
0.46389 
0.41416 
0.35912 
0.30086 
0.23923 
0.17223 
0.1042 
0.034685 
-0.035803 
-0.10351 
-0.16624 
-0.22586 
-0.27941 
-0.32784 
-0.37091 
-0.40926 
-0.44056 
-0.4694 
-0.49242 
-0.50368 
-0.50898 
-0.51338 
-0.51182 
-0.50646 
-0.49928 
-0.48835 
-0.47664 
-0.46416 
-0.45201 
-0.43791 
-0.41217 
-0.3638 
-0.28167 
-0.16844 
-0.037549 
0.098771 
0.23037 
0.348 
0.44837 
0.52946 
0.58915 
0.6326 
0.66086 
0.67509 
0.67024 
0.65006 
0.61366 
0.56516 
0.51271 
0.45968 
0.41125 
0.36326 
0.31302 
0.26296 
0.21226 
0.16215 
0.11177 
0.061975 
0.013797 
-0.034315 
-0.076091 
-0.11496 
-0.15343 
-0.18745 
-0.21758 
-0.24403 
-0.26757 
-0.28574 
-0.3034 
-0.31957 
-0.33489 
-0.34724 
-0.35979 
-0.37001 
-0.38048 
-0.38941 
-0.39788 
-0.40402 
-0.40958 
-0.40674 
-0.39051 
-0.34983 
-0.27003 
-0.15861 
-0.030047 
0.10504 
0.23328 
0.35266 
0.45852 
0.54821 
0.62181 
0.67852 
0.71777 
0.73646 
0.72773 
0.69035 
0.62691 
0.54382 
0.4536 
0.37063 
0.29497 
0.22979 
0.17198 
0.11959 
0.071481 
0.021752 
-0.025133 
-0.068395 
-0.11308 
-0.15815 
-0.20459 
-0.24694 
-0.28969 
-0.3325 
-0.37686 
-0.41683 
-0.44948 
-0.47438 
-0.49585 
-0.51047 
-0.51551 
-0.51396 
-0.50756 
-0.49688 
-0.48479 
-0.4749 
-0.46727 
-0.45731 
-0.44709 
-0.43739 
-0.42782 
-0.40835 
-0.3682 
-0.29422 
-0.18932 
-0.067813 
0.053439 
0.16842 
0.27447 
0.36695 
0.43976 
0.49486 
0.53334 
0.55765 
0.56399 
0.55552 
0.5336 
0.49816 
0.45289 
0.40704 
0.36572 
0.32867 
0.2929 
0.26005 
0.23082 
0.20036 
0.17049 
0.14055 
0.10789 
0.072193 
0.032745 
-0.0093536 
-0.052164 
-0.091288 
-0.12957 
-0.16676 
-0.19883 
-0.22825 
-0.25044 
-0.26906 
-0.28581 
-0.30055 
-0.31743 
-0.33418 
-0.34737 
-0.35591 
-0.36516 
-0.37104 
-0.37537 
-0.37932 
-0.38094 
-0.37919 
-0.36651 
-0.32797 
-0.24985 
-0.14011 
-0.015885 
0.10983 
0.23082 
0.34121 
0.4355 
0.51187 
0.57259 
0.61708 
0.64327 
0.652 
0.64211 
0.61101 
0.56089 
0.50185 
0.43931 
0.37652 
0.31664 
0.25469 
0.19739 
0.1454 
0.097736 
0.056349 
0.013733 
-0.027719 
-0.066326 
-0.10092 
-0.13474 
-0.16947 
-0.20316 
-0.23181 
-0.25742 
-0.27954 
-0.2979 
-0.31245 
-0.325 
-0.33547 
-0.34647 
-0.35533 
-0.36309 
-0.36968 
-0.37835 
-0.38844 
-0.39186 
-0.39122 
-0.38462 
-0.36768 
-0.32545 
-0.24513 
-0.13597 
-0.01388 
0.11048 
0.22966 
0.33416 
0.42386 
0.49797 
0.55798 
0.6024 
0.62743 
0.63513 
0.62362 
0.59283 
0.54621 
0.49053 
0.43103 
0.37038 
0.30991 
0.25546 
0.20528 
0.15762 
0.1119 
0.067795 
0.02602 
-0.014204 
-0.05391 
-0.094715 
-0.13203 
-0.16637 
-0.19767 
-0.22599 
-0.25309 
-0.27617 
-0.29564 
-0.31297 
-0.32752 
-0.3411 
-0.35358 
-0.36354 
-0.37376 
-0.38061 
-0.38262 
-0.38423 
-0.38191 
-0.36457 
-0.32021 
-0.24093 
-0.13229 
-0.008513 
0.11843 
0.24253 
0.35667 
0.45845 
0.54472 
0.61359 
0.66617 
0.70186 
0.71797 
0.71234 
0.67645 
0.6167 
0.54213 
0.46583 
0.39088 
0.32091 
0.26012 
0.2025 
0.14824 
0.097413 
0.046455 
-0.0039215 
-0.04906 
-0.090253 
-0.12912 
-0.16617 
-0.20122 
-0.23621 
-0.27126 
-0.30204 
-0.32791 
-0.35041 
-0.37098 
-0.38656 
-0.39943 
-0.40997 
-0.41935 
-0.42497 
-0.43144 
-0.43784 
-0.44496 
-0.4478 
-0.44476 
-0.43021 
-0.39064 
-0.31025 
-0.19618 
-0.064645 
0.071934 
0.20496 
0.32912 
0.43938 
0.52991 
0.60234 
0.66067 
0.70678 
0.73103 
0.72915 
0.69617 
0.63933 
0.56574 
0.48594 
0.40853 
0.33591 
0.26658 
0.20159 
0.14197 
0.08836 
0.039988 
-0.0063143 
-0.050482 
-0.093422 
-0.13196 
-0.1696 
-0.20659 
-0.24287 
-0.27553 
-0.30463 
-0.33179 
-0.35662 
-0.37984 
-0.39917 
-0.41126 
-0.42349 
-0.43299 
-0.44017 
-0.44819 
-0.45543 
-0.46054 
-0.46293 
-0.46746 
-0.47296 
-0.47483 
-0.47173 
-0.46183 
-0.43448 
-0.37162 
-0.26971 
-0.14179 
-0.0026282 
0.13647 
0.26898 
0.38635 
0.4873 
0.56994 
0.6326 
0.68046 
0.71389 
0.72553 
0.71072 
0.66869 
0.60409 
0.52532 
0.44571 
0.36824 
0.29762 
0.23367 
0.17333 
0.11546 
0.063139 
0.014509 
-0.0305 
-0.072017 
-0.11114 
-0.14994 
-0.18738 
-0.22166 
-0.2547 
-0.28329 
-0.30948 
-0.33334 
-0.35352 
-0.37201 
-0.38572 
-0.3951 
-0.40389 
-0.41411 
-0.42381 
-0.43099 
-0.43817 
-0.44509 
-0.44987 
-0.45246 
-0.45175 
-0.43616 
-0.39749 
-0.32241 
-0.21532 
-0.088119 
0.04348 
0.17107 
0.28676 
0.38337 
0.45871 
0.51568 
0.55908 
0.58824 
0.59833 
0.58527 
0.55365 
0.50547 
0.4461 
0.38195 
0.32 
0.26128 
0.20593 
0.15594 
0.11054 
0.067989 
0.028089 
-0.009289 
-0.043951 
-0.077255 
-0.10855 
-0.13875 
-0.16785 
-0.19605 
-0.22328 
-0.24927 
-0.27385 
-0.29486 
-0.31148 
-0.32681 
-0.34239 
-0.35727 
-0.37272 
-0.38281 
-0.39141 
-0.40066 
-0.40771 
-0.41191 
-0.41126 
-0.39969 
-0.36348 
-0.29279 
-0.1879 
-0.059213 
0.077948 
0.21401 
0.33817 
0.44869 
0.54336 
0.61877 
0.67593 
0.71881 
0.73879 
0.73504 
0.70258 
0.64399 
0.57246 
0.49493 
0.41842 
0.3447 
0.27751 
0.2164 
0.15839 
0.10485 
0.057384 
0.014444 
-0.026685 
-0.065809 
-0.10629 
-0.14677 
-0.18493 
-0.22121 
-0.25529 
-0.28283 
-0.30948 
-0.33276 
-0.35462 
-0.37233 
-0.38831 
-0.4015 
-0.41534 
-0.42685 
-0.43687 
-0.44334 
-0.45136 
-0.45795 
-0.46209 
-0.46035 
-0.43901 
-0.3832 
-0.28458 
-0.15751 
-0.016532 
0.12664 
0.26135 
0.38325 
0.48917 
0.57395 
0.64095 
0.69178 
0.72611 
0.73976 
0.72508 
0.68149 
0.61637 
0.54013 
0.45852 
0.38072 
0.30745 
0.23787 
0.17295 
0.11332 
0.06107 
0.0089474 
-0.038519 
-0.082687 
-0.12595 
-0.16714 
-0.20562 
-0.24229 
-0.27488 
-0.30728 
-0.33657 
-0.35746 
-0.37518 
-0.39186 
-0.407 
-0.41999 
-0.43151 
-0.44379 
-0.45343 
-0.46106 
-0.46824 
-0.47509 
-0.4802 
-0.47703 
-0.46209 
-0.41696 
-0.3294 
-0.20989 
-0.07234 
0.069347 
0.20101 
0.31812 
0.41532 
0.49506 
0.55888 
0.60396 
0.63066 
0.63661 
0.61695 
0.57615 
0.5173 
0.44688 
0.37464 
0.30642 
0.24059 
0.18032 
0.12516 
0.075814 
0.030546 
-0.012199 
-0.053004 
-0.092646 
-0.13132 
-0.16779 
-0.20232 
-0.23627 
-0.26764 
-0.2957 
-0.32235 
-0.3455 
-0.36632 
-0.38068 
-0.39051 
-0.40137 
-0.41088 
-0.41993 
-0.42633 
-0.43002 
-0.42769 
-0.41728 
-0.39064 
-0.32985 
-0.23291 
-0.11056 
0.023756 
0.15613 
0.279 
0.3857 
0.47818 
0.55268 
0.609 
0.64806 
0.66875 
0.66559 
0.63435 
0.57815 
0.50566 
0.43071 
0.35667 
0.28495 
0.21841 
0.15827 
0.10504 
0.057254 
0.0098527 
-0.035285 
-0.07732 
-0.11586 
-0.15143 
-0.18648 
-0.21946 
-0.24862 
-0.27488 
-0.30398 
-0.32771 
-0.34899 
-0.36593 
-0.38307 
-0.40014 
-0.41372 
-0.42543 
-0.43487 
-0.44127 
-0.44457 
-0.44366 
-0.42808 
-0.38656 
-0.30734 
-0.19618 
-0.062963 
0.075167 
0.20677 
0.32136 
0.41894 
0.50133 
0.56444 
0.6123 
0.64153 
0.64664 
0.62491 
0.57673 
0.51103 
0.43621 
0.36178 
0.28961 
0.22352 
0.16299 
0.10731 
0.056996 
0.009594 
-0.034574 
-0.076996 
-0.11728 
-0.15628 
-0.19405 
-0.23013 
-0.26434 
-0.29544 
-0.32092 
-0.34259 
-0.3636 
-0.38171 
-0.39626 
-0.41036 
-0.42426 
-0.43661 
-0.44463 
-0.45414 
-0.46293 
-0.4705 
-0.47412 
-0.47263 
-0.45543 
-0.40978 
-0.32254 
-0.20278 
-0.067749 
0.068959 
0.19829 
0.31541 
0.41648 
0.499 
0.56729 
0.6167 
0.64793 
0.65698 
0.64017 
0.59594 
0.52991 
0.45393 
0.37678 
0.30474 
0.23871 
0.17747 
0.12205 
0.071869 
0.024985 
-0.020735 
-0.065356 
-0.10616 
-0.14735 
-0.18415 
-0.21836 
-0.24908 
-0.27967 
-0.30553 
-0.32707 
-0.34724 
-0.36483 
-0.37815 
-0.38986 
-0.40279 
-0.41301 
-0.42297 
-0.43299 
-0.44263 
-0.45071 
-0.45524 
-0.45569 
-0.45188 
-0.43422 
-0.39413 
-0.31743 
-0.20685 
-0.0801 
0.048977 
0.17133 
0.27738 
0.36966 
0.44481 
0.50359 
0.54685 
0.5724 
0.57563 
0.55927 
0.52325 
0.47262 
0.41215 
0.34613 
0.28223 
0.22151 
0.16881 
0.12128 
0.07853 
0.038759 
-0.0015288 
-0.04227 
-0.080618 
-0.11541 
-0.14813 
-0.17671 
-0.20349 
-0.22838 
-0.25276 
-0.27346 
-0.29105 
-0.30864 
-0.3237 
-0.3367 
-0.3488 
-0.36128 
-0.37369 
-0.3832 
-0.39012 
-0.39464 
-0.39736 
-0.39342 
-0.37169 
-0.32092 
-0.23239 
-0.11625 
0.0088827 
0.13376 
0.251 
0.35841 
0.44753 
0.52144 
0.57854 
0.61922 
0.64088 
0.64153 
0.61838 
0.57091 
0.50683 
0.43679 
0.36708 
0.29937 
0.23768 
0.17974 
0.12651 
0.078077 
0.032422 
-0.0086423 
-0.047896 
-0.085726 
-0.12026 
-0.1533 
-0.18434 
-0.21513 
-0.24235 
-0.26628 
-0.28814 
-0.30728 
-0.32467 
-0.34395 
-0.36102 
-0.3757 
-0.3865 
-0.39355 
-0.39956 
-0.40519 
-0.41081 
-0.40958 
-0.39348 
-0.34776 
-0.26382 
-0.1482 
-0.01886 
0.11267 
0.23755 
0.35298 
0.4485 
0.52506 
0.58643 
0.6326 
0.66022 
0.66494 
0.64205 
0.59432 
0.52797 
0.45276 
0.37704 
0.30416 
0.23664 
0.17521 
0.12056 
0.069994 
0.02395 
-0.018924 
-0.059407 
-0.097108 
-0.13365 
-0.16734 
-0.19974 
-0.2291 
-0.25845 
-0.28594 
-0.30767 
-0.32765 
-0.3477 
-0.36645 
-0.3832 
-0.39872 
-0.41146 
-0.41948 
-0.42678 
-0.43273 
-0.43467 
-0.43558 
-0.43248 
-0.41657 
-0.37499 
-0.29499 
-0.18557 
-0.061605 
0.062945 
0.18349 
0.2909 
0.38189 
0.45735 
0.5184 
0.56444 
0.58882 
0.5907 
0.57175 
0.5334 
0.47831 
0.41532 
0.35214 
0.28954 
0.22901 
0.17566 
0.12768 
0.082604 
0.041281 
0.00086388 
-0.037549 
-0.074539 
-0.10875 
-0.14444 
-0.17911 
-0.21015 
-0.2375 
-0.2613 
-0.28452 
-0.30495 
-0.32267 
-0.33722 
-0.35099 
-0.36309 
-0.37654 
-0.39038 
-0.40176 
-0.40758 
-0.41017 
-0.41094 
-0.40124 
-0.36891 
-0.30269 
-0.2029 
-0.084562 
0.041217 
0.16525 
0.28366 
0.38764 
0.4774 
0.55177 
0.61366 
0.65776 
0.68039 
0.67671 
0.64282 
0.58449 
0.51323 
0.43944 
0.36585 
0.2953 
0.22966 
0.17204 
0.12134 
0.074585 
0.031516 
-0.0097417 
-0.048413 
-0.084045 
-0.11948 
-0.1555 
-0.19159 
-0.22534 
-0.2558 
-0.28193 
-0.3067 
-0.32868 
-0.34757 
-0.36089 
-0.37182 
-0.38139 
-0.39076 
-0.40234 
-0.40913 
-0.41573 
-0.42491 
-0.43215 
-0.43752 
-0.43959 
-0.43286 
-0.41191 
-0.36496 
-0.28186 
-0.16902 
-0.043498 
0.084997 
0.21123 
0.32821 
0.42793 
0.51426 
0.58701 
0.64774 
0.68757 
0.70464 
0.69676 
0.65925 
0.59891 
0.52771 
0.45328 
0.37898 
0.30946 
0.24376 
0.18355 
0.12819 
0.079047 
0.032486 
-0.011552 
-0.051905 
-0.089218 
-0.12724 
-0.16113 
-0.19139 
-0.22127 
-0.25108 
-0.2785 
-0.30101 
-0.31769 
-0.33412 
-0.34795 
-0.36069 
-0.37402 
-0.38436 
-0.396 
-0.40538 
-0.41256 
-0.41864 
-0.4231 
-0.4264 
-0.42989 
-0.42892 
-0.4156 
-0.37486 
-0.29583 
-0.18596 
-0.064063 
0.060617 
0.1818 
0.28935 
0.38008 
0.45451 
0.51556 
0.56192 
0.5929 
0.60693 
0.59943 
0.56871 
0.51989 
0.46014 
0.39702 
0.33274 
0.26936 
0.21188 
0.15969 
0.11048 
0.067278 
0.027636 
-0.0074136 
-0.040394 
-0.074862 
-0.10946 
-0.14121 
-0.17348 
-0.20394 
-0.22935 
-0.25212 
-0.27132 
-0.28904 
-0.30366 
-0.31627 
-0.32804 
-0.34071 
-0.35196 
-0.36147 
-0.37039 
-0.37725 
-0.38262 
-0.38346 
-0.37731 
-0.3585 
-0.31064 
-0.2267 
-0.11677 
0.0044206 
0.12561 
0.24091 
0.34548 
0.43621 
0.50935 
0.56942 
0.61469 
0.64651 
0.65485 
0.63978 
0.60072 
0.54356 
0.47915 
0.41034 
0.34483 
0.2876 
0.23276 
0.18187 
0.13499 
0.08642 
0.040441 
-0.0050209 
-0.045309 
-0.083722 
-0.12013 
-0.15279 
-0.18506 
-0.2159 
-0.24293 
-0.26576 
-0.286 
-0.30424 
-0.32202 
-0.33832 
-0.35352 
-0.3671 
-0.3799 
-0.39329 
-0.40532 
-0.41191 
-0.41366 
-0.4112 
-0.40137 
-0.37305 
-0.30741 
-0.2073 
-0.088184 
0.037272 
0.16137 
0.28055 
0.38648 
0.47559 
0.54854 
0.60874 
0.65588 
0.6857 
0.69145 
0.6685 
0.62122 
0.55746 
0.48775 
0.41513 
0.34483 
0.27881 
0.21731 
0.16085 
0.10964 
0.061522 
0.013668 
-0.031147 
-0.07247 
-0.11463 
-0.15447 
-0.19165 
-0.22328 
-0.25257 
-0.28206 
-0.30618 
-0.32694 
-0.34576 
-0.36186 
-0.37473 
-0.38514 
-0.39193 
-0.40008 
-0.40952 
-0.41631 
-0.42142 
-0.42426 
-0.42497 
-0.42271 
-0.4112 
-0.38339 
-0.32429 
-0.22767 
-0.10648 
0.025826 
0.1551 
0.27337 
0.37723 
0.46499 
0.54058 
0.59975 
0.64198 
0.66403 
0.66093 
0.63345 
0.58255 
0.51808 
0.4485 
0.38079 
0.31424 
0.2519 
0.19493 
0.14262 
0.096314 
0.052663 
0.01037 
-0.026943 
-0.064774 
-0.10151 
-0.13656 
-0.17102 
-0.20148 
-0.22929 
-0.25645 
-0.28012 
-0.30101 
-0.31866 
-0.33567 
-0.35074 
-0.36205 
-0.37027 
-0.37997 
-0.38928 
-0.39794 
-0.40803 
-0.41314 
-0.41282 
-0.40415 
-0.37227 
-0.30062 
-0.19443 
-0.066455 
0.067019 
0.19545 
0.31282 
0.41817 
0.51103 
0.59064 
0.65407 
0.69773 
0.72055 
0.71661 
0.68285 
0.62433 
0.54957 
0.46887 
0.39075 
0.31703 
0.2468 
0.18329 
0.12509 
0.073939 
0.027442 
-0.015109 
-0.058825 
-0.098725 
-0.13552 
-0.17161 
-0.20439 
-0.23653 
-0.26609 
-0.29454 
-0.31924 
-0.34091 
-0.36244 
-0.37854 
-0.394 
-0.40629 
-0.41702 
-0.42704 
-0.43564 
-0.44192 
-0.448 
-0.45395 
-0.45504 
-0.45259 
-0.44774 
-0.43409 
-0.40021 
-0.327 
-0.21862 
-0.088054 
0.048524 
0.18116 
0.30487 
0.41474 
0.50715 
0.58081 
0.64036 
0.68647 
0.71156 
0.71111 
0.68343 
0.63041 
0.56218 
0.48613 
0.4106 
0.34018 
0.27531 
0.21433 
0.15626 
0.10285 
0.052728 
0.004938 
-0.038778 
-0.079842 
-0.11547 
-0.15014 
-0.18402 
-0.21442 
-0.24513 
-0.27352 
-0.29932 
-0.3184 
-0.3356 
-0.35261 
-0.36768 
-0.38022 
-0.39064 
-0.39723 
-0.40402 
-0.41114 
-0.41586 
-0.41961 
-0.42394 
-0.42543 
-0.41663 
-0.38352 
-0.31407 
-0.2106 
-0.08592 
0.050205 
0.18219 
0.30299 
0.40969 
0.497 
0.56904 
0.62433 
0.66022 
0.67619 
0.66927 
0.63791 
0.58339 
0.51614 
0.44539 
0.37361 
0.30655 
0.2422 
0.18575 
0.13233 
0.083703 
0.035979 
-0.012005 
-0.055139 
-0.093487 
-0.13158 
-0.16792 
-0.20174 
-0.23298 
-0.26078 
-0.28969 
-0.3175 
-0.338 
-0.35578 
-0.37078 
-0.38249 
-0.39051 
-0.39697 
-0.40441 
-0.41204 
-0.41941 
-0.42601 
-0.43241 
-0.43733 
-0.43991 
-0.43636 
-0.42394 
-0.39374 
-0.32739 
-0.2203 
-0.091223 
0.048783 
0.18678 
0.31399 
0.42761 
0.52577 
0.60894 
0.6771 
0.72644 
0.75437 
0.75948 
0.73814 
0.68906 
0.61948 
0.54181 
0.46149 
0.3835 
0.31017 
0.24195 
0.17986 
0.12244 
0.070835 
0.022075 
-0.024292 
-0.067619 
-0.10952 
-0.14981 
-0.18596 
-0.21914 
-0.25147 
-0.27908 
-0.30502 
-0.33037 
-0.35158 
-0.36949 
-0.3843 
-0.39717 
-0.40861 
-0.42071 
-0.42782 
-0.43532 
-0.44146 
-0.44709 
-0.45336 
-0.45537 
-0.45666 
-0.45175 
-0.44082 
-0.41385 
-0.34983 
-0.24559 
-0.11664 
0.020588 
0.15678 
0.28126 
0.39088 
0.48329 
0.55888 
0.61896 
0.66074 
0.6857 
0.68822 
0.66559 
0.61851 
0.55513 
0.48316 
0.40866 
0.33546 
0.26833 
0.20832 
0.15413 
0.10136 
0.052728 
0.0079127 
-0.03438 
-0.075121 
-0.11741 
-0.15589 
-0.19094 
-0.22211 
-0.2516 
-0.27805 
-0.3032 
-0.3248 
-0.34239 
-0.35584 
-0.36807 
-0.37712 
-0.38688 
-0.39885 
-0.4134 
-0.42646 
-0.43636 
-0.44134 
-0.44457 
-0.44522 
-0.44172 
-0.43325 
-0.4132 
-0.36639 
-0.27967 
-0.1632 
-0.033927 
0.096184 
0.21724 
0.32323 
0.4128 
0.48432 
0.53845 
0.57725 
0.59807 
0.59917 
0.58022 
0.54388 
0.49583 
0.44267 
0.38758 
0.33242 
0.27919 
0.22953 
0.18058 
0.13078 
0.081117 
0.037143 
-0.0023048 
-0.041364 
-0.077708 
-0.11179 
-0.14153 
-0.17031 
-0.19896 
-0.22657 
-0.25128 
-0.27262 
-0.29163 
-0.30799 
-0.3217 
-0.33489 
-0.34931 
-0.36082 
-0.37136 
-0.37777 
-0.381 
-0.38404 
-0.38734 
-0.38669 
-0.37706 
-0.34563 
-0.27507 
-0.1685 
-0.041558 
0.090882 
0.21957 
0.33668 
0.44015 
0.52661 
0.59542 
0.64754 
0.68285 
0.70038 
0.69753 
0.67367 
0.62666 
0.5616 
0.48962 
0.41739 
0.34807 
0.28385 
0.22623 
0.17133 
0.12043 
0.075491 
0.029059 
-0.016855 
-0.060959 
-0.10416 
-0.14315 
-0.17937 
-0.21189 
-0.24591 
-0.27585 
-0.29913 
-0.32086 
-0.34123 
-0.35856 
-0.37259 
-0.38417 
-0.39607 
-0.40991 
-0.42058 
-0.42821 
-0.43649 
-0.44399 
-0.45019 
-0.44948 
-0.43564 
-0.39891 
-0.3228 
-0.20743 
-0.071435 
0.068248 
0.20353 
0.32634 
0.43233 
0.52202 
0.59484 
0.64761 
0.68227 
0.69941 
0.69676 
0.66966 
0.61877 
0.55377 
0.48051 
0.40556 
0.33319 
0.2671 
0.20657 
0.14863 
0.096831 
0.046002 
-0.0024988 
-0.046667 
-0.087731 
-0.12705 
-0.16326 
-0.19767 
-0.22968 
-0.25807 
-0.28549 
-0.31032 
-0.33263 
-0.34977 
-0.36335 
-0.37415 
-0.38307 
-0.3896 
-0.39497 
-0.4015 
-0.40629 
-0.41198 
-0.41864 
-0.42284 
-0.4242 
-0.42038 
-0.40635 
-0.36871 
-0.29279 
-0.18299 
-0.057467 
0.074779 
0.20437 
0.32155 
0.42302 
0.50592 
0.56981 
0.61443 
0.64302 
0.6531 
0.63998 
0.6057 
0.55494 
0.49551 
0.42942 
0.36165 
0.29678 
0.23554 
0.17683 
0.12425 
0.077495 
0.031904 
-0.015174 
-0.060183 
-0.10163 
-0.14089 
-0.17807 
-0.21041 
-0.24002 
-0.27009 
-0.29415 
-0.31368 
-0.33166 
-0.34815 
-0.36328 
-0.37602 
-0.3876 
-0.39749 
-0.40635 
-0.41579 
-0.42452 
-0.43435 
-0.44062 
-0.43532 
-0.41308 
-0.35921 
-0.26453 
-0.14089 
-0.0025635 
0.13343 
0.25986 
0.37154 
0.46511 
0.54136 
0.60079 
0.64496 
0.67244 
0.67942 
0.66494 
0.62646 
0.56716 
0.49732 
0.42541 
0.35479 
0.28715 
0.22474 
0.16596 
0.11119 
0.056866 
0.0070073 
-0.039101 
-0.079454 
-0.11722 
-0.15537 
-0.19185 
-0.22651 
-0.25736 
-0.28542 
-0.30818 
-0.32661 
-0.34395 
-0.36218 
-0.37686 
-0.38992 
-0.39956 
-0.40861 
-0.41366 
-0.41831 
-0.42562 
-0.43332 
-0.43888 
-0.4381 
-0.42885 
-0.39756 
-0.33185 
-0.23058 
-0.10429 
0.0299 
0.15814 
0.27952 
0.3868 
0.47656 
0.54666 
0.59736 
0.62969 
0.64289 
0.63416 
0.60409 
0.55436 
0.49422 
0.43259 
0.36915 
0.30855 
0.2479 
0.19047 
0.13725 
0.087842 
0.040053 
-0.0063143 
-0.049383 
-0.089412 
-0.13002 
-0.16844 
-0.20394 
-0.2366 
-0.26492 
-0.29331 
-0.31569 
-0.33619 
-0.3528 
-0.36509 
-0.3777 
-0.39025 
-0.39962 
-0.40926 
-0.41961 
-0.42685 
-0.43176 
-0.43571 
-0.4372 
-0.43416 
-0.41618 
-0.3693 
-0.28342 
-0.16404 
-0.024486 
0.1183 
0.25249 
0.37225 
0.47223 
0.55526 
0.61715 
0.66086 
0.69068 
0.70148 
0.69255 
0.6577 
0.60286 
0.53664 
0.46421 
0.39068 
0.31903 
0.25559 
0.19804 
0.14397 
0.094115 
0.044903 
-0.0050209 
-0.051 
-0.091417 
-0.13028 
-0.16837 
-0.20588 
-0.24138 
-0.27378 
-0.30411 
-0.33011 
-0.34964 
-0.36619 
-0.3788 
-0.38908 
-0.40053 
-0.40971 
-0.41579 
-0.42549 
-0.43099 
-0.43532 
-0.43642 
-0.43092 
-0.41708 
-0.38443 
-0.31394 
-0.20737 
-0.079648 
0.053116 
0.18245 
0.30118 
0.40012 
0.47772 
0.53767 
0.58139 
0.60661 
0.61443 
0.60014 
0.56677 
0.51944 
0.4624 
0.40077 
0.34102 
0.28333 
0.22811 
0.17754 
0.12755 
0.080017 
0.034427 
-0.011423 
-0.054621 
-0.094521 
-0.13222 
-0.1674 
-0.20155 
-0.23382 
-0.26343 
-0.2893 
-0.31258 
-0.33185 
-0.34951 
-0.36451 
-0.37848 
-0.39238 
-0.40544 
-0.41838 
-0.43079 
-0.43972 
-0.44664 
-0.45142 
-0.45007 
-0.43215 
-0.38805 
-0.30178 
-0.18195 
-0.043369 
0.095279 
0.22707 
0.34735 
0.45128 
0.53502 
0.59755 
0.64036 
0.66759 
0.67522 
0.66002 
0.62504 
0.57039 
0.50094 
0.42593 
0.35434 
0.28657 
0.22306 
0.16641 
0.11326 
0.061975 
0.015414 
-0.026297 
-0.065809 
-0.10513 
-0.14438 
-0.18253 
-0.21901 
-0.25089 
-0.27941 
-0.30553 
-0.32881 
-0.35041 
-0.3713 
-0.38811 
-0.40092 
-0.40855 
-0.41385 
-0.42038 
-0.42763 
-0.43338 
-0.43713 
-0.43649 
-0.43092 
-0.41159 
-0.36289 
-0.27546 
-0.15634 
-0.02177 
0.11151 
0.23658 
0.34522 
0.4353 
0.50469 
0.55578 
0.59089 
0.60687 
0.60273 
0.57932 
0.53825 
0.48587 
0.42315 
0.36016 
0.29879 
0.2422 
0.18795 
0.13712 
0.088424 
0.042704 
-0.00023547 
-0.041364 
-0.0812 
-0.11981 
-0.15731 
-0.19217 
-0.22172 
-0.24869 
-0.27288 
-0.297 
-0.32151 
-0.34265 
-0.36205 
-0.3788 
-0.39206 
-0.40182 
-0.41139 
-0.41999 
-0.42581 
-0.4317 
-0.43254 
-0.42995 
-0.41909 
-0.38055 
-0.30133 
-0.18434 
-0.049965 
0.086355 
0.21472 
0.32841 
0.4245 
0.50398 
0.56574 
0.61133 
0.63965 
0.64754 
0.6337 
0.59846 
0.54718 
0.48523 
0.41823 
0.35279 
0.29252 
0.23658 
0.18407 
0.1366 
0.089265 
0.041993 
-0.0034042 
-0.04421 
-0.082816 
-0.12239 
-0.16035 
-0.19489 
-0.22625 
-0.2549 
-0.28018 
-0.30282 
-0.32299 
-0.34162 
-0.35701 
-0.36658 
-0.37951 
-0.39419 
-0.40422 
-0.4123 
-0.41941 
-0.4286 
-0.43739 
-0.44315 
-0.44185 
-0.42885 
-0.39296 
-0.31885 
-0.21105 
-0.08107 
0.054474 
0.18374 
0.29814 
0.39359 
0.47003 
0.53024 
0.57408 
0.60182 
0.60978 
0.59781 
0.56516 
0.51737 
0.46214 
0.40362 
0.3447 
0.28657 
0.23166 
0.17967 
0.13143 
0.089136 
0.046519 
0.0019632 
-0.042076 
-0.080359 
-0.12032 
-0.15486 
-0.18674 
-0.21577 
-0.24455 
-0.26712 
-0.28852 
-0.30909 
-0.32519 
-0.33987 
-0.35183 
-0.36283 
-0.37343 
-0.38449 
-0.3982 
-0.40745 
-0.41366 
-0.41611 
-0.41114 
-0.39814 
-0.36865 
-0.30282 
-0.20206 
-0.07913 
0.051176 
0.17935 
0.30041 
0.40484 
0.49189 
0.56153 
0.6134 
0.6469 
0.66112 
0.65446 
0.62588 
0.57977 
0.52092 
0.45587 
0.39075 
0.3244 
0.26238 
0.2067 
0.15652 
0.1075 
0.061005 
0.018712 
-0.022352 
-0.063998 
-0.10416 
-0.14141 
-0.17827 
-0.21383 
-0.2463 
-0.2787 
-0.30818 
-0.33793 
-0.36567 
-0.39031 
-0.41327 
-0.43493 
-0.45517 
-0.46998 
-0.48318 
-0.49094 
-0.49695 
-0.49928 
-0.49876 
-0.48641 
-0.45259 
-0.38249 
-0.27417 
-0.14225 
-0.0068316 
0.12128 
0.24014 
0.34199 
0.42496 
0.49337 
0.54149 
0.5733 
0.58857 
0.58714 
0.56878 
0.53379 
0.48743 
0.43504 
0.38169 
0.32601 
0.27422 
0.22306 
0.17359 
0.12322 
0.072322 
0.026796 
-0.018213 
-0.065615 
-0.11114 
-0.15356 
-0.19198 
-0.22457 
-0.24966 
-0.27191 
-0.29325 
-0.31135 
-0.32746 
-0.3389 
-0.34886 
-0.35856 
-0.3669 
-0.37389 
-0.37932 
-0.38404 
-0.39005 
-0.39484 
-0.3951 
-0.39031 
-0.37117 
-0.3228 
-0.23595 
-0.11994 
0.0085594 
0.13725 
0.26025 
0.36947 
0.46052 
0.53347 
0.58701 
0.62245 
0.64075 
0.64172 
0.62336 
0.58275 
0.52745 
0.46673 
0.40653 
0.34516 
0.2834 
0.223 
0.16829 
0.11888 
0.070447 
0.025761 
-0.015691 
-0.056497 
-0.099177 
-0.13804 
-0.1738 
-0.20588 
-0.2331 
-0.25774 
-0.28219 
-0.30301 
-0.32125 
-0.33858 
-0.35365 
-0.36813 
-0.38191 
-0.39374 
-0.40325 
-0.41152 
-0.41896 
-0.42368 
-0.42381 
-0.41379 
-0.38753 
-0.32642 
-0.2256 
-0.1026 
0.02783 
0.156 
0.2759 
0.38195 
0.46925 
0.53832 
0.58941 
0.62381 
0.64004 
0.63726 
0.61527 
0.57208 
0.51737 
0.45684 
0.39327 
0.33352 
0.27376 
0.21614 
0.16208 
0.11112 
0.06495 
0.021364 
-0.017696 
-0.057402 
-0.099177 
-0.13947 
-0.17949 
-0.21681 
-0.24869 
-0.27533 
-0.29661 
-0.31724 
-0.33586 
-0.35377 
-0.36884 
-0.38132 
-0.39038 
-0.40021 
-0.40848 
-0.41805 
-0.42562 
-0.43319 
-0.44134 
-0.44722 
-0.44851 
-0.43422 
-0.39167 
-0.30967 
-0.19657 
-0.066067 
0.069283 
0.19991 
0.3178 
0.41778 
0.50029 
0.56386 
0.60861 
0.63461 
0.64347 
0.63338 
0.60092 
0.55015 
0.49059 
0.42819 
0.36637 
0.30564 
0.24887 
0.19383 
0.14139 
0.090688 
0.044967 
0.00066988 
-0.042076 
-0.082558 
-0.118 
-0.15175 
-0.1848 
-0.217 
-0.24565 
-0.27132 
-0.29312 
-0.31381 
-0.33075 
-0.33994 
-0.34918 
-0.36063 
-0.37162 
-0.38068 
-0.38857 
-0.39419 
-0.39872 
-0.40331 
-0.40454 
-0.40105 
-0.38527 
-0.34789 
-0.27572 
-0.17057 
-0.048607 
0.078465 
0.20114 
0.31237 
0.40484 
0.47934 
0.53515 
0.57369 
0.59342 
0.59238 
0.5766 
0.542 
0.4937 
0.44112 
0.38473 
0.33086 
0.27745 
0.225 
0.17637 
0.13078 
0.088618 
0.046713 
0.00649 
-0.031341 
-0.069753 
-0.10797 
-0.1447 
-0.17801 
-0.20763 
-0.23181 
-0.25373 
-0.27611 
-0.29596 
-0.31698 
-0.33431 
-0.34931 
-0.3627 
-0.37512 
-0.38663 
-0.39749 
-0.40751 
-0.41502 
-0.41767 
-0.40557 
-0.36962 
-0.29713 
-0.18965 
-0.056303 
0.080923 
0.21188 
0.32841 
0.42884 
0.51058 
0.5744 
0.61967 
0.6469 
0.6553 
0.64243 
0.61081 
0.56593 
0.50838 
0.44423 
0.37975 
0.31728 
0.26012 
0.20599 
0.15458 
0.10479 
0.056155 
0.012051 
-0.027461 
-0.064451 
-0.10409 
-0.14296 
-0.18131 
-0.21616 
-0.24681 
-0.27352 
-0.29661 
-0.31788 
-0.33774 
-0.35468 
-0.36794 
-0.37841 
-0.38734 
-0.39678 
-0.40848 
-0.41818 
-0.42601 
-0.43228 
-0.4328 
-0.42452 
-0.39846 
-0.34175 
-0.24571 
-0.12233 
0.01328 
0.14895 
0.27376 
0.38473 
0.47895 
0.55255 
0.607 
0.6456 
0.66765 
0.67024 
0.65065 
0.60945 
0.55061 
0.4849 
0.41733 
0.35007 
0.28728 
0.23011 
0.17573 
0.1227 
0.070835 
0.02104 
-0.024874 
-0.067296 
-0.10849 
-0.14606 
-0.18176 
-0.21558 
-0.24474 
-0.27255 
-0.29661 
-0.31678 
-0.33496 
-0.35397 
-0.37188 
-0.38708 
-0.39943 
-0.40991 
-0.41728 
-0.42523 
-0.42898 
-0.43377 
-0.43713 
-0.43448 
-0.41696 
-0.37272 
-0.28639 
-0.16805 
-0.034251 
0.10278 
0.23153 
0.34212 
0.43265 
0.50314 
0.55559 
0.58934 
0.60609 
0.60473 
0.58184 
0.53948 
0.48633 
0.42741 
0.3674 
0.3123 
0.26076 
0.20864 
0.15697 
0.1086 
0.064432 
0.022592 
-0.018536 
-0.058825 
-0.097625 
-0.13617 
-0.1729 
-0.20885 
-0.24377 
-0.27436 
-0.30217 
-0.32519 
-0.34272 
-0.35656 
-0.36897 
-0.37945 
-0.38947 
-0.39943 
-0.41198 
-0.42168 
-0.42685 
-0.43248 
-0.43804 
-0.44205 
-0.44004 
-0.42653 
-0.39031 
-0.31672 
-0.20459 
-0.071887 
0.06579 
0.19661 
0.31437 
0.41616 
0.49894 
0.56141 
0.6068 
0.63442 
0.64198 
0.62879 
0.59393 
0.54349 
0.48646 
0.42871 
0.37083 
0.3145 
0.25973 
0.20761 
0.15471 
0.10407 
0.05428 
0.0084947 
-0.035415 
-0.07913 
-0.11845 
-0.15706 
-0.19256 
-0.22295 
-0.24636 
-0.2657 
-0.28413 
-0.30346 
-0.32163 
-0.33593 
-0.34589 
-0.35429 
-0.36322 
-0.37272 
-0.3843 
-0.39335 
-0.40072 
-0.4037 
-0.40228 
-0.38792 
-0.34821 
-0.27359 
-0.16643 
-0.039295 
0.090364 
0.21491 
0.32556 
0.4161 
0.48633 
0.53728 
0.56975 
0.58514 
0.57977 
0.55474 
0.51523 
0.4646 
0.40801 
0.35214 
0.29756 
0.24583 
0.19532 
0.14669 
0.099676 
0.057384 
0.017742 
-0.020477 
-0.061605 
-0.10047 
-0.13442 
-0.16682 
-0.1956 
-0.22502 
-0.25153 
-0.27527 
-0.29842 
-0.32008 
-0.33903 
-0.35636 
-0.37104 
-0.38178 
-0.39186 
-0.39859 
-0.40376 
-0.41004 
-0.41126 
-0.40978 
-0.40228 
-0.37912 
-0.32183 
-0.22418 
-0.097496 
0.038501 
0.17269 
0.30002 
0.41293 
0.50935 
0.58688 
0.64554 
0.68693 
0.70827 
0.70626 
0.68143 
0.63597 
0.57602 
0.50818 
0.43757 
0.36889 
0.30247 
0.23658 
0.17527 
0.11604 
0.063786 
0.016126 
-0.029013 
-0.073957 
-0.11586 
-0.15731 
-0.19502 
-0.23175 
-0.26285 
-0.29215 
-0.3173 
-0.33748 
-0.35358 
-0.36917 
-0.38378 
-0.39697 
-0.40887 
-0.41818 
-0.42355 
-0.42918 
-0.43467 
-0.43875 
-0.44302 
-0.4425 
-0.43674 
-0.41915 
-0.37544 
-0.29344 
-0.18092 
-0.0499 
0.085708 
0.21724 
0.33507 
0.43582 
0.51685 
0.57822 
0.62077 
0.6445 
0.64903 
0.63383 
0.59962 
0.54815 
0.48768 
0.42289 
0.35583 
0.29219 
0.23005 
0.17172 
0.11791 
0.067278 
0.018066 
-0.028819 
-0.069301 
-0.10674 
-0.14335 
-0.17646 
-0.20323 
-0.22864 
-0.25541 
-0.28057 
-0.29945 
-0.31788 
-0.33793 
-0.355 
-0.36897 
-0.38171 
-0.39258 
-0.40137 
-0.40932 
-0.41411 
-0.41683 
-0.4154 
-0.40622 
-0.37945 
-0.31847 
-0.22069 
-0.10008 
0.027248 
0.15607 
0.27292 
0.37387 
0.45535 
0.51866 
0.5649 
0.59361 
0.60409 
0.59154 
0.56037 
0.514 
0.45787 
0.39883 
0.33675 
0.27829 
0.22119 
0.1648 
0.11442 
0.065661 
0.018518 
-0.025456 
-0.065291 
-0.10312 
-0.1425 
-0.17943 
-0.21222 
-0.24397 
-0.27281 
-0.29674 
-0.31607 
-0.3325 
-0.34647 
-0.36095 
-0.37621 
-0.38805 
-0.39639 
-0.40389 
-0.4112 
-0.42012 
-0.42601 
-0.42763 
-0.41928 
-0.38727 
-0.31814 
-0.21092 
-0.081588 
0.053762 
0.18808 
0.31263 
0.42062 
0.50961 
0.57867 
0.62969 
0.66416 
0.67878 
0.67302 
0.64243 
0.59225 
0.53101 
0.46149 
0.38822 
0.31709 
0.2499 
0.18834 
0.13001 
0.079371 
0.032745 
-0.01207 
-0.056626 
-0.097884 
-0.13908 
-0.17581 
-0.21092 
-0.24041 
-0.26925 
-0.29532 
-0.32079 
-0.34259 
-0.36257 
-0.37822 
-0.38882 
-0.4004 
-0.41256 
-0.42297 
-0.43286 
-0.44049 
-0.44657 
-0.45239 
-0.45382 
-0.44502 
-0.41637 
-0.35668 
-0.2569 
-0.12802 
0.010047 
0.14876 
0.27816 
0.38997 
0.48031 
0.55099 
0.60169 
0.63545 
0.65226 
0.64994 
0.62788 
0.58721 
0.53056 
0.46537 
0.39605 
0.32614 
0.26076 
0.20146 
0.14753 
0.097736 
0.049235 
0.0025452 
-0.041623 
-0.084045 
-0.1231 
-0.16009 
-0.19663 
-0.22935 
-0.25942 
-0.28827 
-0.31413 
-0.33418 
-0.34983 
-0.36173 
-0.37479 
-0.38934 
-0.39982 
-0.40861 
-0.41941 
-0.43073 
-0.43991 
-0.44664 
-0.45168 
-0.45446 
-0.44716 
-0.42433 
-0.3755 
-0.28671 
-0.16494 
-0.028883 
0.10776 
0.23651 
0.35201 
0.44843 
0.52435 
0.57802 
0.61307 
0.62989 
0.62879 
0.60396 
0.55959 
0.50469 
0.44364 
0.38402 
0.32647 
0.26975 
0.21226 
0.15781 
0.10847 
0.059906 
0.016772 
-0.023451 
-0.063869 
-0.10513 
-0.14018 
-0.17445 
-0.20743 
-0.23757 
-0.26731 
-0.29409 
-0.31459 
-0.33037 
-0.34382 
-0.3541 
-0.36451 
-0.37751 
-0.38669 
-0.39154 
-0.40092 
-0.40835 
-0.41288 
-0.41702 
-0.41683 
-0.41101 
-0.39173 
-0.34201 
-0.25483 
-0.13604 
-0.0052796 
0.12554 
0.24919 
0.35641 
0.44164 
0.50443 
0.55203 
0.57893 
0.58676 
0.57524 
0.54414 
0.49958 
0.45037 
0.39728 
0.34503 
0.29368 
0.24511 
0.19972 
0.156 
0.1141 
0.073357 
0.035009 
-0.0028222 
-0.043046 
-0.08204 
-0.11922 
-0.15609 
-0.19068 
-0.22205 
-0.24772 
-0.27178 
-0.29001 
-0.30495 
-0.31957 
-0.3334 
-0.34686 
-0.36082 
-0.37318 
-0.38507 
-0.39536 
-0.4037 
-0.40907 
-0.40803 
-0.39827 
-0.36768 
-0.30062 
-0.19359 
-0.063998 
0.073357 
0.20806 
0.33132 
0.43433 
0.51898 
0.5852 
0.6337 
0.66701 
0.68233 
0.67554 
0.64502 
0.59497 
0.53567 
0.47378 
0.40937 
0.34626 
0.28443 
0.22791 
0.17275 
0.12205 
0.074262 
0.031258 
-0.0086423 
-0.051194 
-0.092129 
-0.13106 
-0.16708 
-0.20226 
-0.23427 
-0.26233 
-0.28962 
-0.31278 
-0.33224 
-0.34821 
-0.36283 
-0.37479 
-0.38837 
-0.4004 
-0.41081 
-0.41902 
-0.42788 
-0.43377 
-0.43707 
-0.43991 
-0.43784 
-0.42465 
-0.39277 
-0.325 
-0.21868 
-0.089348 
0.048201 
0.18426 
0.30952 
0.42088 
0.51077 
0.57899 
0.62698 
0.6553 
0.66565 
0.65847 
0.63222 
0.58844 
0.53205 
0.47184 
0.40665 
0.34089 
0.27784 
0.22145 
0.16738 
0.11436 
0.068183 
0.025632 
-0.018019 
-0.059795 
-0.099695 
-0.13791 
-0.17581 
-0.21105 
-0.24552 
-0.27663 
-0.3023 
-0.32241 
-0.33877 
-0.35287 
-0.36548 
-0.37718 
-0.38727 
-0.39691 
-0.40661 
-0.41159 
-0.41566 
-0.41987 
-0.42258 
-0.42342 
-0.41618 
-0.39018 
-0.32758 
-0.22347 
-0.096332 
0.038048 
0.16978 
0.28838 
0.39094 
0.47469 
0.5367 
0.58009 
0.60564 
0.61333 
0.59982 
0.56703 
0.51834 
0.46466 
0.40665 
0.34807 
0.28928 
0.23438 
0.18329 
0.13279 
0.083574 
0.035979 
-0.0081896 
-0.046732 
-0.08301 
-0.1211 
-0.15725 
-0.1923 
-0.22722 
-0.2593 
-0.28697 
-0.30851 
-0.32894 
-0.34498 
-0.35765 
-0.368 
-0.37738 
-0.38475 
-0.39186 
-0.3973 
-0.40538 
-0.41236 
-0.4156 
-0.42051 
-0.42478 
-0.42711 
-0.42659 
-0.41831 
-0.39219 
-0.33851 
-0.24274 
-0.11884 
0.016772 
0.15387 
0.28495 
0.40032 
0.49622 
0.57033 
0.62497 
0.66074 
0.6758 
0.67128 
0.64922 
0.60745 
0.55455 
0.499 
0.44145 
0.3826 
0.3233 
0.26523 
0.21155 
0.1615 
0.11539 
0.073551 
0.036561 
-0.0014642 
-0.040847 
-0.077902 
-0.11619 
-0.15059 
-0.18525 
-0.21694 
-0.24772 
-0.27417 
-0.29667 
-0.31581 
-0.33172 
-0.34524 
-0.35546 
-0.36289 
-0.36936 
-0.37654 
-0.38443 
-0.39309 
-0.40053 
-0.40435 
-0.40557 
-0.39878 
-0.37298 
-0.3162 
-0.21972 
-0.09672 
0.035655 
0.16609 
0.28657 
0.39476 
0.48309 
0.55164 
0.60105 
0.63041 
0.64049 
0.63332 
0.60687 
0.56548 
0.5142 
0.45664 
0.39598 
0.33707 
0.28178 
0.2294 
0.18045 
0.13227 
0.084027 
0.037401 
-0.0060556 
-0.04712 
-0.08398 
-0.12155 
-0.15783 
-0.18952 
-0.21797 
-0.2472 
-0.27385 
-0.29616 
-0.31969 
-0.33864 
-0.35313 
-0.36509 
-0.37292 
-0.37964 
-0.38637 
-0.39283 
-0.40072 
-0.40797 
-0.40965 
-0.41243 
-0.41359 
-0.41055 
-0.39264 
-0.34634 
-0.25968 
-0.13908 
-0.0010762 
0.13608 
0.26387 
0.37607 
0.46938 
0.54427 
0.59691 
0.63118 
0.65091 
0.65045 
0.62944 
0.59393 
0.54595 
0.49337 
0.4364 
0.37743 
0.32103 
0.26801 
0.21394 
0.16525 
0.11953 
0.075685 
0.030029 
-0.01401 
-0.057079 
-0.097496 
-0.13384 
-0.16973 
-0.204 
-0.23479 
-0.26111 
-0.27992 
-0.29726 
-0.31433 
-0.32901 
-0.3411 
-0.35099 
-0.36037 
-0.368 
-0.3766 
-0.3841 
-0.38695 
-0.38915 
-0.3843 
-0.36095 
-0.3089 
-0.22043 
-0.10551 
0.021946 
0.14721 
0.26406 
0.36663 
0.45108 
0.51704 
0.5647 
0.59477 
0.60292 
0.58766 
0.5552 
0.50728 
0.45108 
0.39204 
0.33571 
0.28185 
0.22862 
0.18019 
0.13395 
0.08836 
0.044385 
0.0010579 
-0.039942 
-0.079195 
-0.11573 
-0.15026 
-0.18008 
-0.20763 
-0.23401 
-0.25761 
-0.27695 
-0.29447 
-0.30961 
-0.32927 
-0.34744 
-0.36238 
-0.37634 
-0.38857 
-0.40137 
-0.4123 
-0.41909 
-0.42232 
-0.41773 
-0.39432 
-0.3389 
-0.24164 
-0.11612 
0.0202 
0.15943 
0.292 
0.40756 
0.50443 
0.57971 
0.63745 
0.67988 
0.70568 
0.71228 
0.69553 
0.65582 
0.59723 
0.52842 
0.45503 
0.38143 
0.31024 
0.24414 
0.18342 
0.126 
0.073551 
0.026666 
-0.016144 
-0.058178 
-0.098013 
-0.13507 
-0.17122 
-0.20433 
-0.23356 
-0.26149 
-0.28633 
-0.30851 
-0.32914 
-0.34925 
-0.36587 
-0.37867 
-0.39038 
-0.40163 
-0.41114 
-0.41974 
-0.42523 
-0.42821 
-0.42989 
-0.4264 
-0.40958 
-0.36153 
-0.27094 
-0.14955 
-0.014398 
0.12451 
0.25831 
0.37497 
0.47352 
0.55293 
0.61198 
0.65466 
0.68143 
0.6866 
0.6685 
0.62594 
0.56399 
0.4915 
0.41842 
0.34832 
0.28243 
0.21692 
0.15329 
0.094632 
0.043933 
-0.0032749 
-0.047443 
-0.086826 
-0.12485 
-0.163 
-0.19948 
-0.23504 
-0.27009 
-0.30004 
-0.32655 
-0.34977 
-0.36878 
-0.38676 
-0.39872 
-0.40842 
-0.41838 
-0.42924 
-0.4394 
-0.44631 
-0.45278 
-0.45964 
-0.46804 
-0.47386 
-0.47483 
-0.46863 
-0.44741 
-0.39833 
-0.30851 
-0.18325 
-0.040265 
0.10517 
0.24356 
0.37031 
0.47617 
0.55643 
0.61683 
0.65886 
0.68647 
0.69352 
0.68117 
0.64644 
0.59426 
0.52991 
0.46007 
0.38732 
0.31774 
0.25197 
0.19086 
0.13272 
0.080923 
0.033457 
-0.0093536 
-0.051129 
-0.093681 
-0.13261 
-0.17225 
-0.20872 
-0.24345 
-0.27837 
-0.30805 
-0.33476 
-0.35455 
-0.37117 
-0.38779 
-0.40189 
-0.41262 
-0.42045 
-0.42872 
-0.43467 
-0.43707 
-0.44088 
-0.44631 
-0.45091 
-0.45511 
-0.45821 
-0.45951 
-0.45621 
-0.44541 
-0.41728 
-0.35571 
-0.25509 
-0.12188 
0.02492 
0.16822 
0.30176 
0.41765 
0.51258 
0.58546 
0.64011 
0.67554 
0.69352 
0.68815 
0.66112 
0.61592 
0.55947 
0.49764 
0.43181 
0.36604 
0.30403 
0.24602 
0.1915 
0.13977 
0.090235 
0.043157 
-0.0023048 
-0.044598 
-0.087149 
-0.12666 
-0.16488 
-0.19961 
-0.22903 
-0.25587 
-0.28076 
-0.3032 
-0.32364 
-0.34246 
-0.35785 
-0.37033 
-0.37971 
-0.38792 
-0.39426 
-0.40092 
-0.40687 
-0.41262 
-0.41579 
-0.41767 
-0.41088 
-0.38947 
-0.34207 
-0.25451 
-0.1328 
0.0031273 
0.13744 
0.264 
0.37497 
0.46744 
0.53774 
0.59012 
0.62672 
0.64405 
0.63959 
0.61353 
0.56858 
0.51265 
0.45199 
0.39133 
0.32989 
0.27253 
0.21782 
0.16376 
0.11513 
0.069283 
0.025373 
-0.01595 
-0.054492 
-0.092064 
-0.12873 
-0.16514 
-0.20058 
-0.23207 
-0.26188 
-0.28852 
-0.30987 
-0.32713 
-0.34168 
-0.3563 
-0.37208 
-0.38449 
-0.39574 
-0.40616 
-0.4134 
-0.42038 
-0.42704 
-0.43041 
-0.42601 
-0.40338 
-0.34763 
-0.24862 
-0.12032 
0.021558 
0.16454 
0.30053 
0.42062 
0.52118 
0.60137 
0.66022 
0.70109 
0.72366 
0.72728 
0.70768 
0.66416 
0.60318 
0.5325 
0.45735 
0.38156 
0.31011 
0.24434 
0.18303 
0.12735 
0.073227 
0.02201 
-0.027202 
-0.074345 
-0.11541 
-0.1555 
-0.1945 
-0.23136 
-0.2644 
-0.29428 
-0.32273 
-0.3475 
-0.36949 
-0.38992 
-0.40538 
-0.41521 
-0.424 
-0.43409 
-0.44328 
-0.44948 
-0.45485 
-0.45905 
-0.46293 
-0.46455 
-0.46209 
-0.45013 
-0.41676 
-0.34278 
-0.23019 
-0.093034 
0.052663 
0.19551 
0.32537 
0.43724 
0.53179 
0.60467 
0.65698 
0.68815 
0.69928 
0.69009 
0.6564 
0.6026 
0.53483 
0.46065 
0.38816 
0.31858 
0.25449 
0.1961 
0.14152 
0.090558 
0.042833 
-0.0034689 
-0.048284 
-0.092775 
-0.13727 
-0.17814 
-0.21584 
-0.25134 
-0.28419 
-0.31193 
-0.3345 
-0.35668 
-0.37634 
-0.38979 
-0.40079 
-0.4079 
-0.41508 
-0.42284 
-0.43351 
-0.4425 
-0.45084 
-0.45647 
-0.46022 
-0.46623 
-0.47192 
-0.46914 
-0.44858 
-0.39723 
-0.30262 
-0.17503 
-0.032375 
0.11177 
0.25081 
0.37419 
0.47708 
0.55824 
0.61728 
0.65731 
0.67781 
0.68201 
0.66326 
0.624 
0.56897 
0.50411 
0.43563 
0.36391 
0.29704 
0.236 
0.17799 
0.12296 
0.070059 
0.019812 
-0.028172 
-0.070853 
-0.10881 
-0.14496 
-0.18008 
-0.21526 
-0.2474 
-0.27611 
-0.30133 
-0.31892 
-0.33347 
-0.34653 
-0.35753 
-0.36716 
-0.37609 
-0.38572 
-0.39426 
-0.4048 
-0.41553 
-0.42284 
-0.4306 
-0.43526 
-0.43564 
-0.42038 
-0.37628 
-0.29098 
-0.17477 
-0.041558 
0.093274 
0.22183 
0.33985 
0.43724 
0.5129 
0.56981 
0.6101 
0.63616 
0.64127 
0.62407 
0.58753 
0.53599 
0.47268 
0.40562 
0.33843 
0.27422 
0.21369 
0.15561 
0.10278 
0.051887 
0.005714 
-0.031987 
-0.065809 
-0.10151 
-0.13998 
-0.17555 
-0.20808 
-0.23789 
-0.26434 
-0.28723 
-0.30883 
-0.3281 
-0.34375 
-0.35959 
-0.37117 
-0.37971 
-0.38688 
-0.39413 
-0.40338 
-0.40945 
-0.41534 
-0.41967 
-0.41961 
-0.40945 
-0.37951 
-0.31278 
-0.2053 
-0.078872 
0.052469 
0.1778 
0.29077 
0.38945 
0.471 
0.53198 
0.57427 
0.60066 
0.60603 
0.58902 
0.55171 
0.50301 
0.44875 
0.3901 
0.3319 
0.2759 
0.22436 
0.17437 
0.12697 
0.083445 
0.043545 
0.0017046 
-0.039748 
-0.07732 
-0.11457 
-0.14923 
-0.18273 
-0.21196 
-0.23459 
-0.25218 
-0.26841 
-0.28193 
-0.29299 
-0.30411 
-0.31976 
-0.33748 
-0.35429 
-0.37188 
-0.39051 
-0.40415 
-0.41017 
-0.40506 
-0.38255 
-0.32377 
-0.22703 
-0.10616 
0.028542 
0.16596 
0.29439 
0.40446 
0.49945 
0.57654 
0.63636 
0.67845 
0.70225 
0.7007 
0.67367 
0.62193 
0.55591 
0.48238 
0.40808 
0.33668 
0.26833 
0.20806 
0.15264 
0.1011 
0.05221 
0.0060373 
-0.03632 
-0.076932 
-0.11418 
-0.15046 
-0.18577 
-0.21907 
-0.25192 
-0.28038 
-0.30527 
-0.32791 
-0.34892 
-0.36677 
-0.38281 
-0.39613 
-0.40913 
-0.42206 
-0.43202 
-0.43713 
-0.44062 
-0.43985 
-0.43099 
-0.40176 
-0.34 
-0.24151 
-0.11586 
0.019424 
0.15316 
0.279 
0.38894 
0.48322 
0.55882 
0.61767 
0.66339 
0.68848 
0.68964 
0.66462 
0.61126 
0.54103 
0.4635 
0.38383 
0.3114 
0.24363 
0.18051 
0.1227 
0.068507 
0.019294 
-0.028237 
-0.077126 
-0.12201 
-0.16417 
-0.20342 
-0.23918 
-0.26854 
-0.29629 
-0.32163 
-0.34246 
-0.35934 
-0.37706 
-0.39348 
-0.40661 
-0.41663 
-0.42588 
-0.43383 
-0.44056 
-0.4467 
-0.45201 
-0.45272 
-0.44573 
-0.42821 
-0.38404 
-0.30359 
-0.19385 
-0.064839 
0.072516 
0.20276 
0.32181 
0.42618 
0.51543 
0.5874 
0.64056 
0.67289 
0.68136 
0.66675 
0.62666 
0.5647 
0.49046 
0.41377 
0.33804 
0.26794 
0.20308 
0.14449 
0.089976 
0.041152 
-0.0056676 
-0.050159 
-0.088313 
-0.12543 
-0.16171 
-0.19689 
-0.23078 
-0.26195 
-0.29072 
-0.31484 
-0.33716 
-0.35681 
-0.37343 
-0.38656 
-0.3995 
-0.41204 
-0.424 
-0.43086 
-0.43655 
-0.44011 
-0.44049 
-0.44004 
-0.43571 
-0.41987 
-0.38203 
-0.30831 
-0.20129 
-0.073763 
0.060811 
0.19028 
0.30868 
0.41073 
0.49641 
0.56496 
0.61689 
0.65388 
0.66817 
0.65808 
0.62077 
0.56173 
0.4924 
0.41758 
0.34638 
0.27984 
0.21614 
0.15794 
0.10537 
0.055185 
0.0065547 
-0.038196 
-0.078936 
-0.1169 
-0.15253 
-0.18648 
-0.2181 
-0.245 
-0.27184 
-0.29835 
-0.31924 
-0.33638 
-0.35022 
-0.36179 
-0.37356 
-0.38307 
-0.3927 
-0.40053 
-0.40777 
-0.41469 
-0.42006 
-0.42433 
-0.42724 
-0.42155 
-0.39536 
-0.33547 
-0.24009 
-0.12304 
0.004938 
0.13434 
0.25346 
0.35757 
0.4441 
0.51045 
0.56076 
0.5971 
0.61469 
0.60751 
0.57667 
0.52784 
0.46764 
0.40226 
0.33862 
0.27622 
0.21886 
0.16654 
0.11843 
0.073874 
0.030158 
-0.0086423 
-0.045244 
-0.08204 
-0.11728 
-0.15124 
-0.18409 
-0.21545 
-0.24345 
-0.26777 
-0.28613 
-0.30198 
-0.31704 
-0.33243 
-0.34724 
-0.35985 
-0.37143 
-0.38184 
-0.39251 
-0.40176 
-0.40816 
-0.41049 
-0.40525 
-0.38514 
-0.33509 
-0.24837 
-0.13074 
0.0026099 
0.13563 
0.26193 
0.37432 
0.46984 
0.5464 
0.60603 
0.64838 
0.67315 
0.67535 
0.65188 
0.60822 
0.54485 
0.47249 
0.39954 
0.33009 
0.26426 
0.20412 
0.15102 
0.10136 
0.054215 
0.01425 
-0.024292 
-0.063739 
-0.099824 
-0.13462 
-0.1707 
-0.20206 
-0.23065 
-0.25457 
-0.27695 
-0.29706 
-0.31704 
-0.33696 
-0.35559 
-0.37033 
-0.38333 
-0.39607 
-0.40525 
-0.41443 
-0.42084 
-0.42265 
-0.42058 
-0.41269 
-0.38443 
-0.31866 
-0.21435 
-0.084627 
0.056608 
0.19758 
0.32996 
0.44526 
0.54278 
0.62303 
0.68822 
0.73497 
0.76097 
0.76278 
0.73368 
0.67664 
0.60059 
0.51976 
0.43905 
0.36035 
0.28708 
0.21931 
0.15665 
0.10032 
0.048718 
0.00028187 
-0.045762 
-0.087925 
-0.1266 
-0.16223 
-0.19534 
-0.22696 
-0.25736 
-0.28652 
-0.31484 
-0.34149 
-0.36406 
-0.38081 
-0.39439 
-0.40499 
-0.41502 
-0.42336 
-0.43358 
-0.43965 
-0.44308 
-0.44703 
-0.44903 
-0.44793 
-0.44457 
-0.43176 
-0.39995 
-0.32972 
-0.22282 
-0.092129 
0.049882 
0.19189 
0.32091 
0.4353 
0.53049 
0.60881 
0.66985 
0.71156 
0.7351 
0.73271 
0.70193 
0.64722 
0.57343 
0.49337 
0.41558 
0.34205 
0.27486 
0.20922 
0.14895 
0.093727 
0.044062 
-0.0021108 
-0.04505 
-0.088507 
-0.12925 
-0.16824 
-0.2031 
-0.23407 
-0.26253 
-0.28898 
-0.31413 
-0.33748 
-0.35694 
-0.37195 
-0.38255 
-0.39277 
-0.40383 
-0.41476 
-0.42362 
-0.43176 
-0.43959 
-0.44606 
-0.4458 
-0.43888 
-0.41624 
-0.36251 
-0.27055 
-0.14664 
-0.0026929 
0.14003 
0.26723 
0.37995 
0.47566 
0.55048 
0.60693 
0.64806 
0.6685 
0.66578 
0.63687 
0.58275 
0.51265 
0.43685 
0.36572 
0.29633 
0.22921 
0.16661 
0.10983 
0.056672 
0.0097881 
-0.036385 
-0.078936 
-0.11547 
-0.14807 
-0.18202 
-0.21668 
-0.24791 
-0.27591 
-0.29939 
-0.31834 
-0.3347 
-0.34808 
-0.36205 
-0.37563 
-0.38857 
-0.40208 
-0.4145 
-0.42368 
-0.43125 
-0.43597 
-0.43843 
-0.43959 
-0.4348 
-0.41825 
-0.37647 
-0.29486 
-0.17975 
-0.043822 
0.094891 
0.22694 
0.34587 
0.4474 
0.52868 
0.59051 
0.63422 
0.65776 
0.65886 
0.6359 
0.5896 
0.52416 
0.44895 
0.37529 
0.30765 
0.24376 
0.18471 
0.13065 
0.078401 
0.032616 
-0.0072843 
-0.042399 
-0.077643 
-0.11179 
-0.146 
-0.17781 
-0.20581 
-0.23123 
-0.25444 
-0.27863 
-0.30159 
-0.32144 
-0.3378 
-0.35093 
-0.35908 
-0.36936 
-0.38035 
-0.38798 
-0.39393 
-0.39924 
-0.40228 
-0.40118 
-0.38391 
-0.33308 
-0.24623 
-0.12834 
0.0057786 
0.14553 
0.27751 
0.39644 
0.4979 
0.58339 
0.64884 
0.69456 
0.72249 
0.73006 
0.70872 
0.65867 
0.58656 
0.50715 
0.42496 
0.34477 
0.26962 
0.20379 
0.1452 
0.091076 
0.040635 
-0.0059262 
-0.047702 
-0.088572 
-0.12854 
-0.1665 
-0.20103 
-0.23239 
-0.26376 
-0.29325 
-0.31937 
-0.34181 
-0.36076 
-0.37615 
-0.3887 
-0.40072 
-0.41094 
-0.42058 
-0.42872 
-0.43784 
-0.44657 
-0.45317 
-0.45634 
-0.46106 
-0.46423 
-0.45841 
-0.43092 
-0.36891 
-0.26557 
-0.13584 
0.005714 
0.14798 
0.28346 
0.40187 
0.50146 
0.58262 
0.64935 
0.69727 
0.7234 
0.72521 
0.6963 
0.64101 
0.56942 
0.49021 
0.40976 
0.33326 
0.26419 
0.2025 
0.14352 
0.089006 
0.040376 
-0.0031455 
-0.042981 
-0.08217 
-0.12155 
-0.15744 
-0.19075 
-0.22276 
-0.25567 
-0.28587 
-0.31058 
-0.33237 
-0.35416 
-0.37156 
-0.38579 
-0.39827 
-0.40777 
-0.41767 
-0.42536 
-0.43099 
-0.43668 
-0.44237 
-0.44838 
-0.45466 
-0.45847 
-0.46216 
-0.46474 
-0.46119 
-0.44547 
-0.40098 
-0.31342 
-0.19288 
-0.054751 
0.085708 
0.22558 
0.35072 
0.45761 
0.54899 
0.6176 
0.66959 
0.70646 
0.72062 
0.7126 
0.67723 
0.62032 
0.5497 
0.47339 
0.39754 
0.32802 
0.26361 
0.20114 
0.14624 
0.095473 
0.048524 
0.004356 
-0.032957 
-0.068913 
-0.10357 
-0.13862 
-0.17115 
-0.20627 
-0.24022 
-0.27126 
-0.29991 
-0.32636 
-0.34854 
-0.3636 
-0.37524 
-0.3843 
-0.3918 
-0.40008 
-0.40855 
-0.41624 
-0.42316 
-0.42672 
-0.43099 
-0.43493 
-0.43603 
-0.43564 
-0.42691 
-0.40803 
-0.36826 
-0.2948 
-0.18525 
-0.053457 
0.084091 
0.21485 
0.3339 
0.43537 
0.52189 
0.59064 
0.6425 
0.67962 
0.69533 
0.68505 
0.65181 
0.59581 
0.52791 
0.45419 
0.38046 
0.31133 
0.2488 
0.19138 
0.1379 
0.089459 
0.044644 
0.0020279 
-0.039036 
-0.076738 
-0.11218 
-0.14626 
-0.1793 
-0.21144 
-0.24119 
-0.26628 
-0.2893 
-0.30631 
-0.31866 
-0.32784 
-0.33774 
-0.34938 
-0.35824 
-0.36871 
-0.37977 
-0.38656 
-0.39387 
-0.40027 
-0.40292 
-0.40532 
-0.40499 
-0.39154 
-0.355 
-0.28128 
-0.17568 
-0.052681 
0.074779 
0.19332 
0.30332 
0.39476 
0.46841 
0.52745 
0.56761 
0.59005 
0.59503 
0.57867 
0.54291 
0.49156 
0.43013 
0.37018 
0.31024 
0.25242 
0.19467 
0.14268 
0.097607 
0.054732 
0.014315 
-0.023451 
-0.05876 
-0.088119 
-0.11612 
-0.14826 
-0.17684 
-0.20484 
-0.2366 
-0.26473 
-0.28678 
-0.30379 
-0.31834 
-0.33011 
-0.34019 
-0.3477 
-0.35662 
-0.36587 
-0.37518 
-0.38087 
-0.38533 
-0.38663 
-0.38184 
-0.36393 
-0.32163 
-0.2428 
-0.13203 
-0.0078663 
0.11979 
0.24279 
0.35233 
0.44332 
0.51646 
0.57531 
0.61631 
0.64159 
0.64515 
0.62704 
0.58811 
0.53095 
0.46518 
0.39909 
0.33494 
0.27512 
0.21588 
0.16085 
0.11242 
0.066566 
0.02408 
-0.017631 
-0.057725 
-0.096332 
-0.13209 
-0.16352 
-0.18926 
-0.21422 
-0.23621 
-0.256 
-0.2754 
-0.29266 
-0.30967 
-0.32577 
-0.33787 
-0.34886 
-0.35985 
-0.37033 
-0.38074 
-0.38992 
-0.3918 
-0.38475 
-0.36147 
-0.30793 
-0.21946 
-0.10357 
0.024662 
0.15529 
0.27881 
0.38758 
0.4796 
0.555 
0.61844 
0.66636 
0.69462 
0.69934 
0.67768 
0.63118 
0.5638 
0.48464 
0.40478 
0.32938 
0.26083 
0.19797 
0.13938 
0.086614 
0.038565 
-0.0059909 
-0.047249 
-0.088248 
-0.12627 
-0.16158 
-0.19527 
-0.22664 
-0.25296 
-0.27837 
-0.30392 
-0.32422 
-0.33825 
-0.34867 
-0.35811 
-0.36994 
-0.37835 
-0.38844 
-0.39807 
-0.40848 
-0.41728 
-0.42135 
-0.42426 
-0.42349 
-0.41036 
-0.37052 
-0.29085 
-0.17891 
-0.048995 
0.084932 
0.21524 
0.33319 
0.43297 
0.51452 
0.58029 
0.63125 
0.66235 
0.67645 
0.66668 
0.62905 
0.56781 
0.48956 
0.41105 
0.33694 
0.26762 
0.20534 
0.14617 
0.091076 
0.04154 
-0.0038569 
-0.044986 
-0.082881 
-0.11864 
-0.15279 
-0.18279 
-0.21241 
-0.24041 
-0.26389 
-0.28574 
-0.30527 
-0.32429 
-0.3391 
-0.35132 
-0.36276 
-0.3735 
-0.38391 
-0.39193 
-0.39975 
-0.40557 
-0.40758 
-0.40823 
-0.40059 
-0.3735 
-0.31387 
-0.22353 
-0.10862 
0.017484 
0.14081 
0.25307 
0.35201 
0.43634 
0.50476 
0.55552 
0.5865 
0.59555 
0.5832 
0.55035 
0.49777 
0.43213 
0.36262 
0.29724 
0.23703 
0.17935 
0.12606 
0.078401 
0.035073 
-0.0050209 
-0.044016 
-0.080876 
-0.11515 
-0.14865 
-0.18195 
-0.21151 
-0.23802 
-0.25962 
-0.27695 
-0.29215 
-0.30805 
-0.32299 
-0.3391 
-0.35255 
-0.36438 
-0.37531 
-0.38507 
-0.39393 
-0.39853 
-0.39613 
-0.38236 
-0.33948 
-0.25703 
-0.14335 
-0.011552 
0.12257 
0.24874 
0.36352 
0.46111 
0.54291 
0.60661 
0.65317 
0.68123 
0.68537 
0.66164 
0.61185 
0.54116 
0.46408 
0.38751 
0.31728 
0.25216 
0.19241 
0.13783 
0.08726 
0.038307 
-0.0076076 
-0.048025 
-0.087343 
-0.12698 
-0.16106 
-0.19223 
-0.22373 
-0.25134 
-0.27617 
-0.29868 
-0.32105 
-0.34129 
-0.35895 
-0.37208 
-0.38591 
-0.39749 
-0.40823 
-0.41702 
-0.42543 
-0.43332 
-0.43558 
-0.42937 
-0.41198 
-0.37091 
-0.29376 
-0.18137 
-0.048995 
0.090623 
0.22319 
0.34367 
0.44895 
0.53761 
0.61068 
0.66694 
0.704 
0.71894 
0.70633 
0.66035 
0.58915 
0.50909 
0.42696 
0.34658 
0.27273 
0.20722 
0.14714 
0.094374 
0.044127 
-0.0019168 
-0.044662 
-0.084627 
-0.12336 
-0.15906 
-0.19146 
-0.22088 
-0.24856 
-0.27514 
-0.30004 
-0.32267 
-0.34278 
-0.35804 
-0.36891 
-0.379 
-0.38876 
-0.3982 
-0.40907 
-0.41954 
-0.42892 
-0.43655 
-0.44159 
-0.44522 
-0.44515 
-0.4394 
-0.42161 
-0.37589 
-0.28775 
-0.16701 
-0.029013 
0.11183 
0.24641 
0.36494 
0.46621 
0.55248 
0.62077 
0.67289 
0.70717 
0.71978 
0.70245 
0.65802 
0.59186 
0.51659 
0.43989 
0.36423 
0.29277 
0.22992 
0.17062 
0.115 
0.063268 
0.016126 
-0.027849 
-0.068007 
-0.10674 
-0.14535 
-0.1782 
-0.20775 
-0.23686 
-0.26356 
-0.2873 
-0.30851 
-0.32623 
-0.33819 
-0.3508 
-0.36393 
-0.37647 
-0.3887 
-0.40312 
-0.41437 
-0.42239 
-0.42898 
-0.43409 
-0.43416 
-0.43493 
-0.42872 
-0.40525 
-0.34692 
-0.25037 
-0.12589 
0.01231 
0.15148 
0.27952 
0.39075 
0.4849 
0.55914 
0.61592 
0.65627 
0.67432 
0.66908 
0.63888 
0.58488 
0.51549 
0.44015 
0.36572 
0.29698 
0.23412 
0.17948 
0.12832 
0.078789 
0.031193 
-0.013816 
-0.056238 
-0.09575 
-0.13591 
-0.17471 
-0.20905 
-0.23944 
-0.26718 
-0.28982 
-0.31168 
-0.3303 
-0.34524 
-0.35882 
-0.37259 
-0.38372 
-0.39439 
-0.40389 
-0.41036 
-0.41631 
-0.41851 
-0.41812 
-0.41547 
-0.40266 
-0.37046 
-0.31012 
-0.21131 
-0.087343 
0.04639 
0.17618 
0.2951 
0.39385 
0.47223 
0.53101 
0.57117 
0.59296 
0.59671 
0.57899 
0.54129 
0.49027 
0.42981 
0.36714 
0.30584 
0.24777 
0.19157 
0.13984 
0.091593 
0.048977 
0.0083007 
-0.030565 
-0.067749 
-0.1037 
-0.13714 
-0.16676 
-0.19256 
-0.21694 
-0.23834 
-0.25852 
-0.27688 
-0.29376 
-0.30864 
-0.32202 
-0.3345 
-0.34692 
-0.35733 
-0.36703 
-0.37537 
-0.37815 
-0.37447 
-0.36335 
-0.33198 
-0.26621 
-0.16482 
-0.039554 
0.095344 
0.22837 
0.35033 
0.45794 
0.54873 
0.62096 
0.67865 
0.71771 
0.73407 
0.72243 
0.68317 
0.61948 
0.54246 
0.46149 
0.37962 
0.30422 
0.23923 
0.17961 
0.1214 
0.06773 
0.01826 
-0.026879 
-0.068977 
-0.11056 
-0.14988 
-0.19062 
-0.22599 
-0.2569 
-0.28568 
-0.30883 
-0.32862 
-0.34977 
-0.36761 
-0.38346 
-0.39633 
-0.40719 
-0.41928 
-0.42911 
-0.43597 
-0.44075 
-0.44224 
-0.43927 
-0.41799 
-0.36257 
-0.26557 
-0.13966 
0.0037739 
0.14553 
0.27874 
0.39935 
0.50295 
0.58805 
0.65453 
0.70083 
0.72948 
0.73265 
0.70322 
0.6458 
0.57085 
0.4893 
0.40685 
0.32847 
0.25553 
0.18911 
0.12781 
0.070382 
0.019941 
-0.02856 
-0.071887 
-0.11095 
-0.14845 
-0.18622 
-0.22489 
-0.26072 
-0.29389 
-0.32215 
-0.34595 
-0.36542 
-0.38365 
-0.3982 
-0.4112 
-0.42265 
-0.43448 
-0.44573 
-0.45517 
-0.46397 
-0.4696 
-0.47302 
-0.47703 
-0.47781 
-0.46753 
-0.43041 
-0.3519 
-0.23433 
-0.093293 
0.054538 
0.1981 
0.32854 
0.44248 
0.5356 
0.60648 
0.66015 
0.69456 
0.70775 
0.6954 
0.65647 
0.59613 
0.5217 
0.44248 
0.36339 
0.29168 
0.22293 
0.15878 
0.10278 
0.052081 
0.0029333 
-0.045826 
-0.089736 
-0.12679 
-0.16507 
-0.20135 
-0.23427 
-0.26518 
-0.29105 
-0.31193 
-0.33334 
-0.35099 
-0.36587 
-0.37887 
-0.39296 
-0.40687 
-0.41793 
-0.42911 
-0.43875 
-0.4458 
-0.45104 
-0.45492 
-0.45737 
-0.45466 
-0.44101 
-0.40286 
-0.32273 
-0.20685 
-0.070141 
0.072645 
0.21213 
0.33623 
0.44002 
0.52532 
0.59367 
0.64315 
0.67128 
0.67671 
0.65996 
0.61889 
0.55804 
0.48658 
0.41357 
0.34115 
0.27402 
0.21369 
0.15697 
0.10388 
0.054215 
0.007072 
-0.036708 
-0.077514 
-0.11748 
-0.15415 
-0.19204 
-0.22838 
-0.26027 
-0.28988 
-0.31562 
-0.33431 
-0.35196 
-0.36703 
-0.37822 
-0.38831 
-0.39691 
-0.40641 
-0.41708 
-0.42678 
-0.42931 
-0.43235 
-0.43118 
-0.41902 
-0.38688 
-0.32105 
-0.21991 
-0.094263 
0.041411 
0.1745 
0.29329 
0.39165 
0.46984 
0.53121 
0.57427 
0.59846 
0.60169 
0.58068 
0.53644 
0.47721 
0.41196 
0.34367 
0.27887 
0.22041 
0.16577 
0.11487 
0.0698 
0.028606 
-0.013622 
-0.055009 
-0.094392 
-0.12757 
-0.1588 
-0.1879 
-0.21558 
-0.24099 
-0.26149 
-0.28206 
-0.30049 
-0.31885 
-0.33703 
-0.35112 
-0.36296 
-0.37447 
-0.38462 
-0.39568 
-0.40506 
-0.41088 
-0.41178 
-0.40706 
-0.3843 
-0.32855 
-0.23278 
-0.10817 
0.030352 
0.17152 
0.30312 
0.41939 
0.51821 
0.59768 
0.65957 
0.70646 
0.734 
0.73504 
0.70852 
0.65194 
0.5746 
0.49169 
0.40937 
0.33106 
0.25979 
0.19351 
0.13473 
0.082992 
0.033715 
-0.012716 
-0.056173 
-0.096655 
-0.13526 
-0.17141 
-0.20685 
-0.24171 
-0.27275 
-0.30114 
-0.32519 
-0.34401 
-0.35953 
-0.37531 
-0.39135 
-0.40215 
-0.41482 
-0.42594 
-0.43422 
-0.44172 
-0.44709 
-0.45019 
-0.44748 
-0.43687 
-0.41101 
-0.34957 
-0.24882 
-0.11903 
0.024597 
0.16835 
0.29944 
0.41332 
0.50877 
0.58863 
0.64838 
0.68861 
0.70924 
0.70743 
0.67839 
0.61974 
0.54323 
0.45994 
0.37717 
0.29963 
0.22875 
0.16609 
0.10892 
0.058354 
0.011275 
-0.03535 
-0.07635 
-0.11347 
-0.15117 
-0.1881 
-0.22437 
-0.25852 
-0.28891 
-0.31782 
-0.34446 
-0.36619 
-0.38378 
-0.39917 
-0.41223 
-0.42245 
-0.43112 
-0.43855 
-0.44528 
-0.45226 
-0.45789 
-0.46235 
-0.46429 
-0.45964 
-0.44399 
-0.40389 
-0.32293 
-0.20556 
-0.070465 
0.067989 
0.20017 
0.31851 
0.41855 
0.50133 
0.56425 
0.60745 
0.6317 
0.6359 
0.61392 
0.56923 
0.50754 
0.43711 
0.36533 
0.29685 
0.2327 
0.1745 
0.11908 
0.068118 
0.019941 
-0.024098 
-0.063545 
-0.099953 
-0.13274 
-0.16385 
-0.19165 
-0.21978 
-0.24546 
-0.26906 
-0.29034 
-0.30715 
-0.3228 
-0.33884 
-0.35002 
-0.36335 
-0.37699 
-0.38882 
-0.40008 
-0.40842 
-0.41114 
-0.40868 
-0.39969 
-0.37149 
-0.31129 
-0.21254 
-0.088378 
0.046131 
0.18064 
0.30351 
0.40989 
0.50113 
0.5733 
0.62459 
0.66041 
0.67858 
0.67483 
0.64101 
0.58449 
0.51349 
0.4366 
0.36093 
0.28928 
0.22255 
0.16085 
0.1077 
0.058612 
0.01425 
-0.028431 
-0.069236 
-0.10745 
-0.14664 
-0.18189 
-0.21383 
-0.24597 
-0.27624 
-0.29881 
-0.31814 
-0.33664 
-0.35423 
-0.37259 
-0.38818 
-0.40344 
-0.41624 
-0.42814 
-0.43642 
-0.44308 
-0.44709 
-0.44366 
-0.42607 
-0.38527 
-0.30728 
-0.19896 
-0.070077 
0.067342 
0.19804 
0.31812 
0.42392 
0.51297 
0.5841 
0.63616 
0.6725 
0.68596 
0.6716 
0.62717 
0.56102 
0.48148 
0.40077 
0.32323 
0.25242 
0.19228 
0.13324 
0.077107 
0.028412 
-0.01498 
-0.055009 
-0.092323 
-0.1277 
-0.16488 
-0.20161 
-0.2342 
-0.26434 
-0.29318 
-0.31937 
-0.34388 
-0.36587 
-0.38352 
-0.396 
-0.40557 
-0.41579 
-0.42685 
-0.43552 
-0.43823 
-0.4414 
-0.44644 
-0.45097 
-0.45375 
-0.45543 
-0.4511 
-0.43571 
-0.3984 
-0.32112 
-0.21066 
-0.081264 
0.052598 
0.18303 
0.30125 
0.40316 
0.48594 
0.5497 
0.59807 
0.63054 
0.64211 
0.63008 
0.59827 
0.54834 
0.48555 
0.41707 
0.3482 
0.28165 
0.21815 
0.16234 
0.11086 
0.063204 
0.019553 
-0.017372 
-0.052422 
-0.088766 
-0.12698 
-0.16475 
-0.19747 
-0.22838 
-0.25399 
-0.27656 
-0.29726 
-0.31446 
-0.32855 
-0.34129 
-0.35481 
-0.3658 
-0.37279 
-0.37925 
-0.38462 
-0.39005 
-0.39613 
-0.40021 
-0.39988 
-0.3973 
-0.38223 
-0.33838 
-0.25826 
-0.14703 
-0.018989 
0.11306 
0.2391 
0.35188 
0.44785 
0.52616 
0.58915 
0.63681 
0.6641 
0.67173 
0.65692 
0.61883 
0.56102 
0.49473 
0.42812 
0.36313 
0.30138 
0.23981 
0.18336 
0.13317 
0.086549 
0.041152 
-0.00062348 
-0.039489 
-0.07635 
-0.10959 
-0.13966 
-0.16921 
-0.19728 
-0.2245 
-0.24901 
-0.27158 
-0.2893 
-0.30566 
-0.32079 
-0.33308 
-0.34382 
-0.35416 
-0.35979 
-0.36516 
-0.36593 
-0.35707 
-0.32771 
-0.26169 
-0.16249 
-0.041946 
0.085579 
0.20709 
0.31722 
0.41235 
0.49215 
0.55533 
0.60098 
0.62653 
0.62898 
0.60667 
0.55765 
0.49118 
0.41907 
0.34794 
0.27971 
0.21595 
0.15865 
0.10621 
0.058677 
0.013539 
-0.028043 
-0.069947 
-0.10875 
-0.1458 
-0.18027 
-0.21429 
-0.24552 
-0.27216 
-0.29454 
-0.31478 
-0.33431 
-0.35216 
-0.36529 
-0.37634 
-0.38475 
-0.39296 
-0.39988 
-0.40538 
-0.41017 
-0.40907 
-0.3927 
-0.34711 
-0.26505 
-0.15447 
-0.033216 
0.088489 
0.19952 
0.29743 
0.37814 
0.44015 
0.48477 
0.50844 
0.51122 
0.4937 
0.4549 
0.40362 
0.34619 
0.28734 
0.22888 
0.17456 
0.12302 
0.075555 
0.032551 
-0.0046976 
-0.036514 
-0.068266 
-0.10099 
-0.13125 
-0.1632 
-0.19443 
-0.22263 
-0.24843 
-0.27152 
-0.2926 
-0.31025 
-0.32616 
-0.33871 
-0.34731 
-0.35733 
-0.36613 
-0.37673 
-0.38676 
-0.39594 
-0.40156 
-0.40163 
-0.39665 
-0.37512 
-0.31898 
-0.22444 
-0.10778 
0.015802 
0.1344 
0.24557 
0.34115 
0.41545 
0.471 
0.51219 
0.53838 
0.54407 
0.52881 
0.49363 
0.443 
0.38557 
0.32763 
0.27292 
0.2208 
0.17049 
0.12496 
0.083445 
0.04251 
0.0033859 
-0.033539 
-0.070788 
-0.10733 
-0.1427 
-0.17555 
-0.20788 
-0.23614 
-0.25904 
-0.28135 
-0.2992 
-0.31439 
-0.32952 
-0.34466 
-0.35765 
-0.36742 
-0.37634 
-0.38482 
-0.39219 
-0.39768 
-0.40144 
-0.40072 
-0.39439 
-0.38035 
-0.34395 
-0.27462 
-0.17471 
-0.06167 
0.044967 
0.14352 
0.23037 
0.30273 
0.35796 
0.39721 
0.42392 
0.43724 
0.43731 
0.42166 
0.39107 
0.35311 
0.31496 
0.27544 
0.23554 
0.19655 
0.1573 
0.11934 
0.084673 
0.05027 
0.014573 
-0.018666 
-0.050676 
-0.081264 
-0.10972 
-0.13694 
-0.16288 
-0.18894 
-0.21364 
-0.23731 
-0.25567 
-0.27152 
-0.28736 
-0.30036 
-0.30915 
-0.3195 
-0.32855 
-0.33683 
-0.34136 
-0.34466 
-0.34543 
-0.34019 
-0.32461 
-0.28859 
-0.22211 
-0.13183 
-0.036708 
0.051822 
0.13149 
0.19635 
0.24777 
0.28741 
0.3167 
0.33578 
0.34432 
0.33811 
0.31871 
0.28974 
0.25663 
0.22183 
0.19105 
0.16519 
0.13964 
0.11546 
0.094115 
0.072581 
0.048265 
0.023045 
-0.00088215 
-0.023193 
-0.042981 
-0.064709 
-0.087796 
-0.10952 
-0.12892 
-0.14742 
-0.16346 
-0.18098 
-0.19502 
-0.20905 
-0.22231 
-0.2342 
-0.24494 
-0.25341 
-0.25962 
-0.26641 
-0.2741 
-0.27882 
-0.27591 
-0.25826 
-0.2172 
-0.14723 
-0.061217 
0.026214 
0.10252 
0.16493 
0.21317 
0.25093 
0.27997 
0.29937 
0.3092 
0.31056 
0.29827 
0.27305 
0.24065 
0.20806 
0.17644 
0.14663 
0.11966 
0.09599 
0.076073 
0.059582 
0.043157 
0.026084 
0.009206 
-0.0074783 
-0.02565 
-0.045503 
-0.065097 
-0.082234 
-0.09963 
-0.11625 
-0.12886 
-0.13966 
-0.15039 
-0.16281 
-0.17439 
-0.18616 
-0.19527 
-0.2031 
-0.20937 
-0.21513 
-0.2214 
-0.22819 
-0.23078 
-0.22825 
-0.21008 
-0.1687 
-0.10286 
-0.022029 
0.058224 
0.13001 
0.1853 
0.22869 
0.26154 
0.28366 
0.29484 
0.29678 
0.29161 
0.27596 
0.25113 
0.22177 
0.18937 
0.15794 
0.13227 
0.11086 
0.092563 
0.072516 
0.054215 
0.039212 
0.02589 
0.011469 
-0.0037922 
-0.022869 
-0.041041 
-0.057531 
-0.076285 
-0.095297 
-0.11153 
-0.12246 
-0.13242 
-0.14141 
-0.15007 
-0.15647 
-0.161 
-0.16701 
-0.17561 
-0.1859 
-0.1954 
-0.20239 
-0.21015 
-0.21396 
-0.2117 
-0.20381 
-0.1848 
-0.14069 
-0.073828 
0.0021572 
0.075555 
0.13589 
0.1842 
0.22086 
0.24893 
0.2682 
0.2759 
0.2746 
0.26555 
0.24764 
0.22196 
0.19383 
0.16745 
0.14313 
0.12496 
0.1097 
0.098512 
0.083703 
0.065984 
0.048718 
0.033521 
0.020006 
0.0084947 
-0.0052796 
-0.01983 
-0.033927 
-0.047508 
-0.062575 
-0.078419 
-0.09381 
-0.1081 
-0.12097 
-0.13546 
-0.14807 
-0.15738 
-0.16494 
-0.17109 
-0.176 
-0.18034 
-0.18389 
-0.18383 
-0.17646 
-0.15421 
-0.1083 
-0.042399 
0.032098 
0.102 
0.16227 
0.20981 
0.24233 
0.26613 
0.28198 
0.28961 
0.29135 
0.28579 
0.27247 
0.25281 
0.22507 
0.19694 
0.17333 
0.15309 
0.13453 
0.11655 
0.09903 
0.080405 
0.064044 
0.046131 
0.028671 
0.012892 
-0.0043742 
-0.018795 
-0.033733 
-0.049189 
-0.065227 
-0.082105 
-0.098531 
-0.11334 
-0.12504 
-0.13287 
-0.14419 
-0.15272 
-0.16061 
-0.16811 
-0.17516 
-0.17956 
-0.18525 
-0.19036 
-0.19553 
-0.19967 
-0.19928 
-0.19101 
-0.17329 
-0.133 
-0.070271 
0.0022219 
0.075297 
0.14113 
0.19209 
0.22778 
0.25391 
0.27189 
0.28372 
0.28909 
0.28799 
0.27874 
0.26361 
0.24162 
0.21601 
0.19144 
0.16958 
0.14831 
0.12651 
0.10621 
0.086226 
0.063398 
0.042251 
0.022334 
0.0055846 
-0.011746 
-0.029271 
-0.044533 
-0.0607 
-0.074474 
-0.085662 
-0.095944 
-0.10461 
-0.11573 
-0.12789 
-0.13494 
-0.13785 
-0.14069 
-0.14354 
-0.14638 
-0.15026 
-0.15214 
-0.15421 
-0.15835 
-0.16288 
-0.16701 
-0.17064 
-0.17012 
-0.1652 
-0.14684 
-0.10681 
-0.047637 
0.020329 
0.088424 
0.14365 
0.18853 
0.225 
0.2521 
0.26949 
0.28081 
0.28579 
0.28307 
0.26658 
0.24201 
0.2133 
0.18465 
0.15613 
0.13227 
0.11183 
0.094632 
0.08047 
0.06689 
0.051111 
0.035203 
0.020846 
0.006102 
-0.0065083 
-0.020089 
-0.033281 
-0.046538 
-0.058372 
-0.073181 
-0.087602 
-0.10118 
-0.11056 
-0.11677 
-0.1242 
-0.13145 
-0.13875 
-0.14541 
-0.15376 
-0.16106 
-0.17031 
-0.17607 
-0.17827 
-0.17516 
-0.16598 
-0.14613 
-0.10312 
-0.040071 
0.029124 
0.097154 
0.15982 
0.20994 
0.24796 
0.27738 
0.29762 
0.31108 
0.31774 
0.31547 
0.30409 
0.28204 
0.2543 
0.22513 
0.19771 
0.1734 
0.15219 
0.13123 
0.11073 
0.093792 
0.079241 
0.06482 
0.047554 
0.029318 
0.010758 
-0.0063143 
-0.022675 
-0.037937 
-0.052487 
-0.06846 
-0.082234 
-0.096332 
-0.11075 
-0.12433 
-0.13688 
-0.14923 
-0.16094 
-0.17115 
-0.17684 
-0.18344 
-0.18855 
-0.1932 
-0.19605 
-0.20025 
-0.20659 
-0.21345 
-0.21739 
-0.21454 
-0.20284 
-0.17775 
-0.12841 
-0.058307 
0.017484 
0.09017 
0.15529 
0.20877 
0.25281 
0.28592 
0.30836 
0.32466 
0.33255 
0.33119 
0.31832 
0.29562 
0.26626 
0.23535 
0.20644 
0.17967 
0.15723 
0.13835 
0.11979 
0.1031 
0.085514 
0.068312 
0.05331 
0.037725 
0.019682 
0.0020279 
-0.015174 
-0.033733 
-0.051194 
-0.069107 
-0.086179 
-0.10286 
-0.11935 
-0.13352 
-0.14496 
-0.15499 
-0.16339 
-0.17109 
-0.17717 
-0.18208 
-0.18544 
-0.19017 
-0.1956 
-0.19915 
-0.20213 
-0.20497 
-0.20685 
-0.20666 
-0.19663 
-0.16941 
-0.12362 
-0.058243 
0.014573 
0.085061 
0.14488 
0.19532 
0.23548 
0.26742 
0.29284 
0.30752 
0.31547 
0.31179 
0.30053 
0.28049 
0.25501 
0.23128 
0.20651 
0.18226 
0.16143 
0.13971 
0.12037 
0.10252 
0.083186 
0.06385 
0.045161 
0.025438 
0.0060373 
-0.013622 
-0.03244 
-0.052228 
-0.068331 
-0.085791 
-0.09963 
-0.11334 
-0.12524 
-0.13533 
-0.14386 
-0.15492 
-0.16449 
-0.17393 
-0.18544 
-0.19482 
-0.19993 
-0.20342 
-0.2073 
-0.21118 
-0.20801 
-0.19256 
-0.15395 
-0.091223 
-0.016402 
0.061005 
0.13524 
0.2014 
0.25559 
0.29834 
0.33112 
0.35544 
0.3727 
0.37794 
0.37128 
0.35453 
0.32673 
0.29433 
0.26335 
0.23386 
0.20709 
0.18174 
0.15523 
0.12994 
0.10511 
0.080535 
0.055185 
0.029964 
0.006878 
-0.018407 
-0.045568 
-0.07428 
-0.098531 
-0.11929 
-0.13662 
-0.15253 
-0.16585 
-0.17943 
-0.19101 
-0.19935 
-0.20931 
-0.22017 
-0.23272 
-0.24597 
-0.25807 
-0.26906 
-0.28096 
-0.29312 
-0.30521 
-0.31808 
-0.32868 
-0.33567 
-0.33043 
-0.30081 
-0.24048 
-0.15835 
-0.066973 
0.02117 
0.10084 
0.16519 
0.2186 
0.25714 
0.28243 
0.2951 
0.29556 
0.28598 
0.26607 
0.23613 
0.2003 
0.16667 
0.13492 
0.10446 
0.079241 
0.05803 
0.038177 
0.019294 
0.0014459 
-0.015691 
-0.035156 
-0.059989 
-0.085338 
-0.11056 
-0.13423 
-0.15757 
-0.17969 
-0.20012 
-0.21927 
-0.23595 
-0.24727 
-0.25561 
-0.26233 
-0.26841 
-0.27546 
-0.28128 
-0.28367 
-0.28613 
-0.2873 
-0.28549 
-0.28245 
-0.28018 
-0.28083 
-0.27598 
-0.25981 
-0.22573 
-0.16352 
-0.080165 
0.012245 
0.10524 
0.19015 
0.2638 
0.32343 
0.3676 
0.3998 
0.42315 
0.43718 
0.43938 
0.42994 
0.40905 
0.37691 
0.33908 
0.30092 
0.26303 
0.22927 
0.20043 
0.17424 
0.14999 
0.12561 
0.10233 
0.077754 
0.052534 
0.02589 
-0.0001708 
-0.024227 
-0.046796 
-0.06846 
-0.086308 
-0.1061 
-0.12504 
-0.14386 
-0.16152 
-0.17432 
-0.18557 
-0.19346 
-0.20142 
-0.20724 
-0.21364 
-0.21985 
-0.22366 
-0.2267 
-0.22832 
-0.23136 
-0.23407 
-0.23556 
-0.23524 
-0.22664 
-0.19799 
-0.14121 
-0.062769 
0.027636 
0.11966 
0.20289 
0.27066 
0.32543 
0.37135 
0.40271 
0.42295 
0.43407 
0.43071 
0.41209 
0.38273 
0.34716 
0.30965 
0.27551 
0.2424 
0.20871 
0.18045 
0.154 
0.12645 
0.10103 
0.077431 
0.055185 
0.033909 
0.011017 
-0.009871 
-0.030823 
-0.055785 
-0.078484 
-0.09963 
-0.11741 
-0.13326 
-0.14684 
-0.16145 
-0.17445 
-0.18422 
-0.1901 
-0.19915 
-0.20931 
-0.21823 
-0.22638 
-0.23188 
-0.23834 
-0.24436 
-0.24895 
-0.25056 
-0.25076 
-0.24339 
-0.22334 
-0.17956 
-0.10661 
-0.017502 
0.078013 
0.16816 
0.24938 
0.31767 
0.3718 
0.41493 
0.4452 
0.46175 
0.46867 
0.46434 
0.44526 
0.41655 
0.38021 
0.33985 
0.30099 
0.26439 
0.22927 
0.19739 
0.16926 
0.14307 
0.11668 
0.087972 
0.05997 
0.034491 
0.0097234 
-0.017372 
-0.042981 
-0.067425 
-0.092258 
-0.11541 
-0.13416 
-0.15175 
-0.16766 
-0.18273 
-0.19683 
-0.21021 
-0.22172 
-0.22877 
-0.23356 
-0.24112 
-0.25005 
-0.25742 
-0.26544 
-0.27262 
-0.27792 
-0.2787 
-0.26835 
-0.24313 
-0.19243 
-0.11625 
-0.028689 
0.060229 
0.1441 
0.21841 
0.27713 
0.32466 
0.361 
0.38622 
0.39611 
0.39398 
0.38046 
0.3544 
0.32019 
0.28191 
0.24602 
0.21239 
0.18161 
0.15445 
0.1271 
0.10129 
0.076396 
0.052469 
0.028865 
0.0042266 
-0.021382 
-0.046667 
-0.070465 
-0.095621 
-0.12 
-0.14192 
-0.16275 
-0.18234 
-0.19999 
-0.21131 
-0.22276 
-0.23323 
-0.24067 
-0.25115 
-0.26136 
-0.27074 
-0.28012 
-0.28788 
-0.29118 
-0.29273 
-0.2904 
-0.27947 
-0.25257 
-0.1987 
-0.11722 
-0.021059 
0.075491 
0.16596 
0.24686 
0.31528 
0.3696 
0.41002 
0.43873 
0.45729 
0.46195 
0.44959 
0.42321 
0.38609 
0.34373 
0.30338 
0.26613 
0.22849 
0.19422 
0.16273 
0.13162 
0.098836 
0.068895 
0.038824 
0.0081714 
-0.022223 
-0.05378 
-0.085144 
-0.11463 
-0.14056 
-0.16591 
-0.18978 
-0.21267 
-0.23039 
-0.24649 
-0.26104 
-0.27333 
-0.28348 
-0.29144 
-0.30094 
-0.30909 
-0.31316 
-0.31672 
-0.32034 
-0.32623 
-0.32901 
-0.33256 
-0.33302 
-0.32752 
-0.30915 
-0.26861 
-0.19566 
-0.10228 
0.00054054 
0.1022 
0.19668 
0.27751 
0.34076 
0.38919 
0.4236 
0.44313 
0.45089 
0.44352 
0.4236 
0.3932 
0.35744 
0.31735 
0.27926 
0.24311 
0.20761 
0.17708 
0.15096 
0.12561 
0.099224 
0.072904 
0.046649 
0.019488 
-0.009095 
-0.038066 
-0.064839 
-0.091029 
-0.11521 
-0.13746 
-0.16009 
-0.18085 
-0.19844 
-0.21584 
-0.22929 
-0.24151 
-0.25199 
-0.2602 
-0.26964 
-0.27876 
-0.28775 
-0.29661 
-0.3065 
-0.31323 
-0.31678 
-0.31232 
-0.29603 
-0.25567 
-0.18641 
-0.092905 
0.010823 
0.11326 
0.21142 
0.29717 
0.36656 
0.42043 
0.45839 
0.48393 
0.49713 
0.49958 
0.48891 
0.46324 
0.42703 
0.38525 
0.34257 
0.3017 
0.26361 
0.22759 
0.19254 
0.15943 
0.12606 
0.090429 
0.053892 
0.018648 
-0.014333 
-0.046926 
-0.081911 
-0.11315 
-0.14354 
-0.17199 
-0.19857 
-0.22205 
-0.24384 
-0.26356 
-0.28031 
-0.29344 
-0.30741 
-0.32066 
-0.33114 
-0.33838 
-0.34492 
-0.35002 
-0.35293 
-0.35571 
-0.35817 
-0.35843 
-0.35436 
-0.34104 
-0.30178 
-0.22696 
-0.12795 
-0.016014 
0.091399 
0.1875 
0.26975 
0.33571 
0.38797 
0.42547 
0.44966 
0.46026 
0.45716 
0.43466 
0.40129 
0.36275 
0.32155 
0.28185 
0.24589 
0.21142 
0.18032 
0.15063 
0.11895 
0.086808 
0.055832 
0.02602 
-0.0037922 
-0.030953 
-0.056755 
-0.082687 
-0.11062 
-0.13746 
-0.16229 
-0.18512 
-0.20517 
-0.22056 
-0.2342 
-0.24688 
-0.25852 
-0.26796 
-0.27727 
-0.28865 
-0.29861 
-0.30586 
-0.31375 
-0.32002 
-0.32493 
-0.32694 
-0.31704 
-0.2851 
-0.22425 
-0.13578 
-0.030759 
0.079565 
0.18148 
0.27189 
0.34723 
0.40478 
0.44591 
0.47326 
0.48678 
0.4829 
0.46382 
0.42942 
0.38454 
0.33662 
0.28631 
0.24123 
0.20017 
0.1615 
0.12632 
0.093339 
0.061716 
0.032874 
0.0037739 
-0.025844 
-0.055591 
-0.084433 
-0.11114 
-0.1361 
-0.16068 
-0.1848 
-0.20465 
-0.22179 
-0.23576 
-0.24552 
-0.25619 
-0.26751 
-0.27824 
-0.2882 
-0.29603 
-0.30185 
-0.30663 
-0.31433 
-0.3195 
-0.32144 
-0.3195 
-0.30165 
-0.26059 
-0.18732 
-0.086955 
0.027184 
0.13977 
0.24486 
0.33546 
0.41047 
0.47087 
0.51737 
0.55261 
0.57324 
0.57628 
0.56296 
0.53399 
0.49422 
0.45005 
0.40239 
0.35305 
0.30745 
0.26083 
0.21252 
0.16383 
0.11849 
0.074133 
0.031452 
-0.0080603 
-0.045956 
-0.08314 
-0.12019 
-0.1546 
-0.18402 
-0.2106 
-0.23317 
-0.25464 
-0.27462 
-0.28975 
-0.30023 
-0.30831 
-0.31853 
-0.33069 
-0.34123 
-0.34944 
-0.35817 
-0.3669 
-0.37324 
-0.37887 
-0.37971 
-0.38094 
-0.37492 
-0.35578 
-0.3098 
-0.23207 
-0.12957 
-0.017696 
0.094568 
0.19745 
0.2865 
0.3619 
0.41978 
0.46149 
0.48949 
0.50217 
0.49428 
0.4688 
0.43006 
0.38422 
0.33798 
0.29148 
0.24608 
0.20069 
0.15536 
0.11261 
0.072645 
0.031064 
-0.010712 
-0.051388 
-0.090124 
-0.12776 
-0.163 
-0.19508 
-0.22405 
-0.24824 
-0.2679 
-0.28639 
-0.30198 
-0.31038 
-0.31756 
-0.32345 
-0.33088 
-0.3389 
-0.34873 
-0.35591 
-0.36147 
-0.36522 
-0.36736 
-0.36761 
-0.36684 
-0.36496 
-0.35901 
-0.34149 
-0.3023 
-0.22593 
-0.12213 
-0.0052796 
0.11151 
0.21964 
0.31515 
0.39637 
0.46311 
0.51168 
0.54446 
0.56134 
0.56755 
0.55862 
0.53424 
0.49674 
0.45347 
0.40931 
0.36624 
0.32537 
0.28463 
0.24117 
0.1972 
0.15393 
0.11216 
0.072322 
0.032874 
-0.0067669 
-0.042722 
-0.075186 
-0.10429 
-0.13164 
-0.15803 
-0.1835 
-0.20976 
-0.23259 
-0.25231 
-0.26867 
-0.28374 
-0.29965 
-0.31271 
-0.32235 
-0.32888 
-0.33657 
-0.34233 
-0.34459 
-0.34828 
-0.35099 
-0.3528 
-0.34757 
-0.32383 
-0.26596 
-0.17477 
-0.063998 
0.050982 
0.16053 
0.2607 
0.34651 
0.41674 
0.47042 
0.50786 
0.53153 
0.53935 
0.53263 
0.50999 
0.47637 
0.43453 
0.38926 
0.34244 
0.29349 
0.24557 
0.20004 
0.15768 
0.11604 
0.077689 
0.03766 
-0.0020462 
-0.041235 
-0.076479 
-0.1092 
-0.14056 
-0.17186 
-0.19974 
-0.22496 
-0.24947 
-0.27055 
-0.28969 
-0.30495 
-0.3164 
-0.32519 
-0.33716 
-0.35015 
-0.35875 
-0.36645 
-0.37149 
-0.37305 
-0.37343 
-0.36658 
-0.34905 
-0.30683 
-0.22935 
-0.12336 
-0.0056029 
0.11235 
0.2217 
0.31832 
0.39954 
0.46621 
0.51659 
0.55138 
0.57039 
0.57201 
0.55662 
0.5283 
0.48639 
0.43808 
0.38396 
0.32621 
0.26859 
0.21155 
0.15626 
0.10576 
0.057901 
0.013021 
-0.026426 
-0.061864 
-0.096655 
-0.12686 
-0.15667 
-0.18609 
-0.21228 
-0.23905 
-0.26583 
-0.29098 
-0.3129 
-0.32998 
-0.34278 
-0.35481 
-0.36406 
-0.37065 
-0.37531 
-0.3766 
-0.37874 
-0.38423 
-0.38708 
-0.38915 
-0.3918 
-0.39141 
-0.38566 
-0.36897 
-0.32577 
-0.24429 
-0.1374 
-0.020283 
0.096314 
0.2067 
0.30247 
0.37924 
0.43698 
0.47798 
0.5043 
0.51653 
0.51148 
0.48917 
0.45638 
0.41584 
0.37348 
0.32918 
0.28579 
0.24117 
0.19752 
0.15581 
0.11714 
0.078789 
0.038889 
-0.00042947 
-0.035867 
-0.067296 
-0.09672 
-0.12892 
-0.15977 
-0.18648 
-0.21054 
-0.23032 
-0.24597 
-0.26188 
-0.27514 
-0.2862 
-0.29738 
-0.31129 
-0.325 
-0.33412 
-0.34239 
-0.35074 
-0.35591 
-0.35604 
-0.34892 
-0.32978 
-0.28581 
-0.20517 
-0.10189 
0.011663 
0.1247 
0.22946 
0.32388 
0.402 
0.46369 
0.50838 
0.53935 
0.55604 
0.55539 
0.5345 
0.50101 
0.45755 
0.40937 
0.35511 
0.30254 
0.25178 
0.20095 
0.15296 
0.10563 
0.061522 
0.019747 
-0.01886 
-0.057014 
-0.093228 
-0.1288 
-0.16171 
-0.19256 
-0.22237 
-0.24862 
-0.27203 
-0.29156 
-0.30708 
-0.31937 
-0.33127 
-0.34188 
-0.35274 
-0.36231 
-0.37188 
-0.37731 
-0.38255 
-0.38941 
-0.39413 
-0.3995 
-0.39969 
-0.38908 
-0.36205 
-0.30314 
-0.20969 
-0.094974 
0.027054 
0.14624 
0.25591 
0.35143 
0.43129 
0.49318 
0.53916 
0.56891 
0.58262 
0.57971 
0.55869 
0.52151 
0.47262 
0.42108 
0.36727 
0.31224 
0.25921 
0.20767 
0.15775 
0.11274 
0.070964 
0.030676 
-0.009677 
-0.048801 
-0.087472 
-0.12627 
-0.16178 
-0.19359 
-0.22127 
-0.24442 
-0.26395 
-0.28393 
-0.30333 
-0.31795 
-0.33017 
-0.34 
-0.34828 
-0.35513 
-0.36121 
-0.36658 
-0.37208 
-0.3766 
-0.38061 
-0.3852 
-0.38365 
-0.37654 
-0.36147 
-0.32228 
-0.24462 
-0.13753 
-0.019183 
0.094503 
0.20043 
0.29135 
0.36675 
0.42677 
0.4699 
0.4981 
0.51213 
0.5065 
0.48568 
0.45095 
0.40711 
0.35958 
0.31166 
0.26587 
0.22364 
0.18478 
0.14637 
0.10634 
0.069089 
0.032486 
-0.0026282 
-0.035415 
-0.06846 
-0.10086 
-0.13074 
-0.15945 
-0.18654 
-0.21163 
-0.23336 
-0.25121 
-0.26874 
-0.28464 
-0.29952 
-0.31439 
-0.32325 
-0.33231 
-0.34013 
-0.34595 
-0.35533 
-0.36367 
-0.37098 
-0.37434 
-0.36891 
-0.34634 
-0.29189 
-0.20265 
-0.091482 
0.027442 
0.1476 
0.25947 
0.36003 
0.44539 
0.51374 
0.56483 
0.60046 
0.61915 
0.62116 
0.60577 
0.57026 
0.52273 
0.46667 
0.40653 
0.346 
0.28683 
0.23218 
0.18038 
0.13259 
0.087519 
0.046972 
0.007072 
-0.031664 
-0.069107 
-0.10416 
-0.13778 
-0.16857 
-0.1976 
-0.22677 
-0.2547 
-0.28012 
-0.30217 
-0.32086 
-0.33761 
-0.35041 
-0.35895 
-0.36626 
-0.37382 
-0.38197 
-0.38798 
-0.39471 
-0.40027 
-0.40331 
-0.40467 
-0.40228 
-0.39206 
-0.36412 
-0.3032 
-0.20872 
-0.089736 
0.03572 
0.15548 
0.2638 
0.3579 
0.4364 
0.49771 
0.53948 
0.56613 
0.57919 
0.57201 
0.54802 
0.51271 
0.46531 
0.41377 
0.36113 
0.31069 
0.26089 
0.21 
0.1635 
0.11966 
0.0795 
0.040958 
0.0016399 
-0.036967 
-0.073246 
-0.10616 
-0.13772 
-0.16637 
-0.19295 
-0.21713 
-0.24145 
-0.26208 
-0.27805 
-0.29202 
-0.30366 
-0.31355 
-0.32196 
-0.33308 
-0.34407 
-0.35067 
-0.3574 
-0.36574 
-0.37201 
-0.37706 
-0.37712 
-0.36574 
-0.32901 
-0.25865 
-0.15867 
-0.040524 
0.082604 
0.19797 
0.30131 
0.38991 
0.46104 
0.5184 
0.55979 
0.5841 
0.59277 
0.58346 
0.55487 
0.51193 
0.46111 
0.40575 
0.34813 
0.29109 
0.23613 
0.18685 
0.14003 
0.093662 
0.049171 
0.0069427 
-0.03244 
-0.070982 
-0.10752 
-0.14483 
-0.1784 
-0.21047 
-0.2397 
-0.2655 
-0.28426 
-0.29881 
-0.31219 
-0.32539 
-0.3391 
-0.35358 
-0.36574 
-0.37466 
-0.38042 
-0.38798 
-0.39426 
-0.39704 
-0.39536 
-0.38288 
-0.3475 
-0.27792 
-0.17652 
-0.059213 
0.063656 
0.18316 
0.29161 
0.3846 
0.45554 
0.51168 
0.55306 
0.57964 
0.58967 
0.58093 
0.55332 
0.50954 
0.45658 
0.39773 
0.33759 
0.27984 
0.22565 
0.17398 
0.12858 
0.086226 
0.045679 
0.0051966 
-0.032181 
-0.067813 
-0.10183 
-0.13306 
-0.16404 
-0.19333 
-0.22134 
-0.24701 
-0.269 
-0.2882 
-0.30793 
-0.32338 
-0.33534 
-0.34323 
-0.35074 
-0.35927 
-0.36522 
-0.36878 
-0.37007 
-0.37324 
-0.3777 
-0.38113 
-0.38268 
-0.38132 
-0.37143 
-0.34246 
-0.2787 
-0.18195 
-0.064774 
0.058354 
0.17986 
0.29316 
0.39404 
0.47714 
0.54511 
0.59691 
0.63099 
0.64909 
0.64586 
0.62349 
0.58443 
0.53082 
0.46796 
0.40271 
0.34063 
0.28075 
0.22319 
0.17029 
0.12134 
0.077754 
0.035267 
-0.0041802 
-0.043822 
-0.081394 
-0.11612 
-0.14768 
-0.17762 
-0.20678 
-0.22955 
-0.25205 
-0.27346 
-0.29221 
-0.30683 
-0.32202 
-0.33948 
-0.35623 
-0.37033 
-0.38113 
-0.39076 
-0.39768 
-0.40312 
-0.40609 
-0.40422 
-0.3929 
-0.35875 
-0.29046 
-0.19236 
-0.073375 
0.053762 
0.17489 
0.28165 
0.37316 
0.44914 
0.51271 
0.55947 
0.59051 
0.60363 
0.59755 
0.56807 
0.52157 
0.46369 
0.39825 
0.333 
0.27059 
0.21188 
0.15924 
0.1108 
0.064562 
0.02007 
-0.023516 
-0.064839 
-0.10215 
-0.13539 
-0.1685 
-0.20006 
-0.23026 
-0.25813 
-0.28141 
-0.30165 
-0.31872 
-0.33224 
-0.34149 
-0.35015 
-0.35817 
-0.36833 
-0.3766 
-0.38417 
-0.39471 
-0.40273 
-0.40894 
-0.41217 
-0.41353 
-0.4035 
-0.37492 
-0.31737 
-0.22677 
-0.11224 
0.0095294 
0.12884 
0.2382 
0.33332 
0.40892 
0.46828 
0.51116 
0.53715 
0.54323 
0.53101 
0.50379 
0.46505 
0.41791 
0.36798 
0.31761 
0.26736 
0.2197 
0.17404 
0.13072 
0.090429 
0.050464 
0.012504 
-0.023063 
-0.057919 
-0.091805 
-0.12569 
-0.15589 
-0.18299 
-0.20814 
-0.23201 
-0.25354 
-0.27229 
-0.28775 
-0.30094 
-0.31336 
-0.32623 
-0.33696 
-0.34647 
-0.35209 
-0.35681 
-0.35759 
-0.35979 
-0.36037 
-0.35151 
-0.3217 
-0.25522 
-0.15596 
-0.036967 
0.086355 
0.20864 
0.31909 
0.41325 
0.49215 
0.55649 
0.60337 
0.63603 
0.64968 
0.64075 
0.61191 
0.5669 
0.5087 
0.44397 
0.37671 
0.31243 
0.25035 
0.1939 
0.14197 
0.09308 
0.047037 
0.00455 
-0.034509 
-0.071499 
-0.10642 
-0.13972 
-0.1718 
-0.20465 
-0.23608 
-0.26466 
-0.29021 
-0.31232 
-0.33308 
-0.35274 
-0.3671 
-0.37693 
-0.38624 
-0.39464 
-0.40273 
-0.41146 
-0.41896 
-0.4229 
-0.42827 
-0.43008 
-0.43183 
-0.42872 
-0.41068 
-0.36645 
-0.28872 
-0.18143 
-0.058113 
0.068507 
0.18905 
0.29672 
0.38978 
0.46246 
0.51847 
0.55927 
0.5832 
0.58604 
0.57195 
0.54013 
0.49674 
0.4441 
0.38719 
0.3308 
0.27635 
0.22106 
0.16848 
0.11668 
0.071223 
0.029576 
-0.0092243 
-0.045503 
-0.079324 
-0.11243 
-0.14347 
-0.1729 
-0.20084 
-0.22664 
-0.25205 
-0.27268 
-0.29059 
-0.30637 
-0.32054 
-0.33606 
-0.34666 
-0.35552 
-0.36031 
-0.36632 
-0.3702 
-0.37149 
-0.37188 
-0.36891 
-0.35468 
-0.31691 
-0.24494 
-0.14335 
-0.027267 
0.090429 
0.20554 
0.3083 
0.39586 
0.46822 
0.52422 
0.56354 
0.58676 
0.59335 
0.57925 
0.54718 
0.50204 
0.44436 
0.38286 
0.32207 
0.26232 
0.20774 
0.15794 
0.11287 
0.072969 
0.035785 
0.0012519 
-0.032893 
-0.068977 
-0.10474 
-0.1394 
-0.17258 
-0.20316 
-0.22903 
-0.25231 
-0.27436 
-0.29435 
-0.31187 
-0.32933 
-0.34485 
-0.36179 
-0.37408 
-0.38501 
-0.39432 
-0.3995 
-0.40363 
-0.40616 
-0.40564 
-0.40085 
-0.37977 
-0.32778 
-0.24015 
-0.12964 
-0.0040509 
0.12289 
0.2446 
0.35272 
0.44164 
0.5131 
0.57039 
0.61379 
0.63778 
0.64334 
0.62866 
0.59549 
0.54802 
0.49221 
0.43291 
0.36915 
0.30474 
0.24434 
0.18976 
0.13977 
0.092692 
0.047231 
0.004744 
-0.034768 
-0.074022 
-0.11224 
-0.15111 
-0.18848 
-0.22121 
-0.24998 
-0.27727 
-0.3012 
-0.31969 
-0.33308 
-0.3444 
-0.35656 
-0.36748 
-0.37492 
-0.38281 
-0.3887 
-0.39678 
-0.40325 
-0.40958 
-0.41514 
-0.41974 
-0.42155 
-0.41256 
-0.38443 
-0.31976 
-0.21842 
-0.09575 
0.032357 
0.15387 
0.26801 
0.36979 
0.45593 
0.52648 
0.57641 
0.60693 
0.61877 
0.6143 
0.59258 
0.55384 
0.50204 
0.44267 
0.38027 
0.31812 
0.26031 
0.20463 
0.154 
0.10537 
0.059841 
0.015673 
-0.026038 
-0.063287 
-0.099759 
-0.13494 
-0.1687 
-0.20142 
-0.2333 
-0.26111 
-0.28561 
-0.30611 
-0.32467 
-0.34285 
-0.35656 
-0.36419 
-0.37033 
-0.38048 
-0.39064 
-0.39568 
-0.40098 
-0.40738 
-0.41185 
-0.41514 
-0.41657 
-0.41611 
-0.41385 
-0.40066 
-0.36535 
-0.29409 
-0.1892 
-0.068654 
0.059453 
0.18446 
0.2951 
0.38635 
0.4569 
0.50857 
0.54556 
0.56671 
0.57117 
0.55843 
0.53205 
0.49215 
0.44442 
0.39482 
0.34457 
0.2931 
0.24602 
0.19998 
0.15704 
0.11533 
0.07174 
0.033004 
-0.0032749 
-0.036643 
-0.066067 
-0.094909 
-0.12479 
-0.15149 
-0.1727 
-0.19262 
-0.21364 
-0.23653 
-0.2536 
-0.26854 
-0.28173 
-0.29447 
-0.30644 
-0.31678 
-0.32597 
-0.33256 
-0.33935 
-0.34576 
-0.35222 
-0.35759 
-0.3585 
-0.35313 
-0.33412 
-0.28503 
-0.20006 
-0.086955 
0.034815 
0.15801 
0.27363 
0.37367 
0.45994 
0.52965 
0.57938 
0.61165 
0.62775 
0.62821 
0.61165 
0.57854 
0.53153 
0.47747 
0.42114 
0.3619 
0.30448 
0.25249 
0.20483 
0.15755 
0.11332 
0.071675 
0.030999 
-0.0079956 
-0.04408 
-0.079583 
-0.11386 
-0.1491 
-0.18143 
-0.21073 
-0.24028 
-0.26693 
-0.28807 
-0.30915 
-0.327 
-0.34194 
-0.35559 
-0.36794 
-0.37887 
-0.38734 
-0.39355 
-0.39723 
-0.40085 
-0.3993 
-0.3821 
-0.33845 
-0.25975 
-0.14942 
-0.02177 
0.10679 
0.22875 
0.34063 
0.43627 
0.51446 
0.57486 
0.6167 
0.64056 
0.64709 
0.62989 
0.59322 
0.54149 
0.47941 
0.41467 
0.35026 
0.28799 
0.22927 
0.17527 
0.12457 
0.077301 
0.034103 
-0.0071549 
-0.049448 
-0.090577 
-0.13015 
-0.16734 
-0.20077 
-0.22974 
-0.25677 
-0.28148 
-0.30476 
-0.32293 
-0.33463 
-0.34563 
-0.35888 
-0.36684 
-0.37182 
-0.37841 
-0.38643 
-0.39258 
-0.3993 
-0.40667 
-0.41204 
-0.41676 
-0.41618 
-0.40842 
-0.38449 
-0.33121 
-0.23892 
-0.11948 
0.008624 
0.13311 
0.25003 
0.35246 
0.43782 
0.50566 
0.55798 
0.59283 
0.61062 
0.60822 
0.58566 
0.54673 
0.49822 
0.44235 
0.38292 
0.3222 
0.26639 
0.21466 
0.16415 
0.11746 
0.070123 
0.023174 
-0.019571 
-0.056561 
-0.093228 
-0.12795 
-0.15841 
-0.18719 
-0.21577 
-0.24397 
-0.26971 
-0.29046 
-0.30728 
-0.32254 
-0.33476 
-0.34563 
-0.35559 
-0.36593 
-0.37453 
-0.38404 
-0.39283 
-0.39891 
-0.40202 
-0.40435 
-0.39924 
-0.37324 
-0.31206 
-0.21422 
-0.094327 
0.036755 
0.16738 
0.28799 
0.39016 
0.47604 
0.54433 
0.59516 
0.63125 
0.64735 
0.64379 
0.62071 
0.57718 
0.52079 
0.45664 
0.3921 
0.32854 
0.26639 
0.2089 
0.15296 
0.10285 
0.057966 
0.014573 
-0.025585 
-0.064257 
-0.10092 
-0.13293 
-0.16449 
-0.19579 
-0.2258 
-0.25315 
-0.27915 
-0.30075 
-0.31821 
-0.33444 
-0.34795 
-0.35765 
-0.36768 
-0.37505 
-0.3865 
-0.39775 
-0.40525 
-0.41256 
-0.41799 
-0.42375 
-0.42407 
-0.41469 
-0.38566 
-0.32105 
-0.22172 
-0.10125 
0.024403 
0.14811 
0.26316 
0.36372 
0.44526 
0.50844 
0.55701 
0.59051 
0.60318 
0.59374 
0.56774 
0.5237 
0.47359 
0.4161 
0.3544 
0.29362 
0.23496 
0.1818 
0.13408 
0.089394 
0.04348 
-0.0010115 
-0.040653 
-0.076802 
-0.1092 
-0.14134 
-0.17497 
-0.2042 
-0.22716 
-0.24727 
-0.2679 
-0.28755 
-0.30605 
-0.32222 
-0.33392 
-0.34091 
-0.34686 
-0.35403 
-0.36192 
-0.3691 
-0.37447 
-0.37854 
-0.38081 
-0.37815 
-0.36606 
-0.33347 
-0.26505 
-0.16604 
-0.049577 
0.073357 
0.19202 
0.30364 
0.39999 
0.4776 
0.53696 
0.57996 
0.60661 
0.6167 
0.60667 
0.57486 
0.5259 
0.46705 
0.40213 
0.33856 
0.2757 
0.21692 
0.16331 
0.11358 
0.067666 
0.024403 
-0.016467 
-0.052099 
-0.085338 
-0.11806 
-0.14884 
-0.17788 
-0.20413 
-0.23065 
-0.25302 
-0.2721 
-0.28607 
-0.30139 
-0.31801 
-0.33534 
-0.35119 
-0.36438 
-0.3746 
-0.38533 
-0.3938 
-0.39646 
-0.40085 
-0.40079 
-0.38501 
-0.34019 
-0.25981 
-0.14981 
-0.026814 
0.098189 
0.21802 
0.32737 
0.42011 
0.49687 
0.55772 
0.60247 
0.6317 
0.63965 
0.62193 
0.58197 
0.52338 
0.45535 
0.38344 
0.30972 
0.2413 
0.17948 
0.12425 
0.07368 
0.027378 
-0.012781 
-0.053134 
-0.09187 
-0.1266 
-0.16081 
-0.19424 
-0.22366 
-0.25263 
-0.27857 
-0.30424 
-0.3259 
-0.34492 
-0.35837 
-0.36723 
-0.37453 
-0.38216 
-0.39232 
-0.40266 
-0.40958 
-0.41644 
-0.42271 
-0.42452 
-0.42911 
-0.43325 
-0.43493 
-0.43209 
-0.4176 
-0.37318 
-0.28949 
-0.17503 
-0.045503 
0.084673 
0.20593 
0.3145 
0.40937 
0.48788 
0.54938 
0.59413 
0.62206 
0.6348 
0.62575 
0.59536 
0.5475 
0.48801 
0.42476 
0.36003 
0.29549 
0.23347 
0.17747 
0.12748 
0.082669 
0.039535 
-0.00030014 
-0.038066 
-0.076091 
-0.11347 
-0.14936 
-0.18202 
-0.20827 
-0.23207 
-0.25438 
-0.27604 
-0.29713 
-0.31517 
-0.33366 
-0.34873 
-0.36037 
-0.37214 
-0.38106 
-0.38889 
-0.3949 
-0.39956 
-0.4059 
-0.41114 
-0.41689 
-0.42025 
-0.42375 
-0.42433 
-0.42426 
-0.42303 
-0.41683 
-0.40085 
-0.36011 
-0.28587 
-0.18228 
-0.061605 
0.06592 
0.18607 
0.29187 
0.38189 
0.45638 
0.51446 
0.55707 
0.58404 
0.59755 
0.59128 
0.56891 
0.53437 
0.48898 
0.43879 
0.38383 
0.3255 
0.27247 
0.2219 
0.17392 
0.12781 
0.085708 
0.047489 
0.012504 
-0.023193 
-0.057079 
-0.090512 
-0.12136 
-0.15007 
-0.17788 
-0.2031 
-0.22612 
-0.24649 
-0.26473 
-0.28199 
-0.2948 
-0.30663 
-0.31556 
-0.3237 
-0.33075 
-0.33851 
-0.34634 
-0.35339 
-0.35707 
-0.36024 
-0.35972 
-0.35041 
-0.32002 
-0.25787 
-0.16637 
-0.059083 
0.049623 
0.15639 
0.253 
0.33494 
0.4018 
0.45296 
0.49137 
0.51407 
0.52073 
0.51135 
0.48413 
0.44649 
0.40148 
0.35389 
0.30823 
0.25954 
0.21272 
0.16881 
0.12516 
0.08642 
0.049817 
0.010435 
-0.027655 
-0.062963 
-0.094198 
-0.12433 
-0.15337 
-0.18072 
-0.20607 
-0.22845 
-0.24804 
-0.26466 
-0.28083 
-0.29363 
-0.3045 
-0.31581 
-0.32577 
-0.33192 
-0.33819 
-0.34453 
-0.35022 
-0.35474 
-0.35643 
-0.35442 
-0.33813 
-0.29363 
-0.21487 
-0.1114 
0.0041619 
0.11882 
0.22694 
0.32588 
0.4137 
0.48646 
0.54375 
0.58449 
0.61165 
0.62155 
0.61469 
0.59031 
0.5508 
0.49984 
0.44274 
0.38299 
0.32414 
0.26846 
0.21692 
0.16771 
0.12186 
0.077948 
0.037337 
-0.0019815 
-0.039812 
-0.075574 
-0.10707 
-0.13778 
-0.16676 
-0.19275 
-0.21603 
-0.23815 
-0.2591 
-0.27857 
-0.29409 
-0.30683 
-0.32112 
-0.33851 
-0.35074 
-0.35856 
-0.366 
-0.37246 
-0.37841 
-0.38268 
-0.38152 
-0.37162 
-0.3488 
-0.30482 
-0.22819 
-0.12698 
-0.013363 
0.099418 
0.20845 
0.3059 
0.39107 
0.46039 
0.51627 
0.55714 
0.58313 
0.59367 
0.58384 
0.55675 
0.51355 
0.46169 
0.40368 
0.34296 
0.2867 
0.23257 
0.18219 
0.13557 
0.091852 
0.050787 
0.012892 
-0.024292 
-0.060183 
-0.092129 
-0.12459 
-0.15874 
-0.19068 
-0.21804 
-0.24352 
-0.26531 
-0.2851 
-0.30017 
-0.31181 
-0.32196 
-0.33315 
-0.34116 
-0.3497 
-0.35804 
-0.36263 
-0.37052 
-0.37764 
-0.38475 
-0.39051 
-0.39212 
-0.38546 
-0.36406 
-0.31038 
-0.22121 
-0.11121 
0.0051966 
0.12024 
0.22287 
0.31198 
0.38784 
0.44843 
0.49473 
0.527 
0.5444 
0.54556 
0.52804 
0.49758 
0.45975 
0.41448 
0.36675 
0.31929 
0.27331 
0.2272 
0.18006 
0.13848 
0.10006 
0.06191 
0.023174 
-0.011229 
-0.04421 
-0.076608 
-0.11075 
-0.14263 
-0.17135 
-0.19877 
-0.22243 
-0.24326 
-0.25891 
-0.27397 
-0.28613 
-0.29557 
-0.30398 
-0.31258 
-0.32086 
-0.32978 
-0.33825 
-0.34427 
-0.34485 
-0.3433 
-0.32836 
-0.28755 
-0.21357 
-0.11554 
-0.0048916 
0.1077 
0.21698 
0.31916 
0.4075 
0.4774 
0.53133 
0.57026 
0.59426 
0.60124 
0.58857 
0.55966 
0.5195 
0.46887 
0.41189 
0.35518 
0.30131 
0.2468 
0.19312 
0.14391 
0.096184 
0.053051 
0.014056 
-0.025391 
-0.063933 
-0.099953 
-0.13403 
-0.16572 
-0.19631 
-0.2234 
-0.25011 
-0.27339 
-0.29092 
-0.30333 
-0.31452 
-0.32487 
-0.33289 
-0.33981 
-0.34783 
-0.35778 
-0.36677 
-0.37233 
-0.37783 
-0.3832 
-0.38216 
-0.37932 
-0.3658 
-0.33088 
-0.26266 
-0.16527 
-0.050482 
0.071999 
0.19235 
0.30247 
0.39683 
0.47721 
0.54414 
0.59568 
0.62989 
0.64638 
0.64392 
0.61961 
0.57835 
0.52532 
0.4633 
0.39799 
0.33436 
0.27732 
0.22461 
0.17101 
0.12011 
0.074068 
0.02977 
-0.009483 
-0.049124 
-0.089024 
-0.12711 
-0.16152 
-0.19249 
-0.22101 
-0.24869 
-0.27423 
-0.29389 
-0.31161 
-0.32629 
-0.33599 
-0.34511 
-0.35462 
-0.36121 
-0.36884 
-0.37699 
-0.3832 
-0.39025 
-0.39613 
-0.40034 
-0.40079 
-0.39296 
-0.36703 
-0.30941 
-0.21778 
-0.10642 
0.012439 
0.13059 
0.236 
0.32582 
0.39818 
0.45322 
0.49325 
0.51989 
0.53392 
0.52978 
0.50695 
0.47268 
0.43039 
0.38493 
0.33817 
0.28721 
0.23684 
0.19021 
0.14553 
0.10071 
0.058095 
0.022269 
-0.009095 
-0.040136 
-0.072987 
-0.10429 
-0.13319 
-0.16087 
-0.18719 
-0.21054 
-0.2331 
-0.25373 
-0.27139 
-0.28885 
-0.30359 
-0.31556 
-0.32817 
-0.33825 
-0.34589 
-0.35474 
-0.36173 
-0.3658 
-0.36923 
-0.36128 
-0.33082 
-0.27165 
-0.17924 
-0.065227 
0.057448 
0.17598 
0.28359 
0.37781 
0.45516 
0.51763 
0.56535 
0.59684 
0.61327 
0.60952 
0.58404 
0.54239 
0.49053 
0.43168 
0.37063 
0.30991 
0.25093 
0.19532 
0.14624 
0.099741 
0.055573 
0.015349 
-0.023645 
-0.060894 
-0.094909 
-0.13074 
-0.16313 
-0.1932 
-0.22218 
-0.24869 
-0.26984 
-0.28736 
-0.30353 
-0.31957 
-0.33463 
-0.34737 
-0.3585 
-0.36845 
-0.3766 
-0.38171 
-0.3885 
-0.39555 
-0.3951 
-0.38714 
-0.36348 
-0.31168 
-0.22534 
-0.11334 
0.0097881 
0.13369 
0.24783 
0.34716 
0.43142 
0.50204 
0.55403 
0.59264 
0.61404 
0.6154 
0.59736 
0.56406 
0.5173 
0.46201 
0.40161 
0.33927 
0.279 
0.22158 
0.17062 
0.12354 
0.077625 
0.033586 
-0.0085776 
-0.04712 
-0.086502 
-0.1253 
-0.16184 
-0.19586 
-0.22418 
-0.25166 
-0.27792 
-0.30379 
-0.32325 
-0.34007 
-0.3552 
-0.36664 
-0.37621 
-0.38559 
-0.39587 
-0.40512 
-0.41146 
-0.41534 
-0.41721 
-0.42058 
-0.42342 
-0.42368 
-0.41896 
-0.40357 
-0.3616 
-0.28148 
-0.17452 
-0.051388 
0.078207 
0.20108 
0.307 
0.39767 
0.47378 
0.52927 
0.56613 
0.58604 
0.58844 
0.57123 
0.53819 
0.49402 
0.44203 
0.38939 
0.33591 
0.28307 
0.23043 
0.18245 
0.13848 
0.094503 
0.053504 
0.01522 
-0.021705 
-0.056626 
-0.088248 
-0.11897 
-0.14761 
-0.17691 
-0.20278 
-0.22664 
-0.24927 
-0.26615 
-0.28232 
-0.29952 
-0.31614 
-0.32875 
-0.33838 
-0.34724 
-0.35345 
-0.35901 
-0.36451 
-0.3691 
-0.36936 
-0.36438 
-0.34996 
-0.30683 
-0.22728 
-0.1242 
-0.009095 
0.10983 
0.22119 
0.31683 
0.39864 
0.46208 
0.50864 
0.54116 
0.55791 
0.55617 
0.53793 
0.50353 
0.45729 
0.40724 
0.35337 
0.30053 
0.24809 
0.19461 
0.14501 
0.097478 
0.053374 
0.013539 
-0.023451 
-0.055074 
-0.086761 
-0.11968 
-0.15169 
-0.18143 
-0.20931 
-0.23589 
-0.25897 
-0.27753 
-0.2935 
-0.30818 
-0.32157 
-0.33211 
-0.34246 
-0.3541 
-0.36432 
-0.37188 
-0.37725 
-0.38268 
-0.38934 
-0.39801 
-0.40059 
-0.38979 
-0.35546 
-0.29059 
-0.19637 
-0.085662 
0.031258 
0.14721 
0.2563 
0.35233 
0.43285 
0.49473 
0.53683 
0.56283 
0.57259 
0.5625 
0.53237 
0.48684 
0.42703 
0.36087 
0.29025 
0.2166 
0.1452 
0.078595 
0.016061 
-0.038842 
-0.085532 
-0.12944 
-0.16837 
-0.20394 
-0.23841 
-0.27288 
-0.3067 
-0.3378 
-0.36348 
-0.38934 
-0.41346 
-0.43002 
-0.44463 
-0.45608 
-0.46099 
-0.46125 
-0.46584 
-0.4716 
-0.4769 
-0.47884 
-0.47981 
-0.47587 
-0.46766 
-0.45556 
-0.43914 
-0.41379 
-0.36141 
-0.26932 
-0.14347 
-0.0015935 
0.14022 
0.27105 
0.38693 
0.48516 
0.56296 
0.6209 
0.65711 
0.67238 
0.66966 
0.64664 
0.60816 
0.55837 
0.50579 
0.45393 
0.40161 
0.3522 
0.30939 
0.27156 
0.23205 
0.19603 
0.16266 
0.12955 
0.094568 
0.060294 
0.026537 
-0.0074783 
-0.039748 
-0.072276 
-0.1017 
-0.12776 
-0.15143 
-0.17561 
-0.19708 
-0.2183 
-0.23589 
-0.25102 
-0.26408 
-0.27546 
-0.28484 
-0.29292 
-0.30191 
-0.30844 
-0.31336 
-0.31788 
-0.32157 
-0.32487 
-0.32338 
-0.30676 
-0.25981 
-0.1738 
-0.059924 
0.065532 
0.18775 
0.30325 
0.40646 
0.49059 
0.55397 
0.60085 
0.6337 
0.64696 
0.64069 
0.61618 
0.57524 
0.52435 
0.47294 
0.42243 
0.37167 
0.3233 
0.27732 
0.23082 
0.18239 
0.13602 
0.093468 
0.052146 
0.015091 
-0.019312 
-0.055397 
-0.089024 
-0.12194 
-0.15537 
-0.18564 
-0.21319 
-0.23892 
-0.26324 
-0.28387 
-0.30262 
-0.3186 
-0.33515 
-0.34834 
-0.3583 
-0.36839 
-0.38003 
-0.38986 
-0.39458 
-0.40066 
-0.40577 
-0.40816 
-0.4092 
-0.4092 
-0.40241 
-0.3841 
-0.34511 
-0.26958 
-0.15563 
-0.022934 
0.11119 
0.23419 
0.34632 
0.44461 
0.52267 
0.57887 
0.6145 
0.63319 
0.63448 
0.61721 
0.58106 
0.53127 
0.47669 
0.42308 
0.36811 
0.31276 
0.25831 
0.20651 
0.16124 
0.11946 
0.076913 
0.036561 
0.00041121 
-0.033216 
-0.06749 
-0.10163 
-0.13397 
-0.16546 
-0.19275 
-0.21713 
-0.24022 
-0.26415 
-0.2838 
-0.29907 
-0.31045 
-0.32079 
-0.33056 
-0.34007 
-0.34783 
-0.35209 
-0.35707 
-0.36205 
-0.36781 
-0.36942 
-0.36296 
-0.34213 
-0.28949 
-0.19721 
-0.083269 
0.038824 
0.15755 
