1.99219	
1.99219	
1.99219	
1.99219	
1.99219	
1.99219	
1.99219	
1.99219	
1.99219	
1.99219	
1.99219	
1.98682	
1.98547	
1.98279	
1.98187	
1.98047	
1.98517	
1.99371	
1.992	
1.99225	
1.99219	
1.99219	
1.99219	
1.99219	
1.99219	
1.99219	
1.98651	
1.71625	
1.23102	
0.808472	
0.424133	
0.105286	
-0.144104	
-0.339294	
-0.510925	
-0.691284	
-0.896606	
-1.12427	
-1.36896	
-1.62512	
-1.88586	
1.99469	
-1.9895	
-1.99243	
-1.99194	
-1.992	
-1.992	
-1.992	
-1.992	
-1.992	
-1.99207	
-1.992	
-1.992	
-1.992	
-1.992	
-1.99207	
-1.992	
-1.99207	
-1.99207	
-1.992	
-1.992	
-1.992	
-1.992	
-1.992	
-1.992	
-1.992	
-1.992	
-1.992	
-1.992	
-1.992	
-1.99207	
-1.992	
-1.992	
-1.992	
-1.992	
-1.992	
-1.99207	
-1.99207	
-1.992	
-1.992	
-1.992	
-1.992	
-1.992	
-1.992	
-1.992	
-1.992	
-1.992	
-1.992	
-1.99207	
-1.992	
-1.992	
-1.992	
-1.992	
-1.992	
-1.992	
-1.99207	
-1.992	
-1.992	
-1.992	
-1.992	
-1.992	
-1.992	
-1.992	
-1.992	
-1.992	
-1.99207	
-1.992	
-1.99207	
-1.992	
-1.992	
-1.992	
-1.992	
-1.992	
-1.992	
-1.992	
-1.992	
-1.992	
-1.992	
-1.992	
-1.992	
-1.99207	
-1.99207	
-1.99207	
-1.99207	
-1.99207	
-1.99207	
-1.992	
-1.992	
-1.992	
-1.992	
-1.992	
-1.992	
-1.992	
-1.992	
-1.992	
-1.99207	
-1.992	
-1.992	
-1.99207	
-1.992	
-1.992	
-1.992	
-1.992	
-1.992	
-1.992	
-1.992	
-1.992	
-1.992	
-1.99207	
-1.992	
-1.992	
-1.992	
-1.992	
-1.992	
-1.992	
-1.992	
-1.992	
-1.992	
-1.992	
-1.992	
-1.992	
-1.992	
-1.99207	
-1.99207	
-1.99207	
-1.99207	
-1.99207	
-1.992	
-1.992	
-1.992	
-1.992	
-1.992	
-1.992	
-1.992	
-1.992	
-1.99207	
-1.992	
-1.992	
-1.99207	
-1.992	
-1.99207	
-1.992	
-1.992	
-1.992	
-1.992	
-1.992	
-1.992	
-1.992	
-1.99207	
-1.992	
-1.992	
-1.992	
-1.992	
-1.992	
-1.992	
-1.992	
-1.992	
-1.992	
-1.992	
-1.992	
-1.992	
-1.992	
-1.99207	
-1.992	
-1.99207	
-1.99207	
-1.99207	
-1.99207	
-1.992	
-1.992	
-1.992	
-1.992	
-1.992	
-1.992	
-1.992	
-1.99207	
-1.992	
-1.992	
-1.98065	
-1.95074	
-1.94275	
-1.95068	
-1.97272	
-1.99286	
-1.99182	
-1.99207	
-1.992	
-1.992	
-1.992	
-1.992	
-1.992	
-1.992	
-1.992	
-1.992	
-1.992	
-1.992	
-1.992	
-1.992	
-1.992	
-1.992	
-1.992	
-1.992	
-1.99207	
-1.992	
-1.99207	
-1.99207	
-1.99207	
-1.99207	
-1.992	
-1.992	
-1.992	
-1.992	
-1.992	
-1.992	
-1.992	
-1.992	
-1.97101	
-1.82489	
-1.64771	
-1.48877	
-1.36633	
-1.28406	
-1.23315	
-1.2099	
-1.20734	
-1.22107	
-1.24823	
-1.28882	
-1.33929	
-1.39581	
-1.45123	
-1.50122	
-1.5426	
-1.57092	
-1.58667	
-1.59698	
-1.60413	
-1.60815	
-1.61169	
-1.61804	
-1.62451	
-1.63196	
-1.64075	
-1.65253	
-1.66266	
-1.67291	
-1.68195	
-1.69031	
-1.69562	
-1.69812	
-1.70142	
-1.70026	
-1.69684	
-1.69293	
-1.68915	
-1.68347	
-1.67584	
-1.66724	
-1.65082	
-1.60529	
-1.50848	
-1.36011	
-1.185	
-1.01569	
-0.878113	
-0.779785	
-0.715942	
-0.681763	
-0.673096	
-0.685791	
-0.714111	
-0.751221	
-0.796936	
-0.851563	
-0.914612	
-0.975769	
-1.02942	
-1.0733	
-1.10565	
-1.12622	
-1.1394	
-1.14899	
-1.15717	
-1.16571	
-1.17554	
-1.18561	
-1.19641	
-1.20874	
-1.2207	
-1.23022	
-1.24121	
-1.25226	
-1.26202	
-1.27203	
-1.27875	
-1.2829	
-1.28571	
-1.2876	
-1.28778	
-1.28729	
-1.2854	
-1.28076	
-1.27423	
-1.25916	
-1.21613	
-1.12378	
-0.980835	
-0.809937	
-0.645264	
-0.512146	
-0.416809	
-0.358215	
-0.330994	
-0.329529	
-0.348633	
-0.383423	
-0.430481	
-0.487	
-0.550354	
-0.617615	
-0.682129	
-0.737671	
-0.778748	
-0.809021	
-0.829407	
-0.845703	
-0.859009	
-0.871521	
-0.884766	
-0.89679	
-0.909546	
-0.923096	
-0.937012	
-0.952698	
-0.968567	
-0.984497	
-0.999451	
-1.01324	
-1.02472	
-1.03381	
-1.04059	
-1.04364	
-1.04407	
-1.04523	
-1.04541	
-1.0434	
-1.04132	
-1.03888	
-1.0296	
-1.00238	
-0.932129	
-0.809448	
-0.648254	
-0.479492	
-0.334595	
-0.228455	
-0.161682	
-0.128662	
-0.122437	
-0.138184	
-0.17157	
-0.214539	
-0.269165	
-0.335938	
-0.405945	
-0.473022	
-0.531799	
-0.578308	
-0.611084	
-0.631897	
-0.64563	
-0.657959	
-0.671021	
-0.682678	
-0.69397	
-0.70459	
-0.716064	
-0.729675	
-0.745056	
-0.762085	
-0.777954	
-0.792236	
-0.803772	
-0.814331	
-0.821777	
-0.827148	
-0.829285	
-0.829529	
-0.829651	
-0.829651	
-0.827637	
-0.824951	
-0.817261	
-0.792297	
-0.726196	
-0.610413	
-0.455872	
-0.292786	
-0.152527	
-0.0499878	
0.0151367	
0.0460815	
0.0498047	
0.032959	
-0.000366211	
-0.0474854	
-0.103821	
-0.168945	
-0.239136	
-0.308228	
-0.366638	
-0.413208	
-0.449707	
-0.478149	
-0.499695	
-0.516357	
-0.529602	
-0.539612	
-0.552124	
-0.564209	
-0.577881	
-0.59259	
-0.610168	
-0.628235	
-0.64447	
-0.661316	
-0.676147	
-0.687683	
-0.696777	
-0.704224	
-0.711975	
-0.71698	
-0.720032	
-0.722412	
-0.723938	
-0.724426	
-0.718811	
-0.700684	
-0.643677	
-0.534241	
-0.381104	
-0.211548	
-0.0602417	
0.0498047	
0.121948	
0.158752	
0.167725	
0.155579	
0.127197	
0.0862427	
0.0352173	
-0.0266113	
-0.0949097	
-0.166748	
-0.234924	
-0.29303	
-0.335754	
-0.367249	
-0.391479	
-0.410339	
-0.424438	
-0.437073	
-0.450623	
-0.466675	
-0.484985	
-0.502563	
-0.520996	
-0.540405	
-0.558594	
-0.576599	
-0.591797	
-0.606567	
-0.617859	
-0.626892	
-0.63324	
-0.63678	
-0.636902	
-0.639099	
-0.642273	
-0.645447	
-0.647644	
-0.643799	
-0.61853	
-0.548584	
-0.429688	
-0.272522	
-0.106506	
0.034668	
0.133545	
0.193542	
0.222168	
0.225464	
0.207581	
0.172791	
0.126831	
0.0723877	
0.00775146	
-0.0633545	
-0.133606	
-0.199158	
-0.252747	
-0.294006	
-0.325439	
-0.3479	
-0.364502	
-0.379639	
-0.393616	
-0.409973	
-0.425537	
-0.441895	
-0.45813	
-0.474365	
-0.491638	
-0.509094	
-0.524719	
-0.538086	
-0.551208	
-0.560242	
-0.566711	
-0.573242	
-0.576843	
-0.579468	
-0.583252	
-0.588013	
-0.590332	
-0.59137	
-0.588684	
-0.566467	
-0.506897	
-0.396057	
-0.244812	
-0.081543	
0.0629272	
0.168335	
0.230835	
0.258362	
0.260559	
0.241516	
0.20459	
0.155823	
0.0949707	
0.0217896	
-0.0549316	
-0.134338	
-0.210388	
-0.27356	
-0.321594	
-0.356995	
-0.380676	
-0.395569	
-0.412231	
-0.432861	
-0.453491	
-0.473083	
-0.493408	
-0.512268	
-0.528442	
-0.542114	
-0.554138	
-0.564941	
-0.571838	
-0.577576	
-0.580688	
-0.580505	
-0.580078	
-0.580811	
-0.582825	
-0.585083	
-0.587341	
-0.588989	
-0.58844	
-0.583862	
-0.557617	
-0.487122	
-0.362671	
-0.201355	
-0.0325317	
0.108887	
0.206909	
0.265869	
0.290283	
0.287231	
0.263855	
0.227295	
0.177551	
0.116272	
0.0460205	
-0.0264282	
-0.09552	
-0.15271	
-0.19696	
-0.22876	
-0.253357	
-0.270325	
-0.285339	
-0.297119	
-0.307007	
-0.32074	
-0.337646	
-0.354492	
-0.3703	
-0.387207	
-0.405212	
-0.419495	
-0.430969	
-0.441162	
-0.450073	
-0.455017	
-0.457642	
-0.459473	
-0.460571	
-0.46167	
-0.461975	
-0.460266	
-0.45874	
-0.448425	
-0.407227	
-0.315552	
-0.175537	
-0.0137939	
0.137817	
0.25592	
0.332886	
0.372498	
0.379822	
0.364563	
0.33197	
0.288818	
0.235107	
0.16925	
0.0957642	
0.019165	
-0.0496826	
-0.1073	
-0.151917	
-0.184326	
-0.208191	
-0.226501	
-0.241455	
-0.255554	
-0.272705	
-0.290283	
-0.3078	
-0.326965	
-0.348572	
-0.369263	
-0.388062	
-0.403992	
-0.418091	
-0.430115	
-0.44165	
-0.451538	
-0.46167	
-0.473022	
-0.482361	
-0.489685	
-0.494507	
-0.496765	
-0.496277	
-0.486816	
-0.447998	
-0.357788	
-0.218628	
-0.052063	
0.105469	
0.230225	
0.311646	
0.355408	
0.36676	
0.354553	
0.325012	
0.282471	
0.230408	
0.170349	
0.0999146	
0.0252075	
-0.0476685	
-0.110474	
-0.161133	
-0.197021	
-0.222107	
-0.240845	
-0.256226	
-0.270752	
-0.284485	
-0.300598	
-0.318176	
-0.337585	
-0.356201	
-0.375549	
-0.396118	
-0.416748	
-0.437256	
-0.455933	
-0.47052	
-0.48175	
-0.490906	
-0.498657	
-0.504639	
-0.508606	
-0.511719	
-0.513855	
-0.516357	
-0.515381	
-0.49823	
-0.44458	
-0.337341	
-0.185303	
-0.017334	
0.132141	
0.242554	
0.309204	
0.3396	
0.341797	
0.32196	
0.284546	
0.233948	
0.175476	
0.109375	
0.0373535	
-0.0339355	
-0.098877	
-0.152771	
-0.193726	
-0.223938	
-0.24585	
-0.263	
-0.278564	
-0.29541	
-0.310181	
-0.324585	
-0.342957	
-0.362488	
-0.381531	
-0.400757	
-0.419312	
-0.436829	
-0.454163	
-0.469238	
-0.483093	
-0.494202	
-0.501099	
-0.506714	
-0.51123	
-0.514282	
-0.517151	
-0.518127	
-0.515869	
-0.512329	
-0.493774	
-0.434509	
-0.323364	
-0.169006	
-0.00115967	
0.144043	
0.246948	
0.307617	
0.332214	
0.3302	
0.306885	
0.268433	
0.219971	
0.161682	
0.0943604	
0.0224609	
-0.0485229	
-0.110779	
-0.161804	
-0.199646	
-0.225098	
-0.245483	
-0.262756	
-0.278564	
-0.29303	
-0.309021	
-0.324829	
-0.341858	
-0.360718	
-0.38092	
-0.400513	
-0.416809	
-0.433472	
-0.447937	
-0.457458	
-0.465149	
-0.472534	
-0.47876	
-0.481873	
-0.486816	
-0.490967	
-0.491455	
-0.488098	
-0.480286	
-0.451111	
-0.378784	
-0.253845	
-0.0914307	
0.0722046	
0.204712	
0.293457	
0.34259	
0.358032	
0.348022	
0.319153	
0.278137	
0.22821	
0.170288	
0.102417	
0.0302124	
-0.0401001	
-0.101929	
-0.152527	
-0.190796	
-0.216064	
-0.234497	
-0.251648	
-0.266602	
-0.281799	
-0.297119	
-0.312195	
-0.327332	
-0.345032	
-0.364807	
-0.385742	
-0.406494	
-0.425354	
-0.441406	
-0.453552	
-0.463135	
-0.470825	
-0.476257	
-0.481812	
-0.48877	
-0.494385	
-0.498108	
-0.499207	
-0.483765	
-0.432007	
-0.325928	
-0.171997	
-0.0010376	
0.151978	
0.263977	
0.332458	
0.365173	
0.368347	
0.349609	
0.315063	
0.268127	
0.214294	
0.152588	
0.0831299	
0.00982666	
-0.0581055	
-0.117676	
-0.165344	
-0.20166	
-0.229004	
-0.249939	
-0.2677	
-0.283447	
-0.299988	
-0.314819	
-0.331787	
-0.348755	
-0.366211	
-0.385925	
-0.406982	
-0.425415	
-0.441772	
-0.454468	
-0.464966	
-0.472961	
-0.47998	
-0.486328	
-0.491516	
-0.497131	
-0.502319	
-0.504578	
-0.500977	
-0.480042	
-0.418213	
-0.300781	
-0.141174	
0.0273438	
0.170349	
0.269348	
0.328552	
0.353516	
0.350586	
0.327759	
0.290955	
0.243896	
0.186157	
0.119202	
0.0492554	
-0.0201416	
-0.0856323	
-0.141113	
-0.184631	
-0.216309	
-0.239563	
-0.257874	
-0.272888	
-0.289429	
-0.30426	
-0.318176	
-0.335876	
-0.354248	
-0.372803	
-0.390137	
-0.410645	
-0.429688	
-0.448242	
-0.464539	
-0.475586	
-0.48584	
-0.496704	
-0.505859	
-0.511963	
-0.516968	
-0.519653	
-0.519958	
-0.514526	
-0.48822	
-0.417969	
-0.292908	
-0.129089	
0.0411377	
0.182617	
0.279907	
0.333984	
0.353577	
0.347168	
0.320923	
0.27948	
0.228516	
0.167664	
0.098938	
0.0247803	
-0.0455933	
-0.107544	
-0.157532	
-0.194397	
-0.220886	
-0.240784	
-0.256409	
-0.269165	
-0.283386	
-0.299438	
-0.319397	
-0.339905	
-0.360718	
-0.381409	
-0.400696	
-0.418213	
-0.433105	
-0.445496	
-0.455383	
-0.462708	
-0.467468	
-0.470947	
-0.474487	
-0.477661	
-0.476318	
-0.474609	
-0.470581	
-0.452332	
-0.400757	
-0.296448	
-0.147827	
0.0175171	
0.164917	
0.271729	
0.336121	
0.362854	
0.360657	
0.341675	
0.308838	
0.261597	
0.204468	
0.135803	
0.0606689	
-0.0139771	
-0.0797729	
-0.133423	
-0.171021	
-0.198303	
-0.220093	
-0.237549	
-0.252014	
-0.267395	
-0.281067	
-0.296021	
-0.311768	
-0.329346	
-0.3479	
-0.366455	
-0.385925	
-0.404419	
-0.420288	
-0.43219	
-0.444092	
-0.453796	
-0.459656	
-0.463867	
-0.46759	
-0.469421	
-0.469604	
-0.46405	
-0.437683	
-0.364441	
-0.237427	
-0.0736694	
0.0889282	
0.219971	
0.308533	
0.355896	
0.372864	
0.364136	
0.336304	
0.29541	
0.244507	
0.183289	
0.113342	
0.0372925	
-0.0366821	
-0.10022	
-0.153076	
-0.192078	
-0.218384	
-0.237854	
-0.252197	
-0.263672	
-0.276367	
-0.29126	
-0.309021	
-0.327515	
-0.343628	
-0.360168	
-0.377197	
-0.395325	
-0.413513	
-0.428589	
-0.441162	
-0.45282	
-0.462891	
-0.470398	
-0.477112	
-0.481812	
-0.484436	
-0.484131	
-0.481995	
-0.463745	
-0.402039	
-0.285706	
-0.127441	
0.038208	
0.17749	
0.273315	
0.330078	
0.356079	
0.357117	
0.338318	
0.303894	
0.258423	
0.203308	
0.137329	
0.0632935	
-0.00952148	
-0.0750732	
-0.129028	
-0.169128	
-0.19873	
-0.221558	
-0.24054	
-0.255249	
-0.268616	
-0.282776	
-0.297363	
-0.312561	
-0.327942	
-0.345154	
-0.362976	
-0.382019	
-0.397522	
-0.412292	
-0.425842	
-0.438171	
-0.447449	
-0.454407	
-0.461853	
-0.46698	
-0.47052	
-0.473877	
-0.47467	
-0.467896	
-0.436279	
-0.354187	
-0.221069	
-0.0577393	
0.0988159	
0.219604	
0.298523	
0.338867	
0.347534	
0.336487	
0.310303	
0.268433	
0.214905	
0.152161	
0.0835571	
0.0123901	
-0.0547485	
-0.111206	
-0.156189	
-0.188171	
-0.210205	
-0.227051	
-0.243164	
-0.258423	
-0.273315	
-0.288452	
-0.304504	
-0.321716	
-0.341309	
-0.35968	
-0.378723	
-0.39917	
-0.416443	
-0.431213	
-0.441406	
-0.450623	
-0.458252	
-0.465454	
-0.472839	
-0.478027	
-0.480957	
-0.482178	
-0.47998	
-0.465576	
-0.414124	
-0.309021	
-0.159424	
0.00744629	
0.154053	
0.259216	
0.320679	
0.348938	
0.350525	
0.329529	
0.293335	
0.244812	
0.185181	
0.11731	
0.0448608	
-0.026062	
-0.0904541	
-0.141418	
-0.176208	
-0.199402	
-0.216736	
-0.229309	
-0.240479	
-0.249023	
-0.258484	
-0.271545	
-0.28595	
-0.304138	
-0.322205	
-0.342407	
-0.36322	
-0.381226	
-0.39624	
-0.408203	
-0.418152	
-0.426331	
-0.433899	
-0.439575	
-0.446228	
-0.448853	
-0.449158	
-0.441528	
-0.406921	
-0.327209	
-0.197021	
-0.0377197	
0.117432	
0.238647	
0.3172	
0.358521	
0.369019	
0.357056	
0.328979	
0.288635	
0.238464	
0.178467	
0.110535	
0.0371704	
-0.0302734	
-0.0890503	
-0.13385	
-0.166321	
-0.191772	
-0.213013	
-0.230408	
-0.244263	
-0.260132	
-0.278015	
-0.295349	
-0.3125	
-0.330322	
-0.347412	
-0.367615	
-0.386475	
-0.402588	
-0.41626	
-0.427979	
-0.437439	
-0.446899	
-0.455444	
-0.461731	
-0.467651	
-0.472229	
-0.473877	
-0.471313	
-0.453064	
-0.392395	
-0.274353	
-0.111328	
0.0602417	
0.203491	
0.303284	
0.363281	
0.387695	
0.383362	
0.359741	
0.322205	
0.272278	
0.212402	
0.14447	
0.0708618	
-0.0020752	
-0.067627	
-0.121582	
-0.161377	
-0.191101	
-0.213135	
-0.230896	
-0.245972	
-0.261536	
-0.27655	
-0.292053	
-0.307922	
-0.325439	
-0.345459	
-0.363953	
-0.381592	
-0.398499	
-0.415222	
-0.430237	
-0.442261	
-0.452332	
-0.460938	
-0.469604	
-0.474915	
-0.478821	
-0.482178	
-0.482544	
-0.478638	
-0.456238	
-0.388916	
-0.265259	
-0.103638	
0.0634766	
0.202332	
0.294617	
0.347107	
0.368469	
0.362549	
0.339111	
0.301697	
0.2547	
0.196777	
0.12915	
0.0549927	
-0.0179443	
-0.0812378	
-0.130493	
-0.167725	
-0.193176	
-0.213867	
-0.232605	
-0.247253	
-0.262573	
-0.280518	
-0.298889	
-0.31781	
-0.338989	
-0.358826	
-0.37915	
-0.398682	
-0.417969	
-0.434265	
-0.449463	
-0.461792	
-0.471924	
-0.480225	
-0.487	
-0.493958	
-0.498169	
-0.498962	
-0.499268	
-0.493042	
-0.467407	
-0.398254	
-0.274048	
-0.109985	
0.0578613	
0.195862	
0.287781	
0.340881	
0.36145	
0.355591	
0.329651	
0.290222	
0.240234	
0.177307	
0.103699	
0.0276489	
-0.0425415	
-0.103088	
-0.149231	
-0.183105	
-0.208008	
-0.226074	
-0.239319	
-0.253235	
-0.266724	
-0.282715	
-0.299377	
-0.315186	
-0.333679	
-0.353088	
-0.372864	
-0.390991	
-0.405579	
-0.418701	
-0.430237	
-0.439087	
-0.443665	
-0.447266	
-0.448914	
-0.449768	
-0.450317	
-0.449707	
-0.445313	
-0.426697	
-0.371094	
-0.260071	
-0.10437	
0.062439	
0.205872	
0.30719	
0.364014	
0.386353	
0.380859	
0.353943	
0.313599	
0.264099	
0.205139	
0.133911	
0.0574341	
-0.0144043	
-0.0776367	
-0.126648	
-0.162415	
-0.188599	
-0.207947	
-0.221619	
-0.233826	
-0.248108	
-0.263794	
-0.280762	
-0.297913	
-0.315247	
-0.333984	
-0.35144	
-0.367859	
-0.383423	
-0.399292	
-0.413391	
-0.425293	
-0.434204	
-0.44104	
-0.44873	
-0.454529	
-0.458557	
-0.461487	
-0.457031	
-0.434021	
-0.363892	
-0.241211	
-0.0803223	
0.0866089	
0.224182	
0.316345	
0.368164	
0.386963	
0.380981	
0.357117	
0.319397	
0.270264	
0.211243	
0.142273	
0.0671387	
-0.0065918	
-0.0715332	
-0.122864	
-0.162781	
-0.191101	
-0.213928	
-0.231323	
-0.247803	
-0.263306	
-0.278625	
-0.295959	
-0.313354	
-0.329956	
-0.346069	
-0.364136	
-0.380615	
-0.396118	
-0.410645	
-0.423096	
-0.433655	
-0.443176	
-0.449646	
-0.453857	
-0.457825	
-0.462646	
-0.465698	
-0.465881	
-0.45282	
-0.402771	
-0.298279	
-0.14679	
0.0215454	
0.169922	
0.274658	
0.339722	
0.368469	
0.369629	
0.348328	
0.310913	
0.263489	
0.206116	
0.137634	
0.0637817	
-0.00915527	
-0.0745239	
-0.12738	
-0.168091	
-0.196228	
-0.215637	
-0.230286	
-0.243469	
-0.257874	
-0.273376	
-0.289612	
-0.306458	
-0.323364	
-0.338806	
-0.354797	
-0.370911	
-0.387756	
-0.403931	
-0.417358	
-0.428955	
-0.439331	
-0.44751	
-0.454956	
-0.4599	
-0.462952	
-0.465027	
-0.466003	
-0.460632	
-0.433472	
-0.358948	
-0.23053	
-0.0663452	
0.0947876	
0.221741	
0.307617	
0.354126	
0.366638	
0.353943	
0.32251	
0.279114	
0.226074	
0.161255	
0.0901489	
0.0183105	
-0.0499878	
-0.108093	
-0.152344	
-0.184998	
-0.208008	
-0.226501	
-0.240723	
-0.25415	
-0.26947	
-0.284485	
-0.301941	
-0.322021	
-0.343018	
-0.364868	
-0.386597	
-0.405701	
-0.421814	
-0.434204	
-0.444153	
-0.452881	
-0.459717	
-0.464478	
-0.468994	
-0.472961	
-0.475525	
-0.475769	
-0.47345	
-0.470215	
-0.451294	
-0.389832	
-0.274536	
-0.117493	
0.0465698	
0.185486	
0.281433	
0.337097	
0.356262	
0.348938	
0.325378	
0.287048	
0.234497	
0.17157	
0.100647	
0.0246582	
-0.0466309	
-0.105896	
-0.152222	
-0.184937	
-0.207397	
-0.223389	
-0.237061	
-0.249329	
-0.263794	
-0.280457	
-0.297302	
-0.312195	
-0.328491	
-0.345886	
-0.363464	
-0.381042	
-0.395264	
-0.408325	
-0.419983	
-0.432312	
-0.441589	
-0.447754	
-0.452209	
-0.453247	
-0.452148	
-0.451538	
-0.445923	
-0.42865	
-0.374939	
-0.268677	
-0.119385	
0.0452271	
0.191833	
0.297302	
0.357605	
0.383667	
0.384583	
0.360779	
0.32135	
0.270569	
0.209595	
0.137268	
0.0618286	
-0.0105591	
-0.0735474	
-0.12384	
-0.159058	
-0.182312	
-0.198608	
-0.213562	
-0.227844	
-0.241577	
-0.258545	
-0.278625	
-0.299805	
-0.320801	
-0.341858	
-0.361633	
-0.378418	
-0.395508	
-0.411316	
-0.424255	
-0.431641	
-0.437622	
-0.443604	
-0.447998	
-0.452148	
-0.454529	
-0.457336	
-0.459045	
-0.449768	
-0.40625	
-0.309387	
-0.160217	
0.0110474	
0.170593	
0.287537	
0.359497	
0.396973	
0.404663	
0.389038	
0.357422	
0.313843	
0.257629	
0.191223	
0.118103	
0.0440674	
-0.0252686	
-0.0841064	
-0.128235	
-0.162415	
-0.189758	
-0.21283	
-0.231201	
-0.248901	
-0.266602	
-0.284973	
-0.301575	
-0.319824	
-0.335632	
-0.354126	
-0.372803	
-0.39032	
-0.405823	
-0.418213	
-0.42688	
-0.43457	
-0.439941	
-0.444397	
-0.449463	
-0.454956	
-0.459351	
-0.462341	
-0.46344	
-0.456604	
-0.420532	
-0.333679	
-0.190308	
-0.0177002	
0.144592	
0.267212	
0.346558	
0.389465	
0.402954	
0.392761	
0.364319	
0.321716	
0.266418	
0.20166	
0.130249	
0.0579834	
-0.0113525	
-0.0704956	
-0.117737	
-0.15387	
-0.179199	
-0.199829	
-0.216003	
-0.232117	
-0.24884	
-0.266968	
-0.284729	
-0.303345	
-0.32251	
-0.343445	
-0.365173	
-0.384583	
-0.401672	
-0.415405	
-0.42749	
-0.436584	
-0.444275	
-0.449585	
-0.454895	
-0.459473	
-0.461548	
-0.462036	
-0.461304	
-0.453735	
-0.417664	
-0.331177	
-0.193787	
-0.0280151	
0.131042	
0.254211	
0.332275	
0.372986	
0.38324	
0.370422	
0.338074	
0.294617	
0.240295	
0.176208	
0.103638	
0.0283813	
-0.0418701	
-0.100403	
-0.145447	
-0.179382	
-0.2052	
-0.225525	
-0.241028	
-0.25647	
-0.2724	
-0.289795	
-0.30542	
-0.319031	
-0.333435	
-0.34967	
-0.367188	
-0.386047	
-0.402832	
-0.418518	
-0.431091	
-0.44104	
-0.45105	
-0.45874	
-0.46521	
-0.469482	
-0.472046	
-0.473145	
-0.473328	
-0.472595	
-0.460571	
-0.414612	
-0.315735	
-0.166443	
0.00445557	
0.157715	
0.269043	
0.335205	
0.366089	
0.368713	
0.348206	
0.311646	
0.263123	
0.202942	
0.136414	
0.0640259	
-0.00744629	
-0.0703125	
-0.119812	
-0.154358	
-0.179565	
-0.198364	
-0.213806	
-0.228943	
-0.243958	
-0.257202	
-0.270447	
-0.285828	
-0.304688	
-0.322388	
-0.338013	
-0.355347	
-0.372192	
-0.387207	
-0.403564	
-0.416199	
-0.426575	
-0.432495	
-0.43634	
-0.44043	
-0.443665	
-0.446533	
-0.446533	
-0.443298	
-0.425781	
-0.370239	
-0.262024	
-0.109192	
0.0559082	
0.199341	
0.302124	
0.362427	
0.387817	
0.386414	
0.366089	
0.330322	
0.283752	
0.224731	
0.156677	
0.0813599	
0.00592041	
-0.0605469	
-0.113831	
-0.150391	
-0.175598	
-0.196716	
-0.214844	
-0.231079	
-0.246582	
-0.263	
-0.279724	
-0.297546	
-0.316772	
-0.335938	
-0.35553	
-0.37439	
-0.391724	
-0.407104	
-0.420288	
-0.429138	
-0.435547	
-0.440308	
-0.44281	
-0.444824	
-0.447083	
-0.449768	
-0.45105	
-0.450378	
-0.437744	
-0.390381	
-0.286377	
-0.133667	
0.0365601	
0.190369	
0.301453	
0.369873	
0.403748	
0.411804	
0.395691	
0.362305	
0.314697	
0.257202	
0.189819	
0.115906	
0.0413818	
-0.0282593	
-0.088562	
-0.135864	
-0.169556	
-0.192993	
-0.211487	
-0.227722	
-0.242188	
-0.257141	
-0.27301	
-0.289551	
-0.308044	
-0.326904	
-0.347473	
-0.366943	
-0.382629	
-0.398438	
-0.41449	
-0.425598	
-0.431885	
-0.440308	
-0.448181	
-0.454224	
-0.459045	
-0.465088	
-0.470032	
-0.471375	
-0.46875	
-0.457458	
-0.413574	
-0.312012	
-0.157654	
0.0169678	
0.174377	
0.290588	
0.360962	
0.394714	
0.399841	
0.384155	
0.352173	
0.305237	
0.249268	
0.185669	
0.114319	
0.0396118	
-0.0301514	
-0.0891724	
-0.134583	
-0.16803	
-0.193054	
-0.213379	
-0.231628	
-0.247986	
-0.263428	
-0.279968	
-0.297058	
-0.314514	
-0.334717	
-0.355591	
-0.375732	
-0.393311	
-0.409302	
-0.423279	
-0.437317	
-0.449219	
-0.45752	
-0.461792	
-0.465027	
-0.46698	
-0.467712	
-0.468384	
-0.46814	
-0.465393	
-0.450378	
-0.399475	
-0.292236	
-0.14032	
0.0291138	
0.177612	
0.284119	
0.344788	
0.370605	
0.369507	
0.347107	
0.307922	
0.256958	
0.197632	
0.128052	
0.0524292	
-0.0219727	
-0.086853	
-0.138855	
-0.177551	
-0.20459	
-0.224182	
-0.239807	
-0.254517	
-0.268127	
-0.282104	
-0.29657	
-0.310852	
-0.326843	
-0.342468	
-0.357971	
-0.372437	
-0.386536	
-0.401794	
-0.415344	
-0.428223	
-0.438232	
-0.44989	
-0.457275	
-0.463257	
-0.467407	
-0.468567	
-0.468994	
-0.468018	
-0.461609	
-0.43335	
-0.358765	
-0.230164	
-0.0640869	
0.101074	
0.234619	
0.320007	
0.366028	
0.379272	
0.369141	
0.341797	
0.302307	
0.250854	
0.187256	
0.114807	
0.0408325	
-0.0261841	
-0.083252	
-0.127075	
-0.159668	
-0.182373	
-0.19928	
-0.214844	
-0.229004	
-0.243469	
-0.259216	
-0.27533	
-0.291504	
-0.309082	
-0.32666	
-0.345276	
-0.362427	
-0.38092	
-0.396729	
-0.410706	
-0.418823	
-0.42572	
-0.431458	
-0.435303	
-0.439758	
-0.443787	
-0.44812	
-0.452026	
-0.448242	
-0.420898	
-0.341492	
-0.205688	
-0.038147	
0.124573	
0.25238	
0.337463	
0.383179	
0.39679	
0.385925	
0.357727	
0.316101	
0.265015	
0.202759	
0.130188	
0.0553589	
-0.0125122	
-0.072937	
-0.120361	
-0.155151	
-0.181763	
-0.201538	
-0.218506	
-0.232483	
-0.245789	
-0.26178	
-0.277954	
-0.295105	
-0.314575	
-0.335815	
-0.356018	
-0.373047	
-0.388916	
-0.403381	
-0.415833	
-0.424683	
-0.431702	
-0.439331	
-0.446472	
-0.450928	
-0.4552	
-0.457092	
-0.458862	
-0.454834	
-0.437988	
-0.384094	
-0.275574	
-0.122009	
0.0463867	
0.193726	
0.298096	
0.362	
0.391052	
0.393433	
0.371277	
0.334229	
0.285706	
0.226257	
0.157227	
0.0820923	
0.00750732	
-0.0604248	
-0.114258	
-0.154846	
-0.185181	
-0.206055	
-0.222107	
-0.236511	
-0.251404	
-0.267212	
-0.285034	
-0.303162	
-0.32074	
-0.340515	
-0.359558	
-0.376221	
-0.393188	
-0.406006	
-0.417603	
-0.429077	
-0.43866	
-0.447327	
-0.45282	
-0.45813	
-0.465576	
-0.471741	
-0.476563	
-0.477905	
-0.47583	
-0.460876	
-0.408325	
-0.303284	
-0.154175	
0.012146	
0.159363	
0.267273	
0.332825	
0.360779	
0.362915	
0.343689	
0.309021	
0.262634	
0.206787	
0.141357	
0.0712891	
0.00128174	
-0.0632935	
-0.115906	
-0.158325	
-0.19104	
-0.215515	
-0.237	
-0.25415	
-0.269043	
-0.285645	
-0.302917	
-0.31665	
-0.331909	
-0.347961	
-0.364319	
-0.381531	
-0.398621	
-0.413391	
-0.426147	
-0.43689	
-0.443848	
-0.450073	
-0.455322	
-0.460571	
-0.464355	
-0.464844	
-0.464844	
-0.465515	
-0.457031	
-0.420227	
-0.333008	
-0.196838	
-0.0324097	
0.124084	
0.244202	
0.320557	
0.358704	
0.367188	
0.351318	
0.318726	
0.272766	
0.215332	
0.149292	
0.0773926	
0.00518799	
-0.0612183	
-0.116516	
-0.156067	
-0.186951	
-0.208313	
-0.222168	
-0.235474	
-0.246826	
-0.259399	
-0.274536	
-0.291443	
-0.30835	
-0.327026	
-0.344727	
-0.361694	
-0.377625	
-0.391235	
-0.401123	
-0.408569	
-0.413818	
-0.418213	
-0.421082	
-0.424377	
-0.426575	
-0.427063	
-0.42688	
-0.423889	
-0.403076	
-0.338501	
-0.222595	
-0.0699463	
0.0905762	
0.223267	
0.316101	
0.369202	
0.387634	
0.38208	
0.358276	
0.32019	
0.273193	
0.215027	
0.145264	
0.0714111	
-0.000976563	
-0.0650635	
-0.117126	
-0.157227	
-0.18811	
-0.211548	
-0.229614	
-0.245483	
-0.26062	
-0.2771	
-0.295105	
-0.312256	
-0.330017	
-0.349121	
-0.367859	
-0.385681	
-0.401917	
-0.415222	
-0.424988	
-0.433594	
-0.440552	
-0.446289	
-0.450623	
-0.452759	
-0.453918	
-0.453369	
-0.451477	
-0.439819	
-0.39856	
-0.303162	
-0.157654	
0.00878906	
0.16156	
0.275024	
0.345215	
0.379395	
0.384766	
0.368835	
0.338318	
0.294617	
0.238953	
0.173828	
0.0996704	
0.0236206	
-0.0479736	
-0.109497	
-0.156738	
-0.190125	
-0.212708	
-0.230896	
-0.243713	
-0.255859	
-0.270264	
-0.284241	
-0.299866	
-0.318359	
-0.33905	
-0.357849	
-0.376221	
-0.391113	
-0.404114	
-0.418396	
-0.430298	
-0.438416	
-0.443176	
-0.444092	
-0.44635	
-0.449829	
-0.453491	
-0.453491	
-0.449768	
-0.435852	
-0.385559	
-0.282166	
-0.131592	
0.0349731	
0.181152	
0.286377	
0.348999	
0.377136	
0.376526	
0.355835	
0.321228	
0.27356	
0.217529	
0.152039	
0.0803223	
0.00793457	
-0.0574341	
-0.111816	
-0.155518	
-0.189087	
-0.215576	
-0.235291	
-0.252258	
-0.268127	
-0.284363	
-0.301086	
-0.318787	
-0.337463	
-0.35553	
-0.37384	
-0.389954	
-0.404846	
-0.417603	
-0.428772	
-0.436707	
-0.441589	
-0.444397	
-0.447571	
-0.450684	
-0.453491	
-0.456482	
-0.459045	
-0.457153	
-0.439941	
-0.384766	
-0.273621	
-0.121765	
0.0430298	
0.185364	
0.286133	
0.34491	
0.36853	
0.364014	
0.337769	
0.297607	
0.245483	
0.183655	
0.114441	
0.0429688	
-0.026062	
-0.0853882	
-0.133179	
-0.16864	
-0.194336	
-0.212219	
-0.227539	
-0.241577	
-0.256104	
-0.270691	
-0.284058	
-0.299438	
-0.318054	
-0.33429	
-0.351685	
-0.368286	
-0.383362	
-0.398071	
-0.40863	
-0.416321	
-0.421692	
-0.424622	
-0.427185	
-0.428162	
-0.428589	
-0.425232	
-0.420898	
-0.40387	
-0.354248	
-0.253113	
-0.106689	
0.0548706	
0.200012	
0.304993	
0.364258	
0.388	
0.383911	
0.360901	
0.323669	
0.274292	
0.217529	
0.149658	
0.0765381	
0.00488281	
-0.0577393	
-0.106995	
-0.143982	
-0.170776	
-0.188843	
-0.204773	
-0.219482	
-0.232666	
-0.248474	
-0.266541	
-0.283936	
-0.302673	
-0.32074	
-0.337158	
-0.354736	
-0.372437	
-0.387268	
-0.400818	
-0.411926	
-0.420837	
-0.427185	
-0.43103	
-0.436279	
-0.440613	
-0.443176	
-0.441284	
-0.420654	
-0.356567	
-0.238159	
-0.0794678	
0.0873413	
0.226501	
0.320923	
0.373901	
0.392639	
0.386169	
0.361328	
0.324646	
0.277649	
0.219299	
0.152161	
0.0803223	
0.0110474	
-0.0530396	
-0.106995	
-0.147522	
-0.176758	
-0.199219	
-0.218018	
-0.236206	
-0.253113	
-0.270142	
-0.287048	
-0.304565	
-0.321045	
-0.338013	
-0.356384	
-0.37439	
-0.391052	
-0.405518	
-0.418701	
-0.42926	
-0.436523	
-0.442871	
-0.449158	
-0.455444	
-0.459229	
-0.460999	
-0.458313	
-0.435486	
-0.368225	
-0.248047	
-0.0852051	
0.0847778	
0.223572	
0.320374	
0.375061	
0.394592	
0.386414	
0.360596	
0.321045	
0.268555	
0.207642	
0.139465	
0.0664673	
-0.00549316	
-0.0710449	
-0.125916	
-0.168823	
-0.200134	
-0.223083	
-0.240479	
-0.256165	
-0.269836	
-0.285034	
-0.30127	
-0.317871	
-0.334534	
-0.35144	
-0.369507	
-0.386597	
-0.405273	
-0.424133	
-0.436401	
-0.445984	
-0.453552	
-0.459473	
-0.465942	
-0.47113	
-0.473511	
-0.472473	
-0.467407	
-0.446167	
-0.37915	
-0.25592	
-0.0926514	
0.0761719	
0.2146	
0.309265	
0.360657	
0.376099	
0.367371	
0.338074	
0.294983	
0.242981	
0.181702	
0.110229	
0.0340576	
-0.0383911	
-0.0991821	
-0.146362	
-0.180237	
-0.202576	
-0.219788	
-0.232849	
-0.245361	
-0.25769	
-0.27179	
-0.28833	
-0.304993	
-0.322632	
-0.34082	
-0.358582	
-0.375183	
-0.39032	
-0.402344	
-0.412048	
-0.420654	
-0.428284	
-0.434875	
-0.440613	
-0.445557	
-0.445801	
-0.443359	
-0.432495	
-0.392761	
-0.299011	
-0.154968	
0.0101318	
0.161743	
0.275269	
0.342102	
0.370605	
0.37146	
0.350647	
0.312256	
0.262085	
0.201904	
0.13385	
0.0609131	
-0.0100708	
-0.0701294	
-0.118469	
-0.156921	
-0.185974	
-0.207275	
-0.22467	
-0.236938	
-0.248352	
-0.262268	
-0.277527	
-0.29187	
-0.30542	
-0.320313	
-0.337036	
-0.353516	
-0.368835	
-0.383301	
-0.396606	
-0.409241	
-0.419678	
-0.428284	
-0.436584	
-0.44397	
-0.450256	
-0.451172	
-0.438049	
-0.387329	
-0.281677	
-0.128052	
0.0424194	
0.19043	
0.296021	
0.35675	
0.381348	
0.37616	
0.352112	
0.313538	
0.263123	
0.203369	
0.136475	
0.0645752	
-0.00653076	
-0.069397	
-0.119995	
-0.158569	
-0.188049	
-0.207458	
-0.223755	
-0.237305	
-0.251221	
-0.265259	
-0.279541	
-0.295349	
-0.313293	
-0.332397	
-0.348938	
-0.362671	
-0.378357	
-0.391541	
-0.403564	
-0.413757	
-0.422302	
-0.431702	
-0.439636	
-0.444214	
-0.446472	
-0.441956	
-0.405457	
-0.317261	
-0.177673	
-0.0115967	
0.142578	
0.256348	
0.325195	
0.355408	
0.357239	
0.336182	
0.301575	
0.255127	
0.198547	
0.13324	
0.0595703	
-0.0128784	
-0.0779419	
-0.13147	
-0.172485	
-0.202942	
-0.22522	
-0.241577	
-0.254578	
-0.266907	
-0.281494	
-0.297852	
-0.312988	
-0.327515	
-0.344971	
-0.366028	
-0.386414	
-0.404053	
-0.420532	
-0.4328	
-0.442993	
-0.45282	
-0.46051	
-0.468079	
-0.474121	
-0.477173	
-0.469971	
-0.428955	
-0.333496	
-0.186951	
-0.0197144	
0.130127	
0.237183	
0.298645	
0.322021	
0.315125	
0.287292	
0.246155	
0.194153	
0.131775	
0.0609131	
-0.0118408	
-0.0810547	
-0.139832	
-0.186462	
-0.220032	
-0.245361	
-0.262939	
-0.276733	
-0.289368	
-0.303467	
-0.317078	
-0.331604	
-0.346436	
-0.362183	
-0.380249	
-0.397156	
-0.411865	
-0.424744	
-0.434998	
-0.444946	
-0.454529	
-0.463745	
-0.46936	
-0.473694	
-0.476868	
-0.476379	
-0.46167	
-0.406616	
-0.298523	
-0.1427	
0.0239258	
0.165161	
0.259216	
0.309875	
0.323669	
0.309692	
0.27771	
0.230469	
0.169861	
0.10022	
0.026123	
-0.0472412	
-0.110046	
-0.161499	
-0.198181	
-0.222656	
-0.23938	
-0.253601	
-0.266785	
-0.278137	
-0.289612	
-0.302734	
-0.316162	
-0.331116	
-0.347473	
-0.363708	
-0.379089	
-0.394714	
-0.406738	
-0.416321	
-0.425293	
-0.432983	
-0.438354	
-0.442688	
-0.447266	
-0.452454	
-0.455566	
-0.452148	
-0.422119	
-0.341309	
-0.206665	
-0.0426025	
0.11377	
0.231812	
0.302734	
0.332764	
0.332947	
0.311646	
0.270142	
0.215698	
0.150269	
0.0749512	
-0.00158691	
-0.0697632	
-0.125305	
-0.167542	
-0.198364	
-0.219971	
-0.236511	
-0.252686	
-0.267456	
-0.281921	
-0.294128	
-0.307068	
-0.322144	
-0.338135	
-0.354858	
-0.371643	
-0.386841	
-0.401855	
-0.412476	
-0.422852	
-0.431702	
-0.437988	
-0.44397	
-0.452026	
-0.456787	
-0.460938	
-0.460388	
-0.452759	
-0.418335	
-0.331604	
-0.194458	
-0.0311279	
0.123535	
0.237793	
0.306641	
0.33551	
0.334473	
0.30957	
0.266479	
0.211304	
0.145203	
0.0718994	
0.000183105	
-0.0671387	
-0.124512	
-0.168518	
-0.198364	
-0.218933	
-0.2323	
-0.243469	
-0.254578	
-0.265625	
-0.276123	
-0.28717	
-0.30127	
-0.315369	
-0.330627	
-0.34729	
-0.36438	
-0.379639	
-0.391907	
-0.402954	
-0.413391	
-0.422791	
-0.42865	
-0.432678	
-0.436646	
-0.439392	
-0.437317	
-0.420715	
-0.363892	
-0.250549	
-0.0935669	
0.0745239	
0.218201	
0.315247	
0.367859	
0.384399	
0.372314	
0.340881	
0.293518	
0.234192	
0.163879	
0.0866699	
0.00939941	
-0.0592651	
-0.117554	
-0.160583	
-0.189392	
-0.20752	
-0.221313	
-0.233643	
-0.244385	
-0.255188	
-0.267761	
-0.281555	
-0.296143	
-0.312561	
-0.330872	
-0.348083	
-0.364258	
-0.377441	
-0.389282	
-0.400879	
-0.409607	
-0.416077	
-0.420166	
-0.423462	
-0.426331	
-0.427979	
-0.427551	
-0.414612	
-0.363098	
-0.253845	
-0.0960083	
0.0791626	
0.232727	
0.340027	
0.399841	
0.420471	
0.412415	
0.384399	
0.341553	
0.289856	
0.227051	
0.153992	
0.0776367	
0.00457764	
-0.0595703	
-0.111206	
-0.150696	
-0.178406	
-0.199646	
-0.215759	
-0.229553	
-0.242737	
-0.256287	
-0.270752	
-0.285767	
-0.300171	
-0.316528	
-0.333618	
-0.350037	
-0.366089	
-0.382263	
-0.396912	
-0.409058	
-0.416992	
-0.422668	
-0.428223	
-0.431885	
-0.434204	
-0.436279	
-0.437134	
-0.423828	
-0.373718	
-0.267212	
-0.109375	
0.0697632	
0.227661	
0.338684	
0.40448	
0.431702	
0.428162	
0.401184	
0.357544	
0.302917	
0.239014	
0.166626	
0.0872803	
0.00915527	
-0.0592041	
-0.113586	
-0.152161	
-0.178772	
-0.196838	
-0.213379	
-0.228027	
-0.242676	
-0.255188	
-0.268188	
-0.283936	
-0.302063	
-0.320374	
-0.339905	
-0.358643	
-0.374634	
-0.388306	
-0.399292	
-0.409485	
-0.4198	
-0.425964	
-0.431519	
-0.436951	
-0.445251	
-0.448547	
-0.447937	
-0.442444	
-0.418396	
-0.350464	
-0.224365	
-0.055542	
0.116638	
0.255371	
0.346252	
0.395264	
0.410583	
0.39679	
0.364685	
0.318298	
0.26178	
0.194946	
0.120667	
0.0449829	
-0.0267944	
-0.0864258	
-0.131409	
-0.165771	
-0.192444	
-0.211121	
-0.227722	
-0.242798	
-0.257263	
-0.270508	
-0.283997	
-0.30011	
-0.315613	
-0.332947	
-0.350159	
-0.366699	
-0.385742	
-0.402954	
-0.417542	
-0.429626	
-0.438416	
-0.443176	
-0.447693	
-0.450806	
-0.453857	
-0.456055	
-0.457031	
-0.458008	
-0.44989	
-0.411804	
-0.322083	
-0.178894	
-0.00897217	
0.148376	
0.268127	
0.341736	
0.373108	
0.371338	
0.346252	
0.305359	
0.252197	
0.190247	
0.118774	
0.0431519	
-0.0287476	
-0.0889282	
-0.135315	
-0.170593	
-0.196655	
-0.214783	
-0.22821	
-0.239868	
-0.252136	
-0.264099	
-0.277588	
-0.291016	
-0.304504	
-0.318665	
-0.334595	
-0.349304	
-0.364624	
-0.379211	
-0.392822	
-0.405762	
-0.414673	
-0.420349	
-0.4245	
-0.428772	
-0.431824	
-0.43335	
-0.433716	
-0.429871	
-0.410645	
-0.352417	
-0.240051	
-0.0838013	
0.0856934	
0.231812	
0.333374	
0.388367	
0.404968	
0.394165	
0.362671	
0.318481	
0.263855	
0.198303	
0.126465	
0.0505371	
-0.0202026	
-0.0806274	
-0.127808	
-0.162781	
-0.187988	
-0.206787	
-0.220581	
-0.232666	
-0.244446	
-0.257507	
-0.274048	
-0.290344	
-0.306458	
-0.323303	
-0.339355	
-0.355652	
-0.370056	
-0.381775	
-0.390442	
-0.39856	
-0.406677	
-0.414612	
-0.420959	
-0.427063	
-0.433105	
-0.435913	
-0.435913	
-0.424133	
-0.38147	
-0.281799	
-0.131165	
0.0404053	
0.195984	
0.310974	
0.38092	
0.411499	
0.411377	
0.389526	
0.349854	
0.301453	
0.243042	
0.176453	
0.104065	
0.0314331	
-0.0352783	
-0.0906372	
-0.131958	
-0.162109	
-0.185181	
-0.200378	
-0.214355	
-0.2276	
-0.241516	
-0.256775	
-0.272888	
-0.289673	
-0.306824	
-0.323547	
-0.339844	
-0.356384	
-0.37262	
-0.385864	
-0.39679	
-0.408936	
-0.418274	
-0.427429	
-0.433777	
-0.439392	
-0.44519	
-0.451172	
-0.453979	
-0.447937	
-0.414307	
-0.33136	
-0.194275	
-0.0239258	
0.143127	
0.273071	
0.357849	
0.400024	
0.410767	
0.395203	
0.362793	
0.316223	
0.25885	
0.193909	
0.1203	
0.0445557	
-0.0272827	
-0.0873413	
-0.133667	
-0.16687	
-0.190369	
-0.205933	
-0.217651	
-0.231506	
-0.246033	
-0.261841	
-0.27594	
-0.292358	
-0.310974	
-0.329285	
-0.348022	
-0.363953	
-0.381226	
-0.396973	
-0.410339	
-0.420898	
-0.430237	
-0.436096	
-0.439941	
-0.44397	
-0.448303	
-0.453674	
-0.458069	
-0.460449	
-0.453369	
-0.416931	
-0.328674	
-0.185852	
-0.0140991	
0.147888	
0.272644	
0.35199	
0.390259	
0.396484	
0.378601	
0.340942	
0.289246	
0.228516	
0.160095	
0.0854492	
0.0116577	
-0.0559692	
-0.110229	
-0.15033	
-0.18103	
-0.202026	
-0.218079	
-0.233826	
-0.24823	
-0.260437	
-0.273621	
-0.287964	
-0.305115	
-0.322388	
-0.342102	
-0.362854	
-0.382629	
-0.399475	
-0.413147	
-0.425842	
-0.43634	
-0.441589	
-0.447693	
-0.451782	
-0.453857	
-0.454468	
-0.453674	
-0.451477	
-0.440369	
-0.401672	
-0.314575	
-0.175598	
-0.00982666	
0.145813	
0.26593	
0.338867	
0.370544	
0.371765	
0.350769	
0.313477	
0.264526	
0.206848	
0.138123	
0.0643311	
-0.00946045	
-0.0755005	
-0.127136	
-0.166809	
-0.195984	
-0.213989	
-0.226868	
-0.238342	
-0.250122	
-0.263123	
-0.277466	
-0.291687	
-0.307983	
-0.32373	
-0.338135	
-0.355042	
-0.372681	
-0.388123	
-0.400879	
-0.409668	
-0.417603	
-0.424072	
-0.430542	
-0.437256	
-0.442322	
-0.445374	
-0.443481	
-0.434509	
-0.39679	
-0.306519	
-0.162964	
0.00775146	
0.164001	
0.276428	
0.34259	
0.37085	
0.370972	
0.351135	
0.3172	
0.271973	
0.217529	
0.154785	
0.0849609	
0.0126343	
-0.0540771	
-0.112244	
-0.156433	
-0.185303	
-0.206848	
-0.223145	
-0.237	
-0.25061	
-0.264709	
-0.280396	
-0.296692	
-0.312744	
-0.328613	
-0.346069	
-0.362488	
-0.377563	
-0.3927	
-0.406982	
-0.417725	
-0.426147	
-0.434875	
-0.441956	
-0.448059	
-0.451782	
-0.454834	
-0.457031	
-0.454041	
-0.432373	
-0.364014	
-0.237061	
-0.0665283	
0.103882	
0.237488	
0.324097	
0.368774	
0.379822	
0.364563	
0.331543	
0.287964	
0.238586	
0.181335	
0.115356	
0.0454102	
-0.022583	
-0.0836792	
-0.134216	
-0.171143	
-0.19928	
-0.218262	
-0.233276	
-0.245605	
-0.257568	
-0.271179	
-0.286621	
-0.303955	
-0.321899	
-0.338989	
-0.35614	
-0.37085	
-0.384949	
-0.398987	
-0.409302	
-0.418152	
-0.42511	
-0.432556	
-0.440186	
-0.44635	
-0.454712	
-0.461243	
-0.463257	
-0.455688	
-0.418396	
-0.327576	
-0.182922	
-0.0110474	
0.145142	
0.258728	
0.325623	
0.354553	
0.356445	
0.334839	
0.297302	
0.248047	
0.192749	
0.129883	
0.0601807	
-0.0108032	
-0.076416	
-0.130432	
-0.17041	
-0.200562	
-0.221741	
-0.237366	
-0.250061	
-0.263428	
-0.276062	
-0.290833	
-0.305359	
-0.321472	
-0.338013	
-0.352417	
-0.368408	
-0.385803	
-0.400452	
-0.413818	
-0.426941	
-0.437866	
-0.448364	
-0.454285	
-0.460022	
-0.465149	
-0.468872	
-0.471741	
-0.470398	
-0.458801	
-0.415466	
-0.319763	
-0.170837	
0.00250244	
0.15625	
0.263733	
0.324768	
0.348755	
0.346313	
0.322266	
0.282837	
0.232422	
0.171997	
0.103943	
0.0308838	
-0.039856	
-0.100586	
-0.146606	
-0.181091	
-0.206543	
-0.224182	
-0.236145	
-0.248718	
-0.260803	
-0.274048	
-0.286865	
-0.301758	
-0.316956	
-0.33197	
-0.347107	
-0.360291	
-0.372803	
-0.382446	
-0.391846	
-0.398926	
-0.405579	
-0.412354	
-0.416748	
-0.420776	
-0.4245	
-0.426819	
-0.425171	
-0.409851	
-0.354797	
-0.245972	
-0.0919189	
0.0731201	
0.208191	
0.299011	
0.347839	
0.362488	
0.351196	
0.321411	
0.278137	
0.225586	
0.165527	
0.0969849	
0.0256348	
-0.0422363	
-0.100891	
-0.145813	
-0.178528	
-0.199402	
-0.211914	
-0.223755	
-0.234192	
-0.245667	
-0.25708	
-0.270386	
-0.287537	
-0.304565	
-0.322449	
-0.342468	
-0.36261	
-0.378418	
-0.392578	
-0.403809	
-0.412659	
-0.42157	
-0.426514	
-0.431396	
-0.436218	
-0.439331	
-0.438843	
-0.430725	
-0.391296	
-0.299805	
-0.152832	
0.0194092	
0.174927	
0.287781	
0.354309	
0.381836	
0.381775	
0.362244	
0.327515	
0.281006	
0.227966	
0.167236	
0.0986328	
0.0285645	
-0.0363159	
-0.0917358	
-0.136108	
-0.168335	
-0.19043	
-0.207275	
-0.221497	
-0.235352	
-0.249939	
-0.263916	
-0.279785	
-0.298279	
-0.31842	
-0.338806	
-0.360352	
-0.379395	
-0.39563	
-0.411194	
-0.423096	
-0.431152	
-0.435547	
-0.43988	
-0.443481	
-0.446106	
-0.44873	
-0.448975	
-0.437134	
-0.396118	
-0.303467	
-0.157166	
0.0152588	
0.172424	
0.285339	
0.350708	
0.378967	
0.376221	
0.350464	
0.311401	
0.263794	
0.207825	
0.146606	
0.0780029	
0.00738525	
-0.0562134	
-0.109741	
-0.149597	
-0.177124	
-0.197327	
-0.213501	
-0.22699	
-0.239502	
-0.252502	
-0.267639	
-0.283691	
-0.301758	
-0.320679	
-0.341064	
-0.362915	
-0.383484	
-0.400024	
-0.412903	
-0.423828	
-0.432434	
-0.441528	
-0.447266	
-0.451904	
-0.455261	
-0.456055	
-0.452881	
-0.441711	
-0.409058	
-0.328735	
-0.192932	
-0.0238647	
0.134888	
0.254456	
0.326782	
0.356262	
0.355957	
0.33429	
0.298645	
0.251892	
0.19696	
0.134155	
0.0643311	
-0.00848389	
-0.0733032	
-0.124573	
-0.163391	
-0.193665	
-0.21344	
-0.228271	
-0.238586	
-0.247925	
-0.258728	
-0.271301	
-0.285461	
-0.300049	
-0.317505	
-0.335266	
-0.352234	
-0.368103	
-0.382019	
-0.395813	
-0.407532	
-0.415649	
-0.422424	
-0.426819	
-0.430115	
-0.43103	
-0.43103	
-0.426392	
-0.40863	
-0.353699	
-0.246155	
-0.0908203	
0.0765381	
0.215454	
0.308289	
0.358398	
0.372192	
0.358582	
0.327942	
0.286011	
0.233704	
0.172485	
0.103638	
0.0305786	
-0.0407104	
-0.0996704	
-0.144653	
-0.175781	
-0.196106	
-0.211731	
-0.224915	
-0.236023	
-0.248047	
-0.262451	
-0.276062	
-0.290771	
-0.307556	
-0.325378	
-0.340881	
-0.35791	
-0.375488	
-0.389648	
-0.401428	
-0.411499	
-0.418518	
-0.422668	
-0.427307	
-0.432556	
-0.437195	
-0.439026	
-0.428772	
-0.385498	
-0.286926	
-0.135071	
0.0370483	
0.185791	
0.291565	
0.352051	
0.376221	
0.372375	
0.347534	
0.309448	
0.261108	
0.205017	
0.142456	
0.074646	
0.00384521	
-0.0626831	
-0.117371	
-0.15509	
-0.182373	
-0.202698	
-0.217773	
-0.229004	
-0.241333	
-0.2547	
-0.269775	
-0.287964	
-0.305481	
-0.32312	
-0.343811	
-0.365845	
-0.384827	
-0.399353	
-0.410828	
-0.419312	
-0.427307	
-0.431885	
-0.437561	
-0.444519	
-0.450989	
-0.454285	
-0.449707	
-0.425781	
-0.358398	
-0.235229	
-0.069458	
0.0949707	
0.22467	
0.307678	
0.348022	
0.35614	
0.338135	
0.303284	
0.257874	
0.204895	
0.14624	
0.0812988	
0.0106201	
-0.0566406	
-0.114197	
-0.159485	
-0.192078	
-0.213684	
-0.230774	
-0.246033	
-0.262024	
-0.276855	
-0.290527	
-0.306274	
-0.322144	
-0.339294	
-0.357849	
-0.376648	
-0.396057	
-0.413208	
-0.425354	
-0.436462	
-0.444458	
-0.449829	
-0.456543	
-0.460388	
-0.46106	
-0.461548	
-0.460327	
-0.455261	
-0.432068	
-0.363708	
-0.23761	
-0.0721436	
0.0928345	
0.22229	
0.303711	
0.342773	
0.34729	
0.327576	
0.291138	
0.243408	
0.185791	
0.120361	
0.0491333	
-0.0245361	
-0.0927124	
-0.14801	
-0.189636	
-0.217773	
-0.235107	
-0.248291	
-0.259644	
-0.269897	
-0.280884	
-0.291992	
-0.305603	
-0.319885	
-0.335938	
-0.355103	
-0.372559	
-0.389465	
-0.404663	
-0.416077	
-0.423767	
-0.427979	
-0.430481	
-0.43335	
-0.434998	
-0.435059	
-0.433289	
-0.42981	
-0.414429	
-0.367981	
-0.268921	
-0.120483	
0.0475464	
0.19574	
0.299988	
0.355835	
0.374695	
0.366394	
0.338684	
0.295776	
0.243286	
0.182068	
0.112244	
0.0396118	
-0.0285645	
-0.0883179	
-0.134521	
-0.16925	
-0.193359	
-0.209473	
-0.225098	
-0.237427	
-0.249207	
-0.262451	
-0.276917	
-0.293579	
-0.309631	
-0.325745	
-0.342773	
-0.359497	
-0.375916	
-0.388916	
-0.400024	
-0.408752	
-0.415222	
-0.421814	
-0.428223	
-0.433899	
-0.43927	
-0.441467	
-0.437439	
-0.40802	
-0.327393	
-0.187134	
-0.0116577	
0.156921	
0.286865	
0.365845	
0.401978	
0.40448	
0.381348	
0.342285	
0.291321	
0.232971	
0.168701	
0.0982666	
0.0258789	
-0.0435181	
-0.104065	
-0.150696	
-0.184326	
-0.206055	
-0.22113	
-0.23407	
-0.245361	
-0.256775	
-0.268921	
-0.283264	
-0.300781	
-0.316711	
-0.334412	
-0.352173	
-0.368896	
-0.383911	
-0.398071	
-0.411987	
-0.422241	
-0.432251	
-0.440002	
-0.44519	
-0.449646	
-0.452454	
-0.453857	
-0.45166	
-0.430786	
-0.366333	
-0.245667	
-0.0789795	
0.0938721	
0.235046	
0.330566	
0.379395	
0.388916	
0.369995	
0.334167	
0.286865	
0.233643	
0.172913	
0.103455	
0.0316162	
-0.0393066	
-0.101685	
-0.149841	
-0.185364	
-0.210754	
-0.229187	
-0.243591	
-0.255859	
-0.2677	
-0.28064	
-0.294617	
-0.308899	
-0.326416	
-0.344666	
-0.362244	
-0.382019	
-0.400818	
-0.417053	
-0.430664	
-0.440186	
-0.448303	
-0.455322	
-0.460999	
-0.465393	
-0.468079	
-0.469604	
-0.468811	
-0.463501	
-0.438721	
-0.369446	
-0.24353	
-0.0764771	
0.0910034	
0.227356	
0.316406	
0.362793	
0.370728	
0.351624	
0.315125	
0.268066	
0.208984	
0.141785	
0.0686035	
-0.00372314	
-0.0685425	
-0.122681	
-0.165649	
-0.195374	
-0.216248	
-0.230774	
-0.243042	
-0.254639	
-0.267212	
-0.282288	
-0.298157	
-0.31488	
-0.33313	
-0.354126	
-0.373779	
-0.392029	
-0.406433	
-0.416504	
-0.424988	
-0.431763	
-0.435547	
-0.43866	
-0.442261	
-0.444275	
-0.442017	
-0.438171	
-0.428406	
-0.401611	
-0.332947	
-0.208008	
-0.0430298	
0.125427	
0.261047	
0.347961	
0.390869	
0.399658	
0.380005	
0.341553	
0.292175	
0.23291	
0.16626	
0.0949097	
0.0198975	
-0.0487671	
-0.107544	
-0.150024	
-0.178711	
-0.197815	
-0.214111	
-0.228027	
-0.240112	
-0.252625	
-0.265747	
-0.280579	
-0.297729	
-0.316406	
-0.335693	
-0.355591	
-0.370911	
-0.385559	
-0.396118	
-0.40564	
-0.413452	
-0.419434	
-0.424744	
-0.429443	
-0.432861	
-0.43634	
-0.433411	
-0.423889	
-0.384827	
-0.295532	
-0.150574	
0.0223389	
0.181885	
0.299377	
0.369507	
0.402222	
0.402161	
0.377197	
0.335693	
0.282471	
0.221558	
0.153137	
0.0806885	
0.00970459	
-0.0557251	
-0.110901	
-0.152283	
-0.182739	
-0.205017	
-0.220459	
-0.233276	
-0.247192	
-0.259827	
-0.273865	
-0.290405	
-0.30835	
-0.328247	
-0.347778	
-0.365417	
-0.382813	
-0.398865	
-0.411194	
-0.420593	
-0.427368	
-0.433411	
-0.437317	
-0.441589	
-0.446289	
-0.448669	
-0.448914	
-0.440308	
-0.41394	
-0.341553	
-0.210693	
-0.0397339	
0.129211	
0.262573	
0.348999	
0.394409	
0.405518	
0.388794	
0.350159	
0.296814	
0.234802	
0.167114	
0.0950928	
0.0203857	
-0.0509033	
-0.111267	
-0.156677	
-0.187195	
-0.209778	
-0.227478	
-0.243408	
-0.255737	
-0.267883	
-0.283508	
-0.300171	
-0.319397	
-0.338501	
-0.356567	
-0.376099	
-0.394348	
-0.409424	
-0.42218	
-0.432068	
-0.440735	
-0.446167	
-0.449158	
-0.452515	
-0.456543	
-0.460327	
-0.460754	
-0.456848	
-0.444031	
-0.397278	
-0.294067	
-0.139465	
0.0326538	
0.186401	
0.297913	
0.361877	
0.386536	
0.378723	
0.349243	
0.304077	
0.249084	
0.187561	
0.117432	
0.0405273	
-0.0346069	
-0.101196	
-0.1521	
-0.188416	
-0.212402	
-0.228882	
-0.239868	
-0.250366	
-0.259644	
-0.269897	
-0.281128	
-0.293579	
-0.30896	
-0.325195	
-0.342712	
-0.359863	
-0.375305	
-0.388428	
-0.399414	
-0.406494	
-0.412598	
-0.417969	
-0.422485	
-0.427795	
-0.432373	
-0.4328	
-0.427979	
-0.406799	
-0.347046	
-0.23407	
-0.0750122	
0.0925903	
0.232544	
0.327148	
0.375977	
0.390625	
0.377319	
0.342468	
0.293518	
0.233215	
0.163635	
0.0878906	
0.00952148	
-0.0637817	
-0.121826	
-0.163391	
-0.191956	
-0.210938	
-0.223816	
-0.234436	
-0.244324	
-0.255188	
-0.266907	
-0.280457	
-0.294128	
-0.308777	
-0.323303	
-0.339905	
-0.35553	
-0.371399	
-0.385986	
-0.398071	
-0.405212	
-0.410461	
-0.416565	
-0.422302	
-0.427368	
-0.432495	
-0.434387	
-0.429077	
-0.396118	
-0.312439	
-0.173279	
-0.00134277	
0.161072	
0.283752	
0.359497	
0.393982	
0.397461	
0.375671	
0.335876	
0.284851	
0.222839	
0.151001	
0.0757446	
0.0020752	
-0.0643311	
-0.11908	
-0.161377	
-0.191223	
-0.208862	
-0.220947	
-0.232666	
-0.243469	
-0.25415	
-0.268005	
-0.282959	
-0.302673	
-0.321472	
-0.340393	
-0.358521	
-0.375732	
-0.390869	
-0.40448	
-0.413269	
-0.41748	
-0.423096	
-0.427673	
-0.432434	
-0.436035	
-0.437744	
-0.43866	
-0.432922	
-0.399231	
-0.310364	
-0.165894	
0.00665283	
0.166626	
0.286926	
0.360107	
0.391235	
0.391907	
0.367554	
0.325439	
0.272949	
0.212524	
0.144897	
0.0700073	
-0.00592041	
-0.0726318	
-0.126709	
-0.168579	
-0.198547	
-0.21875	
-0.235046	
-0.250366	
-0.262695	
-0.274719	
-0.286743	
-0.300049	
-0.316284	
-0.333252	
-0.34967	
-0.365601	
-0.381104	
-0.396912	
-0.410645	
-0.419739	
-0.42688	
-0.432617	
-0.437927	
-0.444031	
-0.447998	
-0.451172	
-0.450806	
-0.442383	
-0.405151	
-0.31604	
-0.172668	
-0.00524902	
0.148743	
0.261597	
0.331482	
0.362122	
0.362305	
0.339722	
0.298523	
0.244446	
0.183105	
0.114563	
0.0391846	
-0.0325317	
-0.0953979	
-0.146484	
-0.184143	
-0.21051	
-0.228638	
-0.242737	
-0.254089	
-0.264099	
-0.272339	
-0.282776	
-0.297668	
-0.313721	
-0.331543	
-0.350037	
-0.368347	
-0.386658	
-0.401428	
-0.413208	
-0.420898	
-0.427063	
-0.432495	
-0.438171	
-0.441833	
-0.444519	
-0.44696	
-0.448486	
-0.442383	
-0.410828	
-0.329407	
-0.191895	
-0.020752	
0.141296	
0.262329	
0.336426	
0.370605	
0.373901	
0.352966	
0.313293	
0.257874	
0.1922	
0.120117	
0.0454102	
-0.0266724	
-0.0891724	
-0.137573	
-0.171509	
-0.191956	
-0.205017	
-0.215759	
-0.226501	
-0.236816	
-0.247864	
-0.260803	
-0.273804	
-0.288208	
-0.305054	
-0.32196	
-0.341125	
-0.359741	
-0.373596	
-0.385559	
-0.39386	
-0.40094	
-0.40741	
-0.411865	
-0.41626	
-0.420105	
-0.421814	
-0.420166	
-0.401001	
-0.33667	
-0.215271	
-0.0526123	
0.11322	
0.246155	
0.332642	
0.377563	
0.387512	
0.371338	
0.334412	
0.284241	
0.224182	
0.156738	
0.081543	
0.00384521	
-0.0661621	
-0.125244	
-0.168457	
-0.198364	
-0.217834	
-0.229553	
-0.239807	
-0.25116	
-0.262207	
-0.27417	
-0.290649	
-0.309021	
-0.327637	
-0.344788	
-0.362305	
-0.378784	
-0.394653	
-0.408386	
-0.417297	
-0.423401	
-0.429871	
-0.434692	
-0.439453	
-0.44519	
-0.450134	
-0.451965	
-0.447998	
-0.422607	
-0.352112	
-0.22229	
-0.0531616	
0.113342	
0.244141	
0.329407	
0.373352	
0.383667	
0.369202	
0.335632	
0.289673	
0.232971	
0.16626	
0.0928955	
0.0196533	
-0.0463257	
-0.104004	
-0.147034	
-0.177917	
-0.200134	
-0.215393	
-0.228699	
-0.242798	
-0.257813	
-0.273743	
-0.290588	
-0.308655	
-0.32666	
-0.345154	
-0.363342	
-0.379028	
-0.392761	
-0.406067	
-0.416382	
-0.424255	
-0.43158	
-0.437927	
-0.444031	
-0.450439	
-0.454712	
-0.457092	
-0.454285	
-0.435059	
-0.374817	
-0.259338	
-0.0987549	
0.071106	
0.211975	
0.306152	
0.358582	
0.374634	
0.363892	
0.334106	
0.291504	
0.235107	
0.169556	
0.0973511	
0.0213013	
-0.0510254	
-0.11499	
-0.165039	
-0.199768	
-0.225281	
-0.240662	
-0.255371	
-0.269531	
-0.281067	
-0.292419	
-0.306702	
-0.324585	
-0.344666	
-0.365234	
-0.385803	
-0.40448	
-0.422058	
-0.436157	
-0.44751	
-0.457275	
-0.465942	
-0.470032	
-0.472839	
-0.475342	
-0.477661	
-0.480835	
-0.48053	
-0.476074	
-0.458679	
-0.405945	
-0.296448	
-0.136902	
0.0386353	
0.188721	
0.293335	
0.352722	
0.374878	
0.367676	
0.339172	
0.295837	
0.239624	
0.174927	
0.101624	
0.0253296	
-0.0449219	
-0.105896	
-0.151672	
-0.183533	
-0.204407	
-0.219788	
-0.233826	
-0.245728	
-0.257324	
-0.269165	
-0.281982	
-0.296753	
-0.314148	
-0.332031	
-0.350281	
-0.367798	
-0.38385	
-0.398621	
-0.410156	
-0.419312	
-0.42627	
-0.430725	
-0.436096	
-0.440674	
-0.441772	
-0.442871	
-0.441772	
-0.437622	
-0.421875	
-0.369141	
-0.259888	
-0.101746	
0.071228	
0.218262	
0.321228	
0.379883	
0.399597	
0.391846	
0.363403	
0.31781	
0.262268	
0.195435	
0.119751	
0.0421143	
-0.0308228	
-0.0909424	
-0.135498	
-0.168518	
-0.188049	
-0.201233	
-0.214111	
-0.225342	
-0.235596	
-0.247314	
-0.262329	
-0.277832	
-0.295776	
-0.313171	
-0.332214	
-0.352173	
-0.371399	
-0.387939	
-0.399475	
-0.407837	
-0.4151	
-0.420471	
-0.422241	
-0.424072	
-0.426697	
-0.427795	
-0.428528	
-0.4245	
-0.397766	
-0.322205	
-0.190247	
-0.0211182	
0.145996	
0.275452	
0.359497	
0.401978	
0.412292	
0.396667	
0.363831	
0.317871	
0.262146	
0.197388	
0.124268	
0.0478516	
-0.0261841	
-0.0878296	
-0.133179	
-0.166565	
-0.189758	
-0.207947	
-0.219788	
-0.231567	
-0.246216	
-0.264038	
-0.281006	
-0.300842	
-0.320801	
-0.340149	
-0.357971	
-0.373413	
-0.383667	
-0.394897	
-0.406677	
-0.417969	
-0.426392	
-0.432678	
-0.436035	
-0.439331	
-0.444214	
-0.449829	
-0.452087	
-0.449829	
-0.436218	
-0.383911	
-0.272644	
-0.112427	
0.0622559	
0.214905	
0.322998	
0.386597	
0.410522	
0.406738	
0.38031	
0.338379	
0.283203	
0.218933	
0.148499	
0.0737915	
6.10352E-05	
-0.0639038	
-0.115723	
-0.155518	
-0.18335	
-0.203125	
-0.217896	
-0.230347	
-0.243042	
-0.255554	
-0.26886	
-0.283875	
-0.300903	
-0.320007	
-0.337891	
-0.356079	
-0.372803	
-0.387329	
-0.399353	
-0.409363	
-0.417114	
-0.424561	
-0.428223	
-0.429504	
-0.433655	
-0.437866	
-0.439636	
-0.438171	
-0.432495	
-0.408936	
-0.341614	
-0.214417	
-0.046936	
0.120605	
0.25647	
0.345886	
0.395813	
0.410339	
0.399231	
0.368591	
0.324219	
0.266968	
0.200623	
0.127563	
0.0515747	
-0.0172729	
-0.0750122	
-0.120483	
-0.15387	
-0.177002	
-0.194702	
-0.210388	
-0.225708	
-0.238586	
-0.252441	
-0.268066	
-0.284546	
-0.302246	
-0.321167	
-0.338135	
-0.354858	
-0.373962	
-0.390564	
-0.405457	
-0.41748	
-0.424133	
-0.426941	
-0.42926	
-0.432739	
-0.435425	
-0.437134	
-0.437866	
-0.434998	
-0.427429	
-0.395813	
-0.314636	
-0.177795	
-0.00726318	
0.157043	
0.282593	
0.360413	
0.396729	
0.401062	
0.380859	
0.341919	
0.290649	
0.229004	
0.157349	
0.0804443	
0.00579834	
-0.0582275	
-0.108826	
-0.145447	
-0.172241	
-0.190002	
-0.203125	
-0.214905	
-0.227539	
-0.240479	
-0.254272	
-0.269531	
-0.285767	
-0.302063	
-0.319092	
-0.336304	
-0.354553	
-0.370361	
-0.38269	
-0.394287	
-0.403748	
-0.410767	
-0.414368	
-0.417358	
-0.4198	
-0.422241	
-0.42511	
-0.423157	
-0.409546	
-0.361511	
-0.259216	
-0.106934	
0.0639038	
0.212585	
0.317078	
0.377258	
0.401672	
0.395508	
0.368408	
0.327698	
0.27417	
0.210205	
0.13916	
0.062561	
-0.0098877	
-0.0744629	
-0.127258	
-0.166809	
-0.194946	
-0.212646	
-0.224548	
-0.235596	
-0.245667	
-0.257202	
-0.270752	
-0.287598	
-0.307861	
-0.326721	
-0.344604	
-0.361694	
-0.376892	
-0.389099	
-0.401245	
-0.410645	
-0.419739	
-0.427124	
-0.430176	
-0.432495	
-0.434753	
-0.437195	
-0.437378	
-0.432922	
-0.408508	
-0.340027	
-0.214539	
-0.0487061	
0.120544	
0.256409	
0.343628	
0.388	
0.399292	
0.384766	
0.351318	
0.304382	
0.247437	
0.182495	
0.111877	
0.0377197	
-0.032959	
-0.0925903	
-0.139038	
-0.174133	
-0.198364	
-0.215698	
-0.227478	
-0.238464	
-0.251343	
-0.263794	
-0.276733	
-0.292114	
-0.310913	
-0.329224	
-0.348083	
-0.365356	
-0.380188	
-0.392883	
-0.403381	
-0.413208	
-0.419983	
-0.42627	
-0.429688	
-0.433838	
-0.43689	
-0.437683	
-0.437317	
-0.43396	
-0.412537	
-0.351013	
-0.230469	
-0.0650024	
0.107056	
0.246094	
0.337891	
0.386536	
0.400757	
0.388916	
0.358337	
0.3125	
0.255554	
0.190125	
0.117737	
0.0424194	
-0.0275879	
-0.0871582	
-0.134949	
-0.16925	
-0.193481	
-0.210327	
-0.225647	
-0.242188	
-0.255615	
-0.270447	
-0.287537	
-0.305786	
-0.324402	
-0.342468	
-0.359741	
-0.378357	
-0.394409	
-0.409546	
-0.421082	
-0.429321	
-0.434998	
-0.438049	
-0.440308	
-0.443176	
-0.445801	
-0.445984	
-0.444824	
-0.443176	
-0.431885	
-0.389526	
-0.293945	
-0.14801	
0.0196533	
0.167542	
0.273254	
0.335388	
0.359924	
0.357361	
0.335571	
0.297729	
0.24646	
0.1828	
0.108704	
0.0284424	
-0.0466919	
-0.112244	
-0.164795	
-0.200623	
-0.221558	
-0.234924	
-0.244934	
-0.251282	
-0.256653	
-0.263184	
-0.273376	
-0.28894	
-0.308167	
-0.325623	
-0.339844	
-0.354492	
-0.369507	
-0.382568	
-0.393555	
-0.401794	
-0.408569	
-0.415771	
-0.4198	
-0.424561	
-0.427002	
-0.427368	
-0.427307	
-0.41864	
-0.381775	
-0.294312	
-0.155518	
0.00720215	
0.15625	
0.264648	
0.330505	
0.358154	
0.358765	
0.336182	
0.297424	
0.2453	
0.184937	
0.117859	
0.0430298	
-0.0313721	
-0.0968628	
-0.148193	
-0.181885	
-0.206848	
-0.224854	
-0.236572	
-0.245605	
-0.256226	
-0.266174	
-0.277283	
-0.291077	
-0.306091	
-0.322815	
-0.344238	
-0.365051	
-0.383789	
-0.401978	
-0.414795	
-0.424255	
-0.432678	
-0.439087	
-0.44519	
-0.449768	
-0.454956	
-0.457642	
-0.453186	
-0.438416	
-0.391357	
-0.28949	
-0.136047	
0.0383301	
0.193359	
0.303833	
0.36969	
0.397705	
0.397217	
0.374634	
0.335205	
0.285095	
0.225952	
0.161011	
0.0889893	
0.0151367	
-0.0562134	
-0.11676	
-0.164185	
-0.198242	
-0.221619	
-0.238525	
-0.251404	
-0.262146	
-0.275269	
-0.288757	
-0.30481	
-0.321716	
-0.339294	
-0.359192	
-0.378662	
-0.39563	
-0.409607	
-0.419861	
-0.429138	
-0.437622	
-0.443298	
-0.44635	
-0.450134	
-0.453064	
-0.456665	
-0.460022	
-0.458252	
-0.442688	
-0.387329	
-0.276733	
-0.118103	
0.0558472	
0.206909	
0.314148	
0.377258	
0.403809	
0.401428	
0.378967	
0.340271	
0.289551	
0.231506	
0.168457	
0.0960083	
0.0201416	
-0.0522461	
-0.115417	
-0.163818	
-0.195923	
-0.218872	
-0.235291	
-0.248474	
-0.262146	
-0.276184	
-0.291992	
-0.309692	
-0.32843	
-0.345276	
-0.363708	
-0.382446	
-0.400452	
-0.416077	
-0.42865	
-0.437927	
-0.447937	
-0.4552	
-0.460876	
-0.465393	
-0.46814	
-0.468445	
-0.467896	
-0.464783	
-0.453674	
-0.414368	
-0.322449	
-0.176758	
-0.00494385	
0.15448	
0.271912	
0.342834	
0.37616	
0.379028	
0.360291	
0.325745	
0.280518	
0.227051	
0.1651	
0.0935669	
0.0169678	
-0.0576172	
-0.121216	
-0.169067	
-0.203674	
-0.228149	
-0.24469	
-0.256714	
-0.266663	
-0.278564	
-0.292297	
-0.307617	
-0.325378	
-0.343384	
-0.360413	
-0.374756	
-0.388855	
-0.40271	
-0.416199	
-0.426758	
-0.434021	
-0.440063	
-0.444885	
-0.449097	
-0.449585	
-0.448181	
-0.447876	
-0.444702	
-0.433594	
-0.396057	
-0.307922	
-0.166321	
0.00640869	
0.169861	
0.294006	
0.371216	
0.408264	
0.412537	
0.392944	
0.358643	
0.309998	
0.250793	
0.184387	
0.111633	
0.0344849	
-0.0384521	
-0.101868	
-0.14978	
-0.185547	
-0.209473	
-0.226807	
-0.239868	
-0.253052	
-0.266663	
-0.280823	
-0.292053	
-0.304443	
-0.322815	
-0.341125	
-0.357971	
-0.374573	
-0.390015	
-0.403687	
-0.414673	
-0.423828	
-0.431396	
-0.43396	
-0.434631	
-0.43573	
-0.435547	
-0.434692	
-0.435669	
-0.428772	
-0.390991	
-0.299561	
-0.154236	
0.019104	
0.179626	
0.298645	
0.371094	
0.406799	
0.410522	
0.389526	
0.352356	
0.304626	
0.248779	
0.185608	
0.116699	
0.0436401	
-0.0276489	
-0.0924683	
-0.145203	
-0.182434	
-0.20813	
-0.22699	
-0.242065	
-0.256409	
-0.27002	
-0.283997	
-0.300049	
-0.315796	
-0.332886	
-0.351929	
-0.368408	
-0.381775	
-0.396851	
-0.410645	
-0.420959	
-0.42804	
-0.434143	
-0.436646	
-0.437988	
-0.440247	
-0.442993	
-0.445984	
-0.445984	
-0.442322	
-0.42572	
-0.375	
-0.272949	
-0.120422	
0.0522461	
0.203613	
0.3125	
0.376892	
0.404785	
0.406067	
0.384766	
0.346863	
0.294678	
0.235962	
0.170776	
0.0993652	
0.0264893	
-0.0426025	
-0.0999146	
-0.145447	
-0.178467	
-0.201294	
-0.217285	
-0.22998	
-0.242798	
-0.256897	
-0.272766	
-0.291504	
-0.311401	
-0.331543	
-0.353027	
-0.374146	
-0.392395	
-0.411133	
-0.426331	
-0.438293	
-0.447327	
-0.453613	
-0.459351	
-0.464905	
-0.469116	
-0.471741	
-0.473877	
-0.477295	
-0.47876	
-0.478088	
-0.471375	
-0.439392	
-0.353394	
-0.210632	
-0.036438	
0.127502	
0.253113	
0.333008	
0.370056	
0.373413	
0.352234	
0.314514	
0.264954	
0.205566	
0.137756	
0.064209	
-0.00952148	
-0.0753174	
-0.129639	
-0.168945	
-0.194946	
-0.2146	
-0.229553	
-0.242859	
-0.252441	
-0.264343	
-0.277161	
-0.288086	
-0.298828	
-0.313293	
-0.328186	
-0.342773	
-0.357239	
-0.372009	
-0.387146	
-0.398926	
-0.40625	
-0.410461	
-0.414429	
-0.415222	
-0.412109	
-0.408936	
-0.406067	
-0.402283	
-0.399414	
-0.393982	
-0.38031	
-0.336243	
-0.241211	
-0.0941772	
0.0751343	
0.22821	
0.340332	
0.406555	
0.435303	
0.434509	
0.410767	
0.370728	
0.318359	
0.255737	
0.185425	
0.108154	
0.0334473	
-0.0355225	
-0.0925293	
-0.135681	
-0.165222	
-0.18573	
-0.200195	
-0.212769	
-0.225464	
-0.240112	
-0.256958	
-0.274719	
-0.294739	
-0.314148	
-0.333496	
-0.352112	
-0.369751	
-0.385803	
-0.400452	
-0.411865	
-0.421997	
-0.429443	
-0.4328	
-0.4328	
-0.434387	
-0.4375	
-0.440796	
-0.443176	
-0.444092	
-0.435242	
-0.392029	
-0.294617	
-0.143799	
0.0331421	
0.197388	
0.320068	
0.395081	
0.430725	
0.434265	
0.412231	
0.37323	
0.321472	
0.25946	
0.189148	
0.112854	
0.0326538	
-0.041748	
-0.104004	
-0.151306	
-0.184082	
-0.207336	
-0.225159	
-0.24054	
-0.255737	
-0.268799	
-0.28009	
-0.292969	
-0.307434	
-0.323425	
-0.340698	
-0.360107	
-0.378662	
-0.392456	
-0.406677	
-0.41925	
-0.429565	
-0.43811	
-0.444336	
-0.448181	
-0.451355	
-0.452698	
-0.452393	
-0.45282	
-0.452637	
-0.448181	
-0.435547	
-0.389648	
-0.289551	
-0.137756	
0.0374756	
0.197083	
0.315308	
0.38739	
0.420044	
0.419983	
0.395508	
0.356934	
0.30426	
0.240845	
0.167114	
0.0883789	
0.0118408	
-0.0576782	
-0.116394	
-0.160278	
-0.191284	
-0.214172	
-0.232239	
-0.24707	
-0.259827	
-0.272217	
-0.28418	
-0.297668	
-0.312988	
-0.327637	
-0.344482	
-0.361084	
-0.376526	
-0.390808	
-0.403137	
-0.415955	
-0.427734	
-0.434509	
-0.440247	
-0.443787	
-0.447571	
-0.449768	
-0.451294	
-0.453369	
-0.45343	
-0.451111	
-0.437683	
-0.391663	
-0.294128	
-0.147522	
0.0222168	
0.177917	
0.294434	
0.362976	
0.392212	
0.385132	
0.357544	
0.314575	
0.256653	
0.190796	
0.120056	
0.0440063	
-0.0273438	
-0.0871582	
-0.13324	
-0.167297	
-0.191711	
-0.206665	
-0.218872	
-0.230896	
-0.241455	
-0.249695	
-0.258484	
-0.269348	
-0.281189	
-0.295166	
-0.30957	
-0.322327	
-0.335449	
-0.351379	
-0.364685	
-0.375366	
-0.382813	
-0.389282	
-0.396912	
-0.401062	
-0.402832	
-0.404724	
-0.407532	
-0.407959	
-0.406006	
-0.395203	
-0.358948	
-0.272888	
-0.135315	
0.0308228	
0.190002	
0.312622	
0.387024	
0.41925	
0.417969	
0.393738	
0.351501	
0.295654	
0.23175	
0.161072	
0.086792	
0.0159912	
-0.0471802	
-0.0974121	
-0.133911	
-0.161987	
-0.18335	
-0.198486	
-0.211975	
-0.224365	
-0.237427	
-0.254822	
-0.271118	
-0.286011	
-0.302124	
-0.318237	
-0.336243	
-0.354065	
-0.370544	
-0.387268	
-0.400574	
-0.409241	
-0.415649	
-0.421082	
-0.423767	
-0.424988	
-0.426697	
-0.427917	
-0.430786	
-0.431946	
-0.424927	
-0.392334	
-0.311462	
-0.17688	
-0.00872803	
0.155945	
0.2854	
0.36676	
0.403931	
0.408691	
0.389954	
0.353882	
0.304932	
0.246216	
0.177795	
0.103394	
0.0325928	
-0.0326538	
-0.0863037	
-0.125793	
-0.155579	
-0.176331	
-0.19397	
-0.208923	
-0.220703	
-0.232178	
-0.24585	
-0.260376	
-0.276245	
-0.294373	
-0.312134	
-0.329773	
-0.346008	
-0.36261	
-0.379028	
-0.39386	
-0.406372	
-0.416016	
-0.421631	
-0.425903	
-0.428711	
-0.429688	
-0.42865	
-0.427124	
-0.425171	
-0.421692	
-0.404724	
-0.352051	
-0.246765	
-0.0938721	
0.0739136	
0.222351	
0.328369	
0.38739	
0.407227	
0.396301	
0.365662	
0.319031	
0.259949	
0.193176	
0.123657	
0.0532837	
-0.0154419	
-0.0725098	
-0.118286	
-0.153931	
-0.177917	
-0.19635	
-0.210815	
-0.224548	
-0.236938	
-0.25116	
-0.26709	
-0.282837	
-0.300415	
-0.320435	
-0.339966	
-0.358276	
-0.373535	
-0.385498	
-0.395691	
-0.404419	
-0.411926	
-0.41687	
-0.418823	
-0.420654	
-0.424255	
-0.427734	
-0.431091	
-0.431396	
-0.42572	
-0.404846	
-0.34613	
-0.236816	
-0.0864868	
0.0740967	
0.210632	
0.302551	
0.352417	
0.362671	
0.345276	
0.309265	
0.25769	
0.193665	
0.12262	
0.0485229	
-0.0221558	
-0.0829468	
-0.132935	
-0.171143	
-0.197205	
-0.21521	
-0.227905	
-0.237366	
-0.246765	
-0.254822	
-0.263062	
-0.273682	
-0.28479	
-0.297607	
-0.314026	
-0.330627	
-0.346802	
-0.363647	
-0.376343	
-0.386047	
-0.392456	
-0.397522	
-0.402222	
-0.408142	
-0.413391	
-0.416138	
-0.414063	
-0.410706	
-0.403442	
-0.370544	
-0.295166	
-0.171204	
-0.0137939	
0.141052	
0.262756	
0.33844	
0.373108	
0.374634	
0.351746	
0.310608	
0.257507	
0.194458	
0.126038	
0.0531616	
-0.0184937	
-0.0831299	
-0.132324	
-0.167114	
-0.192383	
-0.208679	
-0.220947	
-0.231323	
-0.242859	
-0.25415	
-0.267578	
-0.283813	
-0.299255	
-0.314941	
-0.331177	
-0.347412	
-0.362427	
-0.379395	
-0.394958	
-0.405701	
-0.414368	
-0.419312	
-0.423218	
-0.427856	
-0.432251	
-0.434692	
-0.435486	
-0.431641	
-0.410583	
-0.345947	
-0.2276	
-0.0668335	
0.0993652	
0.235352	
0.327148	
0.375549	
0.388611	
0.376038	
0.343384	
0.297424	
0.239746	
0.174133	
0.103027	
0.0303345	
-0.0375366	
-0.0941162	
-0.139038	
-0.170593	
-0.191101	
-0.203857	
-0.213379	
-0.22522	
-0.238281	
-0.252075	
-0.268066	
-0.283997	
-0.300842	
-0.318909	
-0.335083	
-0.348633	
-0.363953	
-0.379517	
-0.391907	
-0.403259	
-0.411926	
-0.419189	
-0.424988	
-0.427917	
-0.430603	
-0.431885	
-0.429382	
-0.415527	
-0.363525	
-0.258789	
-0.108582	
0.0566406	
0.19989	
0.297974	
0.351135	
0.368774	
0.359375	
0.328796	
0.282532	
0.226196	
0.160522	
0.0865479	
0.0133057	
-0.0540771	
-0.109558	
-0.152222	
-0.182129	
-0.200562	
-0.214844	
-0.226013	
-0.23877	
-0.252014	
-0.265686	
-0.278809	
-0.292847	
-0.307251	
-0.323425	
-0.340881	
-0.356689	
-0.370178	
-0.382629	
-0.394836	
-0.404175	
-0.41217	
-0.42041	
-0.426636	
-0.430908	
-0.43573	
-0.437317	
-0.436279	
-0.428528	
-0.396484	
-0.319458	
-0.191284	
-0.031189	
0.123535	
0.24231	
0.31665	
0.350891	
0.353699	
0.331726	
0.289246	
0.236267	
0.174988	
0.105591	
0.0339966	
-0.0349121	
-0.0939941	
-0.139038	
-0.171814	
-0.19281	
-0.206848	
-0.21698	
-0.227478	
-0.239319	
-0.249146	
-0.261414	
-0.276855	
-0.294189	
-0.313721	
-0.332092	
-0.350159	
-0.368042	
-0.384949	
-0.398865	
-0.40918	
-0.417419	
-0.423462	
-0.427673	
-0.434021	
-0.438232	
-0.439148	
-0.437073	
-0.42688	
-0.39032	
-0.30481	
-0.169189	
-0.00543213	
0.149536	
0.265259	
0.334839	
0.364563	
0.360535	
0.333191	
0.289917	
0.233459	
0.166565	
0.0956421	
0.0218506	
-0.0467529	
-0.102844	
-0.143066	
-0.169434	
-0.185181	
-0.19635	
-0.204407	
-0.213684	
-0.224915	
-0.235901	
-0.249451	
-0.266052	
-0.283936	
-0.302002	
-0.320374	
-0.33783	
-0.352051	
-0.364929	
-0.376282	
-0.385986	
-0.392578	
-0.397827	
-0.403687	
-0.409851	
-0.412109	
-0.412292	
-0.402039	
-0.360046	
-0.265015	
-0.121216	
0.043335	
0.192017	
0.299744	
0.361389	
0.384399	
0.379578	
0.352173	
0.307129	
0.250183	
0.183228	
0.109436	
0.0355225	
-0.0366211	
-0.0975342	
-0.142822	
-0.176147	
-0.197388	
-0.212402	
-0.224304	
-0.235291	
-0.246765	
-0.259216	
-0.272217	
-0.285645	
-0.302185	
-0.318176	
-0.336182	
-0.355286	
-0.373596	
-0.388733	
-0.399597	
-0.408569	
-0.415771	
-0.42157	
-0.428223	
-0.434937	
-0.438232	
-0.438477	
-0.434631	
-0.410461	
-0.339478	
-0.213135	
-0.0461426	
0.122131	
0.254822	
0.340271	
0.385864	
0.397034	
0.382202	
0.348877	
0.300598	
0.243652	
0.178223	
0.10437	
0.0294189	
-0.0395508	
-0.0968628	
-0.141235	
-0.175049	
-0.197693	
-0.213196	
-0.224854	
-0.234924	
-0.246338	
-0.260986	
-0.27655	
-0.292419	
-0.307007	
-0.325378	
-0.345154	
-0.365356	
-0.384155	
-0.401245	
-0.414795	
-0.424805	
-0.431152	
-0.437195	
-0.442261	
-0.444763	
-0.447266	
-0.447693	
-0.442627	
-0.416382	
-0.344543	
-0.219604	
-0.0586548	
0.101685	
0.227173	
0.310852	
0.352417	
0.360901	
0.344849	
0.309387	
0.259644	
0.200806	
0.133972	
0.0594482	
-0.0172729	
-0.085144	
-0.141785	
-0.187073	
-0.222656	
-0.248657	
-0.267273	
-0.282898	
-0.296387	
-0.309082	
-0.322571	
-0.337402	
-0.354736	
-0.371826	
-0.389038	
-0.406799	
-0.424194	
-0.439697	
-0.452759	
-0.46283	
-0.47113	
-0.477844	
-0.481628	
-0.485291	
-0.490356	
-0.493042	
-0.492188	
-0.484802	
-0.456787	
-0.386047	
-0.263062	
-0.0999756	
0.0655518	
0.198303	
0.285583	
0.331543	
0.343811	
0.330078	
0.298828	
0.253113	
0.197021	
0.130371	
0.0578003	
-0.0135498	
-0.0770264	
-0.126465	
-0.162964	
-0.187683	
-0.20343	
-0.217102	
-0.228455	
-0.238586	
-0.24884	
-0.260742	
-0.274414	
-0.291382	
-0.308105	
-0.325928	
-0.344482	
-0.363037	
-0.381226	
-0.396729	
-0.407471	
-0.416077	
-0.422302	
-0.426086	
-0.42749	
-0.427612	
-0.426208	
-0.421753	
-0.411377	
-0.375305	
-0.29187	
-0.156006	
0.0111084	
0.168274	
0.28894	
0.362976	
0.399292	
0.403564	
0.384399	
0.347595	
0.297546	
0.235107	
0.166199	
0.0922241	
0.0192261	
-0.0460205	
-0.0978394	
-0.13562	
-0.162231	
-0.179443	
-0.191406	
-0.201965	
-0.213379	
-0.22644	
-0.240662	
-0.257751	
-0.276123	
-0.296814	
-0.319397	
-0.342896	
-0.363037	
-0.378784	
-0.389709	
-0.397644	
-0.403564	
-0.407227	
-0.409851	
-0.414978	
-0.42041	
-0.425049	
-0.425659	
-0.420837	
-0.398804	
-0.334839	
-0.2146	
-0.050354	
0.117981	
0.25177	
0.343018	
0.393127	
0.409546	
0.396606	
0.365234	
0.320984	
0.266235	
0.202637	
0.132385	
0.0568237	
-0.0125732	
-0.0755615	
-0.126831	
-0.164185	
-0.190002	
-0.207275	
-0.218628	
-0.229492	
-0.24054	
-0.254272	
-0.27002	
-0.288452	
-0.310425	
-0.331848	
-0.352478	
-0.373352	
-0.389526	
-0.404175	
-0.417358	
-0.426208	
-0.43335	
-0.436951	
-0.437256	
-0.437012	
-0.438416	
-0.439331	
-0.43988	
-0.437561	
-0.416809	
-0.356323	
-0.240051	
-0.0803223	
0.0883179	
0.226318	
0.320862	
0.375549	
0.394226	
0.383789	
0.354614	
0.308716	
0.251282	
0.185486	
0.113281	
0.0380859	
-0.031189	
-0.0911255	
-0.138916	
-0.172913	
-0.196655	
-0.214478	
-0.229065	
-0.241455	
-0.253418	
-0.266357	
-0.28064	
-0.294739	
-0.311462	
-0.327332	
-0.343628	
-0.360596	
-0.376892	
-0.393066	
-0.405762	
-0.415833	
-0.423645	
-0.42926	
-0.432556	
-0.436646	
-0.438171	
-0.438232	
-0.436462	
-0.433655	
-0.424316	
-0.387207	
-0.299255	
-0.156738	
0.0128784	
0.167175	
0.281982	
0.354431	
0.38562	
0.384888	
0.362549	
0.323975	
0.271545	
0.209717	
0.140991	
0.0681152	
-0.00323486	
-0.0673828	
-0.119507	
-0.15802	
-0.185547	
-0.205811	
-0.221008	
-0.235718	
-0.251404	
-0.266968	
-0.280334	
-0.293762	
-0.308472	
-0.324097	
-0.340698	
-0.357666	
-0.374023	
-0.388123	
-0.402649	
-0.415588	
-0.425171	
-0.428833	
-0.433167	
-0.437561	
-0.44043	
-0.441345	
-0.441162	
-0.440552	
-0.435974	
-0.417114	
-0.361206	
-0.252808	
-0.0966187	
0.071228	
0.212524	
0.309021	
0.361755	
0.377625	
0.364929	
0.331543	
0.282776	
0.223633	
0.156616	
0.0844727	
0.00976563	
-0.0588989	
-0.116211	
-0.15863	
-0.188782	
-0.209412	
-0.222717	
-0.233032	
-0.243774	
-0.253967	
-0.264648	
-0.27832	
-0.293457	
-0.309631	
-0.326355	
-0.341919	
-0.357483	
-0.369995	
-0.383728	
-0.395996	
-0.403931	
-0.410461	
-0.414856	
-0.418762	
-0.421204	
-0.423279	
-0.422424	
-0.419617	
-0.414368	
-0.394104	
-0.334167	
-0.220215	
-0.0631714	
0.100403	
0.23761	
0.332336	
0.38269	
0.397156	
0.385437	
0.352356	
0.30365	
0.246094	
0.180054	
0.106384	
0.0308838	
-0.0380249	
-0.0961304	
-0.142456	
-0.174011	
-0.195251	
-0.209839	
-0.222839	
-0.234253	
-0.247498	
-0.262451	
-0.279846	
-0.297485	
-0.316162	
-0.336365	
-0.35553	
-0.374207	
-0.391418	
-0.40564	
-0.417358	
-0.426086	
-0.432068	
-0.435852	
-0.438416	
-0.439514	
-0.442139	
-0.446411	
-0.448975	
-0.449829	
-0.441223	
-0.402588	
-0.31134	
-0.163452	
0.0112305	
0.170532	
0.286804	
0.357849	
0.391785	
0.394714	
0.374695	
0.336548	
0.285645	
0.223572	
0.152405	
0.076416	
0.00250244	
-0.0628052	
-0.115845	
-0.157288	
-0.185791	
-0.205811	
-0.22168	
-0.233704	
-0.244385	
-0.255005	
-0.268494	
-0.284973	
-0.302673	
-0.320129	
-0.336243	
-0.353149	
-0.369141	
-0.38446	
-0.399353	
-0.409058	
-0.417725	
-0.426086	
-0.431152	
-0.434692	
-0.43811	
-0.44043	
-0.442932	
-0.446655	
-0.447693	
-0.440308	
-0.402344	
-0.312195	
-0.168884	
0.0012207	
0.160095	
0.278687	
0.351746	
0.384277	
0.385864	
0.364685	
0.32373	
0.271301	
0.208557	
0.137817	
0.0646973	
-0.00720215	
-0.0721436	
-0.123657	
-0.160339	
-0.186035	
-0.203735	
-0.217957	
-0.229309	
-0.23999	
-0.252991	
-0.267639	
-0.283081	
-0.299744	
-0.317139	
-0.335938	
-0.353394	
-0.369568	
-0.384888	
-0.397217	
-0.406311	
-0.415405	
-0.420898	
-0.424377	
-0.429077	
-0.4328	
-0.435364	
-0.437317	
-0.440552	
-0.441162	
-0.435181	
-0.416443	
-0.36261	
-0.252563	
-0.0942993	
0.0755615	
0.219666	
0.317871	
0.371094	
0.386902	
0.376831	
0.344971	
0.296692	
0.23645	
0.167786	
0.0931396	
0.0198975	
-0.0482788	
-0.103699	
-0.145874	
-0.176147	
-0.195801	
-0.208984	
-0.218994	
-0.228149	
-0.239136	
-0.250366	
-0.259888	
-0.274841	
-0.290649	
-0.306641	
-0.32196	
-0.337708	
-0.352173	
-0.365601	
-0.37854	
-0.389099	
-0.398071	
-0.404907	
-0.408997	
-0.4104	
-0.408813	
-0.408142	
-0.40741	
-0.405029	
-0.401123	
-0.389465	
-0.352173	
-0.264343	
-0.122498	
0.043457	
0.199219	
0.312927	
0.379761	
0.40802	
0.406494	
0.380676	
0.338379	
0.282288	
0.217468	
0.14502	
0.0692749	
-0.00164795	
-0.0619507	
-0.110168	
-0.144836	
-0.167786	
-0.185181	
-0.198669	
-0.209351	
-0.219604	
-0.231628	
-0.243347	
-0.257629	
-0.27179	
-0.287598	
-0.307068	
-0.325684	
-0.341736	
-0.357666	
-0.370789	
-0.383545	
-0.393982	
-0.400696	
-0.405945	
-0.411804	
-0.415894	
-0.418213	
-0.419922	
-0.421814	
-0.422729	
-0.419617	
-0.399353	
-0.336243	
-0.217651	
-0.0560303	
0.113464	
0.253662	
0.346863	
0.396179	
0.411316	
0.401428	
0.37146	
0.326111	
0.272339	
0.210083	
0.139099	
0.0652466	
-0.00366211	
-0.0631714	
-0.107422	
-0.141846	
-0.16748	
-0.18634	
-0.200134	
-0.212524	
-0.225159	
-0.23999	
-0.253845	
-0.270508	
-0.288208	
-0.307251	
-0.326965	
-0.345703	
-0.362732	
-0.378174	
-0.392273	
-0.404602	
-0.414246	
-0.419128	
-0.420898	
-0.421753	
-0.422363	
-0.422852	
-0.421692	
-0.421509	
-0.421692	
-0.415955	
-0.388794	
-0.317017	
-0.190247	
-0.0248413	
0.140503	
0.272949	
0.360229	
0.406067	
0.418457	
0.401917	
0.365845	
0.315063	
0.256531	
0.190674	
0.119934	
0.0480347	
-0.0187378	
-0.0756226	
-0.120605	
-0.15387	
-0.178711	
-0.197266	
-0.210388	
-0.222473	
-0.233337	
-0.247131	
-0.261719	
-0.278198	
-0.296875	
-0.316467	
-0.33551	
-0.354004	
-0.370422	
-0.384277	
-0.395752	
-0.404846	
-0.409851	
-0.415894	
-0.420654	
-0.423096	
-0.424011	
-0.424622	
-0.42511	
-0.42627	
-0.426758	
-0.426453	
-0.423096	
-0.405151	
-0.346436	
-0.231873	
-0.0710449	
0.100891	
0.243164	
0.34021	
0.392334	
0.408325	
0.398071	
0.370178	
0.327271	
0.272522	
0.208496	
0.136292	
0.0609741	
-0.0101929	
-0.0701904	
-0.115967	
-0.149231	
-0.170715	
-0.185303	
-0.198914	
-0.21167	
-0.223022	
-0.235291	
-0.250427	
-0.266968	
-0.283691	
-0.301819	
-0.321411	
-0.340637	
-0.356445	
-0.372131	
-0.388245	
-0.402161	
-0.41272	
-0.419434	
-0.422729	
-0.425537	
-0.426147	
-0.426514	
-0.425903	
-0.424744	
-0.42157	
-0.418701	
-0.410461	
-0.380554	
-0.305054	
-0.176025	
-0.0130005	
0.146729	
0.271851	
0.350281	
0.387085	
0.392578	
0.371033	
0.332703	
0.280884	
0.221863	
0.154663	
0.0830078	
0.0131836	
-0.0495605	
-0.0988159	
-0.134033	
-0.158508	
-0.174438	
-0.18634	
-0.197693	
-0.208008	
-0.218872	
-0.232178	
-0.246948	
-0.262939	
-0.279541	
-0.297668	
-0.314453	
-0.328369	
-0.342163	
-0.357483	
-0.37207	
-0.382751	
-0.391663	
-0.396118	
-0.398132	
-0.400208	
-0.403992	
-0.407288	
-0.409546	
-0.411133	
-0.402771	
-0.366333	
-0.282776	
-0.148132	
0.0167847	
0.172241	
0.290649	
0.361633	
0.392273	
0.39502	
0.374084	
0.337158	
0.289368	
0.230713	
0.164063	
0.0928955	
0.0232544	
-0.039856	
-0.0911255	
-0.131165	
-0.159546	
-0.177979	
-0.19165	
-0.204773	
-0.217346	
-0.22876	
-0.242432	
-0.257385	
-0.275208	
-0.294739	
-0.313904	
-0.332092	
-0.351257	
-0.369141	
-0.38446	
-0.397888	
-0.407288	
-0.413147	
-0.418823	
-0.42334	
-0.426941	
-0.428711	
-0.431152	
-0.431274	
-0.429871	
-0.421509	
-0.386414	
-0.300476	
-0.161377	
0.00939941	
0.169861	
0.293213	
0.368347	
0.402527	
0.407776	
0.388062	
0.349854	
0.299683	
0.241089	
0.176392	
0.108459	
0.0397949	
-0.024292	
-0.0787354	
-0.119812	
-0.150574	
-0.174194	
-0.192444	
-0.209534	
-0.224792	
-0.238098	
-0.25177	
-0.266968	
-0.283264	
-0.301758	
-0.321289	
-0.34137	
-0.359741	
-0.374512	
-0.389343	
-0.40155	
-0.411072	
-0.418762	
-0.425293	
-0.428833	
-0.431458	
-0.435303	
-0.438843	
-0.440063	
-0.439209	
-0.43457	
-0.414246	
-0.350525	
-0.232117	
-0.067688	
0.102295	
0.241943	
0.336426	
0.388611	
0.403809	
0.394287	
0.366089	
0.321716	
0.265076	
0.201233	
0.130188	
0.055542	
-0.015564	
-0.0783691	
-0.125061	
-0.155762	
-0.176086	
-0.187561	
-0.198669	
-0.210144	
-0.223572	
-0.239502	
-0.257629	
-0.275635	
-0.294128	
-0.313843	
-0.332886	
-0.352539	
-0.371765	
-0.387695	
-0.401062	
-0.412415	
-0.419678	
-0.427185	
-0.434631	
-0.439148	
-0.441895	
-0.443115	
-0.444397	
-0.444336	
-0.443176	
-0.435425	
-0.408813	
-0.336243	
-0.205933	
-0.0361938	
0.129944	
0.258301	
0.340454	
0.381287	
0.388489	
0.36908	
0.333191	
0.287109	
0.230103	
0.165955	
0.0965576	
0.0254517	
-0.039917	
-0.0915527	
-0.134155	
-0.161987	
-0.182312	
-0.19873	
-0.213318	
-0.22467	
-0.236572	
-0.250366	
-0.265442	
-0.279968	
-0.294739	
-0.3125	
-0.331177	
-0.350159	
-0.366333	
-0.381348	
-0.395386	
-0.406311	
-0.413147	
-0.418213	
-0.418091	
-0.417725	
-0.415039	
-0.412659	
-0.410156	
-0.406677	
-0.392639	
-0.345581	
-0.246826	
-0.0979004	
0.0678711	
0.21283	
0.315125	
0.371277	
0.391296	
0.381897	
0.351868	
0.307007	
0.251221	
0.187256	
0.117065	
0.0449829	
-0.0236816	
-0.0848389	
-0.129456	
-0.159851	
-0.182007	
-0.198425	
-0.21051	
-0.223022	
-0.235291	
-0.249573	
-0.266479	
-0.283997	
-0.300293	
-0.316833	
-0.334595	
-0.351563	
-0.368896	
-0.38562	
-0.39917	
-0.408813	
-0.414673	
-0.41864	
-0.422241	
-0.427124	
-0.431641	
-0.433167	
-0.433167	
-0.430969	
-0.420593	
-0.384338	
-0.298096	
-0.153015	
0.0201416	
0.179871	
0.294983	
0.365356	
0.398071	
0.398987	
0.378601	
0.341553	
0.292725	
0.236267	
0.172791	
0.10199	
0.0286255	
-0.036438	
-0.0916748	
-0.133423	
-0.165466	
-0.187561	
-0.204834	
-0.21759	
-0.231689	
-0.248108	
-0.264648	
-0.282593	
-0.300964	
-0.319092	
-0.336426	
-0.35376	
-0.371704	
-0.388428	
-0.401001	
-0.412292	
-0.420776	
-0.424988	
-0.426758	
-0.426819	
-0.426147	
-0.426697	
-0.427734	
-0.427979	
-0.425049	
-0.407959	
-0.352112	
-0.242065	
-0.0863037	
0.0791016	
0.215637	
0.310364	
0.364136	
0.383545	
0.375732	
0.347839	
0.303528	
0.250061	
0.188232	
0.120361	
0.0496826	
-0.0222168	
-0.0863647	
-0.134583	
-0.171143	
-0.197144	
-0.214355	
-0.229065	
-0.240417	
-0.251343	
-0.265686	
-0.279175	
-0.2948	
-0.31366	
-0.333618	
-0.35144	
-0.36731	
-0.382202	
-0.39679	
-0.409119	
-0.418518	
-0.427368	
-0.433167	
-0.438782	
-0.441772	
-0.442383	
-0.443909	
-0.446228	
-0.447388	
-0.443359	
-0.429504	
-0.382263	
-0.281372	
-0.127991	
0.0441284	
0.193237	
0.298157	
0.360107	
0.38562	
0.377563	
0.346008	
0.301331	
0.24469	
0.180359	
0.111694	
0.039856	
-0.0287476	
-0.0897827	
-0.140015	
-0.176575	
-0.200684	
-0.217407	
-0.22937	
-0.240356	
-0.251892	
-0.263428	
-0.2771	
-0.293518	
-0.311523	
-0.329834	
-0.347717	
-0.362061	
-0.376831	
-0.389404	
-0.399597	
-0.40979	
-0.418091	
-0.422852	
-0.42627	
-0.43042	
-0.433838	
-0.435181	
-0.43396	
-0.433533	
-0.430054	
-0.411621	
-0.356567	
-0.246643	
-0.0904541	
0.0775757	
0.217407	
0.310608	
0.361816	
0.377808	
0.364136	
0.32959	
0.282043	
0.226074	
0.163086	
0.0939941	
0.0239258	
-0.041687	
-0.0983276	
-0.141724	
-0.17395	
-0.197632	
-0.214478	
-0.228943	
-0.243347	
-0.25531	
-0.268372	
-0.282654	
-0.296692	
-0.313538	
-0.329895	
-0.346008	
-0.362183	
-0.377197	
-0.388489	
-0.398804	
-0.407471	
-0.41449	
-0.420715	
-0.425781	
-0.430176	
-0.432068	
-0.432312	
-0.432556	
-0.427185	
-0.405212	
-0.341797	
-0.225769	
-0.0669556	
0.0977173	
0.231934	
0.322693	
0.373108	
0.388977	
0.377747	
0.348328	
0.303406	
0.249695	
0.188843	
0.121582	
0.0473633	
-0.026123	
-0.0900269	
-0.143066	
-0.180359	
-0.204895	
-0.222839	
-0.236023	
-0.247131	
-0.259094	
-0.270508	
-0.283081	
-0.299011	
-0.316162	
-0.331604	
-0.347412	
-0.362305	
-0.375916	
-0.389465	
-0.400635	
-0.410156	
-0.416504	
-0.422668	
-0.428711	
-0.431946	
-0.435547	
-0.437866	
-0.439758	
-0.44043	
-0.434143	
-0.402039	
-0.319519	
-0.180664	
-0.00891113	
0.154419	
0.278015	
0.355713	
0.393127	
0.398743	
0.38147	
0.343933	
0.291931	
0.231567	
0.163818	
0.0912476	
0.0172729	
-0.0517578	
-0.109009	
-0.153381	
-0.187622	
-0.211182	
-0.226746	
-0.239258	
-0.250977	
-0.263184	
-0.274658	
-0.289063	
-0.304993	
-0.321167	
-0.336426	
-0.352173	
-0.367065	
-0.382568	
-0.397339	
-0.409973	
-0.420044	
-0.428406	
-0.434998	
-0.440186	
-0.444153	
-0.446472	
-0.446777	
-0.445435	
-0.442688	
-0.432983	
-0.397888	
-0.316467	
-0.179688	
-0.0109253	
0.147644	
0.269409	
0.34668	
0.386169	
0.391418	
0.372314	
0.335022	
0.285278	
0.228149	
0.160889	
0.0874634	
0.0114746	
-0.0596313	
-0.118652	
-0.162292	
-0.190918	
-0.209473	
-0.224915	
-0.239746	
-0.251099	
-0.262817	
-0.2771	
-0.292236	
-0.30658	
-0.324341	
-0.342407	
-0.360901	
-0.380554	
-0.397766	
-0.413269	
-0.425354	
-0.434021	
-0.438843	
-0.43988	
-0.440857	
-0.442078	
-0.442261	
-0.441345	
-0.440247	
-0.43689	
-0.42157	
-0.37616	
-0.282104	
-0.136353	
0.0335083	
0.186096	
0.296692	
0.362732	
0.389526	
0.385376	
0.35968	
0.318909	
0.264954	
0.200806	
0.128052	
0.0506592	
-0.0220947	
-0.0848389	
-0.133789	
-0.169678	
-0.191528	
-0.204529	
-0.213196	
-0.221436	
-0.229675	
-0.240845	
-0.255127	
-0.268921	
-0.283386	
-0.296082	
-0.311523	
-0.329102	
-0.345398	
-0.359802	
-0.372925	
-0.383362	
-0.3927	
-0.398438	
-0.403625	
-0.408447	
-0.411926	
-0.414185	
-0.41394	
-0.410706	
-0.398743	
-0.355225	
-0.261047	
-0.114258	
0.0558472	
0.208008	
0.317383	
0.381836	
0.407288	
0.404053	
0.379517	
0.338928	
0.286499	
0.222412	
0.149597	
0.0742798	
0.000671387	
-0.0646362	
-0.116089	
-0.152649	
-0.180969	
-0.200745	
-0.215027	
-0.224792	
-0.235291	
-0.245789	
-0.258667	
-0.271484	
-0.287354	
-0.304443	
-0.322388	
-0.340637	
-0.359009	
-0.373779	
-0.386047	
-0.397339	
-0.406372	
-0.414063	
-0.418396	
-0.421875	
-0.425354	
-0.427551	
-0.430115	
-0.43042	
-0.422913	
-0.385864	
-0.298706	
-0.157715	
0.0147095	
0.174744	
0.294128	
0.368408	
0.403564	
0.405518	
0.384399	
0.34613	
0.294617	
0.234192	
0.168274	
0.0957642	
0.0241089	
-0.0435181	
-0.100586	
-0.14325	
-0.173828	
-0.195557	
-0.211426	
-0.222412	
-0.233337	
-0.246155	
-0.258911	
-0.272522	
-0.287598	
-0.302734	
-0.31897	
-0.334839	
-0.349915	
-0.363708	
-0.37616	
-0.386841	
-0.396484	
-0.404114	
-0.409851	
-0.413818	
-0.417969	
-0.421692	
-0.42572	
-0.426697	
-0.420593	
-0.393799	
-0.321777	
-0.192871	
-0.0252686	
0.136475	
0.264404	
0.348022	
0.388916	
0.39563	
0.379517	
0.34491	
0.294128	
0.23407	
0.166199	
0.0949707	
0.0202637	
-0.0477295	
-0.104919	
-0.148804	
-0.180786	
-0.203308	
-0.219421	
-0.231506	
-0.242249	
-0.253479	
-0.265442	
-0.278992	
-0.295227	
-0.312134	
-0.329773	
-0.345276	
-0.361511	
-0.378174	
-0.392944	
-0.404846	
-0.41626	
-0.425537	
-0.431274	
-0.43573	
-0.439697	
-0.44342	
-0.445679	
-0.444885	
-0.439697	
-0.419434	
-0.363953	
-0.255554	
-0.0997925	
0.0687256	
0.210022	
0.305542	
0.356201	
0.372375	
0.362427	
0.332031	
0.2854	
0.226868	
0.158691	
0.0860596	
0.0109253	
-0.0565796	
-0.111084	
-0.15094	
-0.179077	
-0.198914	
-0.213684	
-0.225098	
-0.236877	
-0.249512	
-0.262634	
-0.277832	
-0.294556	
-0.309753	
-0.325684	
-0.338684	
-0.354126	
-0.368225	
-0.383606	
-0.397278	
-0.407837	
-0.414795	
-0.419983	
-0.42395	
-0.426025	
-0.426697	
-0.42627	
-0.423218	
-0.413086	
-0.381042	
-0.303101	
-0.167725	
0.000244141	
0.159729	
0.28125	
0.355652	
0.388123	
0.388733	
0.364685	
0.325134	
0.273132	
0.211853	
0.141663	
0.06604	
-0.00744629	
-0.0742188	
-0.128479	
-0.166992	
-0.191406	
-0.206177	
-0.219543	
-0.229614	
-0.238098	
-0.246094	
-0.259338	
-0.274658	
-0.289368	
-0.305603	
-0.324158	
-0.342529	
-0.363281	
-0.38031	
-0.392212	
-0.401367	
-0.408142	
-0.412964	
-0.418152	
-0.423462	
-0.429199	
-0.432434	
-0.433044	
-0.426392	
-0.394836	
-0.314453	
-0.175781	
-0.0055542	
0.154968	
0.275146	
0.350464	
0.385559	
0.390564	
0.371216	
0.332458	
0.28302	
0.221802	
0.155029	
0.081604	
0.00683594	
-0.0593262	
-0.115112	
-0.156433	
-0.185852	
-0.205078	
-0.219299	
-0.229919	
-0.239807	
-0.25354	
-0.26825	
-0.282776	
-0.298157	
-0.31488	
-0.333923	
-0.351807	
-0.367493	
-0.382019	
-0.393127	
-0.402466	
-0.409363	
-0.412842	
-0.41571	
-0.42041	
-0.426025	
-0.429199	
-0.430481	
-0.422729	
-0.389099	
-0.306152	
-0.168396	
-0.0012207	
0.153137	
0.266846	
0.33728	
0.370667	
0.373718	
0.351685	
0.311218	
0.257263	
0.198975	
0.13147	
0.0559692	
-0.0189819	
-0.0845337	
-0.138123	
-0.177979	
-0.206543	
-0.226074	
-0.238525	
-0.248779	
-0.259888	
-0.271912	
-0.284302	
-0.297852	
-0.312073	
-0.326843	
-0.341431	
-0.355957	
-0.369141	
-0.382263	
-0.396912	
-0.411133	
-0.421448	
-0.42804	
-0.433899	
-0.440063	
-0.444763	
-0.445435	
-0.443237	
-0.437683	
-0.417358	
-0.358215	
-0.242554	
-0.0819702	
0.0848999	
0.219788	
0.307556	
0.351807	
0.362732	
0.347778	
0.312927	
0.263855	
0.204529	
0.137573	
0.0629883	
-0.0112305	
-0.0769653	
-0.129883	
-0.170776	
-0.198914	
-0.21698	
-0.231995	
-0.24585	
-0.25708	
-0.266296	
-0.276978	
-0.288574	
-0.300842	
-0.313477	
-0.328247	
-0.343872	
-0.358459	
-0.373718	
-0.386047	
-0.394592	
-0.401672	
-0.407471	
-0.412476	
-0.415405	
-0.415894	
-0.415588	
-0.413269	
-0.404419	
-0.372742	
-0.296204	
-0.167114	
-0.00482178	
0.148987	
0.264771	
0.334595	
0.364258	
0.364197	
0.339722	
0.296753	
0.242249	
0.180359	
0.108398	
0.0316772	
-0.043396	
-0.108948	
-0.160583	
-0.195862	
-0.218689	
-0.234009	
-0.246399	
-0.256775	
-0.265808	
-0.273621	
-0.284729	
-0.298889	
-0.314026	
-0.328552	
-0.342896	
-0.358398	
-0.371887	
-0.383728	
-0.393311	
-0.401367	
-0.406982	
-0.41156	
-0.415649	
-0.421082	
-0.424316	
-0.425842	
-0.420166	
-0.388	
-0.309021	
-0.172791	
-0.00390625	
0.152039	
0.26886	
0.343445	
0.37793	
0.380066	
0.359558	
0.321289	
0.270508	
0.211792	
0.142944	
0.0673218	
-0.00927734	
-0.0776367	
-0.135315	
-0.17688	
-0.203796	
-0.220276	
-0.233826	
-0.244385	
-0.254944	
-0.266724	
-0.281189	
-0.29718	
-0.314575	
-0.330505	
-0.346924	
-0.36438	
-0.380005	
-0.390991	
-0.400574	
-0.409302	
-0.417419	
-0.424133	
-0.429321	
-0.432251	
-0.436279	
-0.438721	
-0.435608	
-0.416138	
-0.357117	
-0.244263	
-0.0847778	
0.0807495	
0.215637	
0.303955	
0.348145	
0.358704	
0.341492	
0.305542	
0.259583	
0.203247	
0.138	
0.067627	
-0.00622559	
-0.0775757	
-0.138	
-0.183472	
-0.216003	
-0.238098	
-0.252808	
-0.263245	
-0.273987	
-0.283936	
-0.296387	
-0.30957	
-0.323792	
-0.340942	
-0.359436	
-0.376831	
-0.392761	
-0.406311	
-0.419678	
-0.428162	
-0.435364	
-0.443359	
-0.448975	
-0.452881	
-0.454285	
-0.453369	
-0.451111	
-0.444092	
-0.41925	
-0.350647	
-0.227844	
-0.0691528	
0.0897827	
0.213867	
0.29248	
0.3302	
0.33551	
0.314514	
0.277344	
0.224609	
0.159912	
0.0899048	
0.0164185	
-0.0558472	
-0.119629	
-0.167969	
-0.202026	
-0.224182	
-0.238586	
-0.246765	
-0.253113	
-0.260498	
-0.270264	
-0.283997	
-0.299561	
-0.31427	
-0.328796	
-0.343933	
-0.360107	
-0.375061	
-0.389404	
-0.399963	
-0.408142	
-0.413086	
-0.417969	
-0.421997	
-0.426575	
-0.428467	
-0.427795	
-0.424194	
-0.405945	
-0.348083	
-0.235962	
-0.0791626	
0.0857544	
0.221497	
0.312439	
0.360107	
0.373474	
0.359497	
0.326538	
0.279968	
0.222595	
0.156433	
0.0841064	
0.0115356	
-0.0570679	
-0.115173	
-0.15802	
-0.189087	
-0.210388	
-0.223206	
-0.230896	
-0.240356	
-0.25293	
-0.266174	
-0.279541	
-0.295654	
-0.312866	
-0.328796	
-0.345032	
-0.361938	
-0.377136	
-0.389038	
-0.398499	
-0.406067	
-0.412476	
-0.418945	
-0.423889	
-0.426941	
-0.426147	
-0.424011	
-0.413513	
-0.369019	
-0.272156	
-0.124146	
0.0457153	
0.195496	
0.301636	
0.364319	
0.38916	
0.386475	
0.358276	
0.315796	
0.263	
0.200439	
0.130371	
0.0560303	
-0.0172119	
-0.0823975	
-0.135193	
-0.174744	
-0.200439	
-0.21698	
-0.228821	
-0.23822	
-0.249634	
-0.262512	
-0.274841	
-0.290222	
-0.308044	
-0.325012	
-0.344055	
-0.362671	
-0.378601	
-0.39386	
-0.407043	
-0.417603	
-0.425171	
-0.430237	
-0.436584	
-0.442261	
-0.445374	
-0.446838	
-0.446533	
-0.435974	
-0.39325	
-0.29895	
-0.153564	
0.0193481	
0.177124	
0.291687	
0.357544	
0.383728	
0.3797	
0.3526	
0.310486	
0.255066	
0.191956	
0.122253	
0.0482178	
-0.0240479	
-0.0892944	
-0.140991	
-0.177185	
-0.202393	
-0.21991	
-0.233032	
-0.243042	
-0.254333	
-0.265747	
-0.279541	
-0.294067	
-0.309448	
-0.326294	
-0.344055	
-0.363098	
-0.380493	
-0.396606	
-0.410828	
-0.421814	
-0.429321	
-0.434082	
-0.436584	
-0.440674	
-0.443848	
-0.444397	
-0.444153	
-0.442078	
-0.422974	
-0.365417	
-0.255066	
-0.097229	
0.0726318	
0.213501	
0.30603	
0.355164	
0.367371	
0.353516	
0.318909	
0.267883	
0.20636	
0.137207	
0.0605469	
-0.0159912	
-0.085144	
-0.140625	
-0.178528	
-0.203918	
-0.219299	
-0.230835	
-0.242798	
-0.253723	
-0.263611	
-0.273987	
-0.285645	
-0.298584	
-0.312683	
-0.329224	
-0.347046	
-0.362183	
-0.376526	
-0.386597	
-0.395447	
-0.401733	
-0.407166	
-0.410583	
-0.413086	
-0.415588	
-0.416931	
-0.416565	
-0.410767	
-0.392517	
-0.336304	
-0.222961	
-0.0634155	
0.105957	
0.246277	
0.341797	
0.391418	
0.404236	
0.389221	
0.356384	
0.306702	
0.244446	
0.172974	
0.0971069	
0.022522	
-0.0461426	
-0.103943	
-0.145996	
-0.172424	
-0.18927	
-0.19928	
-0.209778	
-0.223206	
-0.236755	
-0.250854	
-0.264404	
-0.280212	
-0.297791	
-0.315186	
-0.328857	
-0.344543	
-0.359253	
-0.371704	
-0.381042	
-0.388062	
-0.395508	
-0.402283	
-0.408752	
-0.412354	
-0.416199	
-0.417786	
-0.413635	
-0.388733	
-0.314209	
-0.182861	
-0.0115967	
0.157166	
0.287537	
0.368835	
0.407593	
0.413574	
0.39386	
0.356445	
0.304199	
0.244934	
0.177124	
0.103882	
0.0283813	
-0.0421753	
-0.100891	
-0.141357	
-0.169861	
-0.189453	
-0.203003	
-0.214172	
-0.225891	
-0.240417	
-0.25415	
-0.267456	
-0.282715	
-0.298889	
-0.314941	
-0.3349	
-0.353455	
-0.367981	
-0.38092	
-0.391602	
-0.39978	
-0.406677	
-0.412842	
-0.419312	
-0.424377	
-0.428894	
-0.431519	
-0.42804	
-0.402344	
-0.330566	
-0.202087	
-0.0344849	
0.132874	
0.264404	
0.348511	
0.389648	
0.395142	
0.374512	
0.336853	
0.285156	
0.223389	
0.152893	
0.0777588	
0.00164795	
-0.0686646	
-0.127136	
-0.168945	
-0.195862	
-0.214111	
-0.225891	
-0.234314	
-0.242676	
-0.251892	
-0.262695	
-0.276489	
-0.291138	
-0.305237	
-0.322083	
-0.341431	
-0.358887	
-0.375549	
-0.388367	
-0.399536	
-0.407837	
-0.413574	
-0.419983	
-0.425842	
-0.429565	
-0.432129	
-0.431824	
-0.42749	
-0.411194	
-0.356812	
-0.248413	
-0.0927734	
0.0767212	
0.21759	
0.311035	
0.358215	
0.369019	
0.353088	
0.31897	
0.270142	
0.207092	
0.133179	
0.0527344	
-0.0265503	
-0.0953979	
-0.149414	
-0.190063	
-0.219727	
-0.237549	
-0.248291	
-0.256104	
-0.261841	
-0.266785	
-0.275879	
-0.284363	
-0.295166	
-0.308289	
-0.321594	
-0.335632	
-0.349854	
-0.363647	
-0.375671	
-0.385132	
-0.391846	
-0.396362	
-0.399048	
-0.403137	
-0.404541	
-0.403809	
-0.401367	
-0.392761	
-0.359192	
-0.279602	
-0.146912	
0.017395	
0.173462	
0.289551	
0.357666	
0.385193	
0.382568	
0.35675	
0.31311	
0.257141	
0.189087	
0.111206	
0.0297852	
-0.0481567	
-0.112793	
-0.15918	
-0.189453	
-0.209045	
-0.22229	
-0.230957	
-0.240784	
-0.251465	
-0.263428	
-0.276794	
-0.291626	
-0.308105	
-0.323608	
-0.337952	
-0.35437	
-0.36853	
-0.381653	
-0.393005	
-0.402588	
-0.407959	
-0.412537	
-0.417175	
-0.421143	
-0.421936	
-0.421692	
-0.415649	
-0.385437	
-0.309509	
-0.17865	
-0.0098877	
0.152588	
0.2771	
0.354675	
0.391541	
0.396729	
0.377625	
0.341919	
0.293091	
0.235596	
0.168213	
0.0910034	
0.0126953	
-0.0565186	
-0.112549	
-0.152344	
-0.179749	
-0.196777	
-0.209717	
-0.221252	
-0.233154	
-0.246582	
-0.262695	
-0.278015	
-0.293762	
-0.309387	
-0.32373	
-0.340515	
-0.356384	
-0.372192	
-0.385742	
-0.396301	
-0.404968	
-0.411682	
-0.416138	
-0.420776	
-0.423218	
-0.424805	
-0.424194	
-0.407104	
-0.34845	
-0.23407	
-0.0704956	
0.0997925	
0.239502	
0.333313	
0.381165	
0.39386	
0.381409	
0.349487	
0.305786	
0.256287	
0.199219	
0.133545	
0.0610352	
-0.00897217	
-0.0698853	
-0.117065	
-0.152344	
-0.178223	
-0.198242	
-0.212891	
-0.226807	
-0.241272	
-0.258118	
-0.277832	
-0.297974	
-0.319763	
-0.340271	
-0.361755	
-0.382935	
-0.40271	
-0.419617	
-0.433716	
-0.444153	
-0.453979	
-0.463989	
-0.472778	
-0.479309	
-0.480469	
-0.47998	
-0.474792	
-0.4505	
-0.384277	
-0.263306	
-0.0961304	
0.0776367	
0.21875	
0.312317	
0.362854	
0.377991	
0.367004	
0.33606	
0.289246	
0.232605	
0.16687	
0.09021	
0.00848389	
-0.0701294	
-0.138916	
-0.190247	
-0.22406	
-0.245972	
-0.259705	
-0.269775	
-0.279724	
-0.290283	
-0.301819	
-0.314148	
-0.328857	
-0.344788	
-0.361389	
-0.379517	
-0.399658	
-0.418701	
-0.435059	
-0.446777	
-0.456238	
-0.463562	
-0.468872	
-0.474915	
-0.478943	
-0.48114	
-0.479675	
-0.468628	
-0.428772	
-0.340759	
-0.201538	
-0.0291748	
0.131531	
0.250427	
0.32373	
0.361816	
0.368774	
0.351501	
0.316406	
0.26709	
0.207458	
0.142334	
0.0701294	
-0.00421143	
-0.0725708	
-0.128601	
-0.170715	
-0.199036	
-0.218933	
-0.234924	
-0.248779	
-0.26123	
-0.272644	
-0.28656	
-0.302429	
-0.320618	
-0.342163	
-0.364685	
-0.383728	
-0.40094	
-0.413574	
-0.422546	
-0.42981	
-0.438354	
-0.444458	
-0.447388	
-0.450684	
-0.454956	
-0.45752	
-0.450684	
-0.416199	
-0.328369	
-0.190552	
-0.0228271	
0.13324	
0.251282	
0.324036	
0.361755	
0.368347	
0.350586	
0.314087	
0.266174	
0.212402	
0.1521	
0.085022	
0.0107422	
-0.0610352	
-0.122314	
-0.16925	
-0.200806	
-0.219116	
-0.233093	
-0.245789	
-0.258423	
-0.271118	
-0.285095	
-0.303101	
-0.320374	
-0.339417	
-0.359253	
-0.379944	
-0.397827	
-0.412354	
-0.424255	
-0.434631	
-0.441528	
-0.447449	
-0.450439	
-0.45282	
-0.453857	
-0.455261	
-0.45575	
-0.451294	
-0.421936	
-0.340515	
-0.205688	
-0.0375366	
0.124146	
0.249451	
0.330627	
0.37146	
0.377747	
0.358337	
0.319946	
0.269836	
0.213135	
0.1474	
0.0755615	
0.00146484	
-0.0667725	
-0.123657	
-0.165222	
-0.193848	
-0.214661	
-0.231445	
-0.244873	
-0.257446	
-0.2724	
-0.288208	
-0.304199	
-0.322021	
-0.338684	
-0.35675	
-0.374573	
-0.392212	
-0.40918	
-0.423401	
-0.432861	
-0.438477	
-0.442322	
-0.446045	
-0.449707	
-0.451843	
-0.45343	
-0.455383	
-0.452881	
-0.443848	
-0.41095	
-0.328064	
-0.190002	
-0.0224609	
0.135864	
0.252808	
0.325317	
0.360962	
0.363953	
0.341309	
0.302063	
0.251282	
0.188782	
0.11908	
0.0461426	
-0.0253296	
-0.0894165	
-0.14032	
-0.176819	
-0.203125	
-0.223389	
-0.237	
-0.249634	
-0.260498	
-0.270935	
-0.284973	
-0.300781	
-0.316956	
-0.33429	
-0.352722	
-0.36969	
-0.384644	
-0.396973	
-0.407776	
-0.414673	
-0.419617	
-0.421753	
-0.421875	
-0.423462	
-0.42749	
-0.429932	
-0.430054	
-0.426514	
-0.409668	
-0.356873	
-0.24762	
-0.0908203	
0.0786743	
0.224426	
0.326294	
0.382385	
0.39978	
0.389343	
0.357849	
0.312866	
0.259277	
0.195313	
0.122742	
0.0478516	
-0.0245361	
-0.085083	
-0.128479	
-0.15918	
-0.179016	
-0.192322	
-0.202515	
-0.210938	
-0.221619	
-0.235046	
-0.25238	
-0.26947	
-0.287903	
-0.307617	
-0.328003	
-0.348755	
-0.366516	
-0.378784	
-0.388855	
-0.395081	
-0.401001	
-0.404846	
-0.408325	
-0.410217	
-0.412537	
-0.411926	
-0.40741	
-0.388672	
-0.332458	
-0.219666	
-0.0605469	
0.109558	
0.25177	
0.348389	
0.398743	
0.412476	
0.399231	
0.367249	
0.325317	
0.27179	
0.207642	
0.135376	
0.0600586	
-0.012146	
-0.0771484	
-0.125854	
-0.161499	
-0.186462	
-0.204346	
-0.217102	
-0.227173	
-0.239441	
-0.252747	
-0.267578	
-0.283508	
-0.300598	
-0.316589	
-0.333069	
-0.349182	
-0.364868	
-0.37854	
-0.387268	
-0.396973	
-0.405457	
-0.41156	
-0.416199	
-0.419861	
-0.422729	
-0.422546	
-0.422729	
-0.417542	
-0.390076	
-0.312256	
-0.18103	
-0.0130005	
0.153503	
0.281006	
0.36084	
0.398682	
0.402649	
0.381653	
0.34491	
0.296021	
0.237244	
0.169617	
0.0949707	
0.0193481	
-0.0508423	
-0.107056	
-0.147705	
-0.175964	
-0.196411	
-0.211121	
-0.2229	
-0.234924	
-0.247009	
-0.261414	
-0.277832	
-0.294678	
-0.31134	
-0.326782	
-0.342041	
-0.357117	
-0.374084	
-0.38916	
-0.400146	
-0.409485	
-0.416016	
-0.420044	
-0.425049	
-0.427917	
-0.430115	
-0.432617	
-0.43219	
-0.427917	
-0.411499	
-0.356873	
-0.246399	
-0.0888672	
0.0812988	
0.22467	
0.321167	
0.373596	
0.388062	
0.371826	
0.337341	
0.290161	
0.231812	
0.162598	
0.0853882	
0.00787354	
-0.0650635	
-0.121216	
-0.160034	
-0.186401	
-0.205811	
-0.220947	
-0.231018	
-0.239197	
-0.24939	
-0.259949	
-0.272827	
-0.290405	
-0.308044	
-0.323059	
-0.336853	
-0.350708	
-0.366638	
-0.381836	
-0.394348	
-0.404724	
-0.412354	
-0.418762	
-0.422241	
-0.423523	
-0.423645	
-0.423218	
-0.421326	
-0.415405	
-0.396179	
-0.341431	
-0.229675	
-0.0726318	
0.0966797	
0.240845	
0.336487	
0.383789	
0.393494	
0.374268	
0.338989	
0.290466	
0.231995	
0.164001	
0.0893555	
0.0135498	
-0.0551758	
-0.109436	
-0.14624	
-0.171204	
-0.186829	
-0.197998	
-0.207581	
-0.216736	
-0.228699	
-0.241882	
-0.255005	
-0.268127	
-0.284363	
-0.302612	
-0.322205	
-0.340088	
-0.356689	
-0.372131	
-0.384521	
-0.392822	
-0.399475	
-0.402893	
-0.404175	
-0.405212	
-0.406677	
-0.408936	
-0.40802	
-0.398987	
-0.359375	
-0.266357	
-0.121338	
0.0484009	
0.20105	
0.313782	
0.380371	
0.409119	
0.403564	
0.375183	
0.330444	
0.273376	
0.20636	
0.132629	
0.0559082	
-0.0169067	
-0.0791626	
-0.128113	
-0.161743	
-0.186279	
-0.202637	
-0.214355	
-0.226135	
-0.239258	
-0.252136	
-0.265381	
-0.279175	
-0.29425	
-0.31012	
-0.324951	
-0.339233	
-0.354797	
-0.370178	
-0.383728	
-0.394043	
-0.400024	
-0.406067	
-0.410828	
-0.412964	
-0.414001	
-0.41626	
-0.418152	
-0.416321	
-0.403381	
-0.351868	
-0.243164	
-0.0874023	
0.0837402	
0.232239	
0.334778	
0.391357	
0.408569	
0.395203	
0.359558	
0.309143	
0.250732	
0.184814	
0.111511	
0.0336304	
-0.0379639	
-0.0959473	
-0.139404	
-0.170349	
-0.192627	
-0.210815	
-0.225098	
-0.237427	
-0.249878	
-0.264526	
-0.278809	
-0.293457	
-0.311035	
-0.331665	
-0.351807	
-0.370361	
-0.385193	
-0.396667	
-0.406494	
-0.414368	
-0.421326	
-0.426636	
-0.428833	
-0.430237	
-0.433777	
-0.43634	
-0.437988	
-0.436951	
-0.430542	
-0.406494	
-0.337158	
-0.210449	
-0.0462646	
0.115417	
0.244385	
0.326538	
0.364807	
0.368958	
0.347229	
0.304993	
0.250671	
0.185669	
0.113953	
0.0394897	
-0.0324097	
-0.0944824	
-0.143799	
-0.18042	
-0.203979	
-0.21875	
-0.230652	
-0.241455	
-0.251221	
-0.262024	
-0.27533	
-0.290527	
-0.306824	
-0.326172	
-0.34491	
-0.361755	
-0.378235	
-0.391602	
-0.405212	
-0.416565	
-0.425415	
-0.429565	
-0.432678	
-0.434509	
-0.434998	
-0.435364	
-0.435669	
-0.436401	
-0.433838	
-0.42395	
-0.385803	
-0.299805	
-0.160583	
0.00756836	
0.164917	
0.280579	
0.347595	
0.371887	
0.366211	
0.337097	
0.292297	
0.235474	
0.16687	
0.0911255	
0.0131226	
-0.0588989	
-0.120056	
-0.164612	
-0.192688	
-0.209351	
-0.220337	
-0.227661	
-0.233459	
-0.239319	
-0.249939	
-0.260742	
-0.272095	
-0.285339	
-0.30304	
-0.321899	
-0.339966	
-0.357239	
-0.371704	
-0.383484	
-0.392944	
-0.399048	
-0.402283	
-0.403503	
-0.403442	
-0.403198	
-0.401978	
-0.400818	
-0.398376	
-0.382385	
-0.32959	
-0.223267	
-0.0693359	
0.0975952	
0.23999	
0.338684	
0.391174	
0.406677	
0.395203	
0.364319	
0.317566	
0.261536	
0.195374	
0.122253	
0.0460815	
-0.0276489	
-0.090271	
-0.136963	
-0.168518	
-0.188904	
-0.202393	
-0.212708	
-0.222229	
-0.234131	
-0.248108	
-0.263489	
-0.279968	
-0.296631	
-0.314575	
-0.333374	
-0.352539	
-0.370422	
-0.385071	
-0.398254	
-0.407837	
-0.412659	
-0.416199	
-0.420532	
-0.425049	
-0.428894	
-0.432983	
-0.434753	
-0.434692	
-0.424683	
-0.387329	
-0.300354	
-0.158813	
0.013916	
0.170654	
0.287476	
0.359131	
0.388367	
0.38562	
0.359375	
0.31781	
0.26593	
0.205383	
0.134705	
0.0570679	
-0.0186157	
-0.085022	
-0.136536	
-0.172852	
-0.195923	
-0.211304	
-0.223389	
-0.234436	
-0.24408	
-0.256531	
-0.270142	
-0.286926	
-0.305603	
-0.324646	
-0.345459	
-0.364685	
-0.384521	
-0.401733	
-0.414307	
-0.423218	
-0.429504	
-0.43573	
-0.439819	
-0.442017	
-0.444946	
-0.44696	
-0.447998	
-0.447571	
-0.441528	
-0.416504	
-0.346191	
-0.221741	
-0.0579834	
0.107056	
0.239929	
0.3255	
0.367493	
0.373901	
0.354004	
0.312805	
0.259521	
0.197998	
0.132996	
0.0606079	
-0.00946045	
-0.0758667	
-0.130981	
-0.171387	
-0.199646	
-0.218262	
-0.230652	
-0.240112	
-0.248901	
-0.259277	
-0.271118	
-0.285156	
-0.299866	
-0.315125	
-0.333313	
-0.352661	
-0.371704	
-0.388489	
-0.404785	
-0.417725	
-0.426147	
-0.434021	
-0.438293	
-0.440796	
-0.441711	
-0.439758	
-0.436279	
-0.433533	
-0.42749	
-0.409607	
-0.360901	
-0.256775	
-0.103577	
0.0656738	
0.213623	
0.315918	
0.369019	
0.381531	
0.364624	
0.32782	
0.277771	
0.220398	
0.155579	
0.083313	
0.0078125	
-0.0633545	
-0.120056	
-0.160156	
-0.186829	
-0.202637	
-0.213257	
-0.221741	
-0.228821	
-0.239075	
-0.249207	
-0.261902	
-0.276794	
-0.291992	
-0.307129	
-0.323975	
-0.338684	
-0.353271	
-0.367981	
-0.378906	
-0.387329	
-0.391724	
-0.394714	
-0.398315	
-0.400452	
-0.40332	
-0.405518	
-0.404602	
-0.399902	
-0.375732	
-0.307312	
-0.185303	
-0.0205688	
0.146179	
0.280212	
0.366028	
0.408081	
0.413391	
0.391846	
0.351746	
0.298767	
0.239807	
0.175903	
0.105225	
0.0308228	
-0.0374756	
-0.0941772	
-0.138245	
-0.167969	
-0.188843	
-0.204407	
-0.218323	
-0.231262	
-0.246094	
-0.262695	
-0.280029	
-0.296448	
-0.313843	
-0.331482	
-0.349182	
-0.364136	
-0.378845	
-0.393433	
-0.404236	
-0.411316	
-0.417175	
-0.421082	
-0.42334	
-0.426636	
-0.427673	
-0.428528	
-0.429016	
-0.425293	
-0.409729	
-0.356995	
-0.247314	
-0.088562	
0.0834351	
0.229431	
0.33197	
0.38855	
0.406921	
0.392944	
0.356201	
0.307434	
0.250305	
0.188782	
0.1203	
0.0484619	
-0.0216064	
-0.0825806	
-0.129761	
-0.162964	
-0.186584	
-0.203125	
-0.216431	
-0.230591	
-0.242493	
-0.254761	
-0.270081	
-0.288635	
-0.305054	
-0.320801	
-0.33783	
-0.35675	
-0.374573	
-0.389282	
-0.402588	
-0.413391	
-0.420898	
-0.424316	
-0.42688	
-0.429443	
-0.432373	
-0.435974	
-0.436279	
-0.435425	
-0.429626	
-0.40509	
-0.341797	
-0.223267	
-0.0598755	
0.109619	
0.248291	
0.341858	
0.389465	
0.399353	
0.381409	
0.341919	
0.288696	
0.226196	
0.158203	
0.0869141	
0.0162354	
-0.0474854	
-0.103943	
-0.145874	
-0.174133	
-0.192993	
-0.208374	
-0.220886	
-0.231812	
-0.244019	
-0.257874	
-0.273682	
-0.292114	
-0.312317	
-0.333252	
-0.353271	
-0.370789	
-0.387329	
-0.401428	
-0.413391	
-0.421265	
-0.426697	
-0.429443	
-0.432617	
-0.436523	
-0.440369	
-0.441895	
-0.442444	
-0.439453	
-0.432983	
-0.413574	
-0.356567	
-0.241455	
-0.0795288	
0.0928345	
0.237366	
0.334595	
0.385803	
0.398254	
0.380493	
0.342102	
0.290466	
0.229065	
0.159668	
0.0872192	
0.0145874	
-0.0523682	
-0.105835	
-0.146179	
-0.174316	
-0.192261	
-0.204712	
-0.212524	
-0.219299	
-0.228638	
-0.241211	
-0.254822	
-0.272156	
-0.291626	
-0.308777	
-0.324768	
-0.340393	
-0.35498	
-0.367859	
-0.376892	
-0.38385	
-0.387878	
-0.393311	
-0.398499	
-0.401672	
-0.401978	
-0.401611	
-0.400391	
-0.397156	
-0.379272	
-0.320374	
-0.20459	
-0.0413208	
0.12738	
0.265381	
0.358704	
0.408142	
0.419373	
0.403687	
0.368164	
0.318054	
0.259644	
0.191895	
0.11731	
0.0421143	
-0.0266113	
-0.0836182	
-0.126099	
-0.154785	
-0.172363	
-0.185547	
-0.196716	
-0.209229	
-0.221802	
-0.234863	
-0.250427	
-0.27063	
-0.28949	
-0.309875	
-0.330566	
-0.350098	
-0.367737	
-0.383606	
-0.397156	
-0.406677	
-0.415344	
-0.422852	
-0.427612	
-0.429321	
-0.431213	
-0.434326	
-0.434204	
-0.430176	
-0.419312	
-0.38562	
-0.304382	
-0.164612	
0.0116577	
0.179993	
0.309021	
0.391296	
0.433655	
0.441467	
0.420715	
0.378357	
0.323059	
0.26123	
0.194824	
0.121887	
0.0471802	
-0.0215454	
-0.0789185	
-0.123779	
-0.156677	
-0.181091	
-0.197937	
-0.211731	
-0.224548	
-0.238708	
-0.255554	
-0.272339	
-0.286743	
-0.304199	
-0.322205	
-0.339111	
-0.35675	
-0.372742	
-0.385681	
-0.398376	
-0.409973	
-0.420593	
-0.426575	
-0.431641	
-0.43457	
-0.436829	
-0.440674	
-0.443787	
-0.446289	
-0.442505	
-0.420288	
-0.354126	
-0.230652	
-0.0612183	
0.112244	
0.253296	
0.349121	
0.399536	
0.412292	
0.3974	
0.361328	
0.309143	
0.246033	
0.17688	
0.104126	
0.0284424	
-0.0441284	
-0.104248	
-0.150818	
-0.183289	
-0.204895	
-0.22113	
-0.234253	
-0.245667	
-0.25708	
-0.270813	
-0.286865	
-0.304321	
-0.321899	
-0.340149	
-0.358948	
-0.376404	
-0.394043	
-0.409851	
-0.42334	
-0.4328	
-0.440063	
-0.44635	
-0.449524	
-0.450378	
-0.451416	
-0.453186	
-0.453918	
-0.453857	
-0.449707	
-0.436768	
-0.396484	
-0.303955	
-0.157471	
0.0169678	
0.175171	
0.291992	
0.362488	
0.392029	
0.388733	
0.362366	
0.317322	
0.258423	
0.19104	
0.117554	
0.0408936	
-0.0344238	
-0.100159	
-0.148743	
-0.180664	
-0.203064	
-0.21875	
-0.229431	
-0.239319	
-0.248596	
-0.26178	
-0.276245	
-0.291504	
-0.308838	
-0.325867	
-0.344727	
-0.36145	
-0.375549	
-0.389404	
-0.401245	
-0.410828	
-0.415039	
-0.420166	
-0.424255	
-0.426331	
-0.425354	
-0.42334	
-0.421265	
-0.419189	
-0.414673	
-0.393372	
-0.331848	
-0.217346	
-0.0568848	
0.114136	
0.254456	
0.348877	
0.396606	
0.40741	
0.391174	
0.356506	
0.308472	
0.249023	
0.180054	
0.105042	
0.0291138	
-0.0412598	
-0.0996094	
-0.142639	
-0.173096	
-0.191711	
-0.20459	
-0.214233	
-0.224426	
-0.235657	
-0.249207	
-0.265808	
-0.283752	
-0.302063	
-0.321777	
-0.340698	
-0.358826	
-0.375244	
-0.390564	
-0.403381	
-0.413269	
-0.421631	
-0.429321	
-0.435242	
-0.440796	
-0.444336	
-0.445557	
-0.445129	
-0.441467	
-0.425293	
-0.374573	
-0.268677	
-0.111084	
0.0649414	
0.217773	
0.328308	
0.392456	
0.415405	
0.407043	
0.378967	
0.332886	
0.274292	
0.206665	
0.134521	
0.0595093	
-0.0137939	
-0.0773315	
-0.1297	
-0.16748	
-0.191589	
-0.206726	
-0.217896	
-0.228333	
-0.238525	
-0.24939	
-0.263123	
-0.278992	
-0.297302	
-0.315918	
-0.336426	
-0.357544	
-0.37738	
-0.395142	
-0.409424	
-0.418213	
-0.424377	
-0.429321	
-0.434387	
-0.438232	
-0.440552	
-0.443481	
-0.445557	
-0.445374	
-0.439392	
-0.412781	
-0.340271	
-0.210083	
-0.0405884	
0.127869	
0.258728	
0.343018	
0.385071	
0.392029	
0.374084	
0.336304	
0.283325	
0.22052	
0.149963	
0.0737915	
-0.00109863	
-0.069458	
-0.124756	
-0.166077	
-0.19635	
-0.216614	
-0.229187	
-0.238892	
-0.251038	
-0.263367	
-0.274658	
-0.289185	
-0.304321	
-0.322388	
-0.340515	
-0.358459	
-0.375122	
-0.390442	
-0.40271	
-0.41333	
-0.422668	
-0.430481	
-0.434143	
-0.434937	
-0.438049	
-0.43927	
-0.441101	
-0.441284	
-0.439087	
-0.434937	
-0.416016	
-0.358276	
-0.243713	
-0.0805664	
0.0911255	
0.233521	
0.329346	
0.379089	
0.393921	
0.380859	
0.345093	
0.29187	
0.228516	
0.158997	
0.0839844	
0.00793457	
-0.0621948	
-0.118896	
-0.157776	
-0.184082	
-0.200562	
-0.211609	
-0.220093	
-0.228943	
-0.238403	
-0.250793	
-0.265381	
-0.281189	
-0.299316	
-0.316956	
-0.334412	
-0.351929	
-0.36615	
-0.379883	
-0.393616	
-0.404541	
-0.414978	
-0.421265	
-0.42627	
-0.429688	
-0.432983	
-0.436035	
-0.436584	
-0.437195	
-0.43512	
-0.4245	
-0.393372	
-0.316467	
-0.185364	
-0.0178833	
0.145935	
0.27594	
0.356323	
0.392273	
0.39209	
0.364441	
0.321655	
0.267761	
0.203613	
0.130676	
0.0541382	
-0.0200195	
-0.0855713	
-0.135193	
-0.169067	
-0.191101	
-0.203796	
-0.215027	
-0.223877	
-0.232483	
-0.24408	
-0.255981	
-0.268677	
-0.285706	
-0.303528	
-0.321045	
-0.337769	
-0.354187	
-0.369141	
-0.381226	
-0.391541	
-0.398743	
-0.405396	
-0.409485	
-0.413025	
-0.416077	
-0.417419	
-0.416321	
-0.414307	
-0.409546	
-0.401794	
-0.372192	
-0.294861	
-0.161072	
0.00854492	
0.170532	
0.295166	
0.372375	
0.409729	
0.413391	
0.390442	
0.350586	
0.296753	
0.233521	
0.162781	
0.0866699	
0.0117188	
-0.0522461	
-0.104065	
-0.141357	
-0.166931	
-0.182129	
-0.192993	
-0.202454	
-0.214294	
-0.226196	
-0.239563	
-0.256165	
-0.271912	
-0.287354	
-0.305786	
-0.326416	
-0.347107	
-0.364807	
-0.380249	
-0.394165	
-0.403015	
-0.408203	
-0.412781	
-0.4151	
-0.416992	
-0.418518	
-0.418396	
-0.416687	
-0.411804	
-0.398499	
-0.351868	
-0.248718	
-0.0932617	
0.0827637	
0.23584	
0.345276	
0.40802	
0.430359	
0.422241	
0.390991	
0.343262	
0.28717	
0.223145	
0.151733	
0.0757446	
0.00360107	
-0.0602417	
-0.112061	
-0.150818	
-0.177307	
-0.193848	
-0.206055	
-0.215576	
-0.225342	
-0.236206	
-0.247742	
-0.26355	
-0.280823	
-0.30011	
-0.319763	
-0.339294	
-0.358093	
-0.374756	
-0.389465	
-0.401672	
-0.41095	
-0.418152	
-0.421997	
-0.424377	
-0.426453	
-0.429443	
-0.430786	
-0.430054	
-0.429016	
-0.418823	
-0.369263	
-0.261292	
-0.10022	
0.0764771	
0.226624	
0.33429	
0.400696	
0.427673	
0.418457	
0.38623	
0.340271	
0.283264	
0.217041	
0.145569	
0.0734863	
0.00231934	
-0.0584717	
-0.105835	
-0.140503	
-0.164673	
-0.180908	
-0.193542	
-0.205261	
-0.217346	
-0.23053	
-0.246643	
-0.265991	
-0.285034	
-0.305542	
-0.325073	
-0.344299	
-0.360168	
-0.375732	
-0.389465	
-0.398865	
-0.405518	
-0.412354	
-0.417114	
-0.421448	
-0.424622	
-0.426453	
-0.426697	
-0.425476	
-0.42218	
-0.411194	
-0.372681	
-0.282654	
-0.137878	
0.0337524	
0.189148	
0.304932	
0.377136	
0.40863	
0.407593	
0.38269	
0.339844	
0.283997	
0.220154	
0.150269	
0.0767822	
0.00598145	
-0.0594482	
-0.11377	
-0.153687	
-0.178284	
-0.192627	
-0.204773	
-0.215698	
-0.227478	
-0.237793	
-0.250122	
-0.263367	
-0.279541	
-0.297485	
-0.317932	
-0.33667	
-0.355713	
-0.371155	
-0.385925	
-0.398804	
-0.410339	
-0.41626	
-0.421204	
-0.425354	
-0.428955	
-0.432007	
-0.435913	
-0.436218	
-0.434631	
-0.425476	
-0.393982	
-0.316345	
-0.183655	
-0.0142212	
0.147278	
0.269897	
0.347046	
0.382385	
0.384949	
0.363464	
0.325195	
0.274658	
0.213318	
0.143188	
0.0669556	
-0.00982666	
-0.0792847	
-0.133362	
-0.171265	
-0.193848	
-0.20929	
-0.221313	
-0.232422	
-0.242615	
-0.251099	
-0.259949	
-0.272644	
-0.289185	
-0.30658	
-0.325195	
-0.344238	
-0.360107	
-0.377502	
-0.391052	
-0.398987	
-0.40564	
-0.41095	
-0.414551	
-0.418762	
-0.424011	
-0.426453	
-0.426331	
-0.42511	
-0.419617	
-0.396973	
-0.334106	
-0.215088	
-0.0516357	
0.116211	
0.2547	
0.347046	
0.394104	
0.404236	
0.386902	
0.350281	
0.298889	
0.240356	
0.172241	
0.0961914	
0.0177002	
-0.0562134	
-0.11731	
-0.163269	
-0.192261	
-0.207947	
-0.217407	
-0.225098	
-0.233093	
-0.245483	
-0.26062	
-0.275757	
-0.291199	
-0.307739	
-0.323242	
-0.339539	
-0.354431	
-0.367615	
-0.381348	
-0.394104	
-0.403564	
-0.410217	
-0.416809	
-0.422485	
-0.425537	
-0.428284	
-0.429138	
-0.429688	
-0.429443	
-0.420715	
-0.383362	
-0.2948	
-0.150513	
0.0213623	
0.18158	
0.302124	
0.375488	
0.405945	
0.403931	
0.381042	
0.342407	
0.290405	
0.229797	
0.163208	
0.0908813	
0.0181885	
-0.0460205	
-0.101196	
-0.14325	
-0.174744	
-0.196045	
-0.21283	
-0.226379	
-0.239502	
-0.25531	
-0.271301	
-0.286682	
-0.304565	
-0.323181	
-0.342285	
-0.362854	
-0.381714	
-0.397095	
-0.408997	
-0.418274	
-0.42572	
-0.429688	
-0.431824	
-0.434448	
-0.437012	
-0.440674	
-0.442505	
-0.444214	
-0.44397	
-0.440674	
-0.423218	
-0.368225	
-0.255676	
-0.0925903	
0.081665	
0.227234	
0.329346	
0.388	
0.408813	
0.399902	
0.367798	
0.320007	
0.261597	
0.19635	
0.126587	
0.0541382	
-0.0159912	
-0.0759277	
-0.123657	
-0.159546	
-0.18457	
-0.203064	
-0.219788	
-0.234863	
-0.248291	
-0.263489	
-0.27832	
-0.294373	
-0.312317	
-0.332703	
-0.350708	
-0.368042	
-0.385986	
-0.402588	
-0.418457	
-0.429504	
-0.437561	
-0.442871	
-0.445068	
-0.447693	
-0.449402	
-0.451843	
-0.453674	
-0.455078	
-0.454163	
-0.450073	
-0.438293	
-0.392761	
-0.291931	
-0.137817	
0.0358276	
0.191589	
0.303711	
0.36676	
0.390808	
0.382141	
0.352539	
0.307129	
0.247131	
0.179321	
0.105042	
0.0274658	
-0.0469971	
-0.110779	
-0.158081	
-0.189819	
-0.213379	
-0.226929	
-0.237732	
-0.249268	
-0.259399	
-0.269592	
-0.280212	
-0.295166	
-0.312012	
-0.328796	
-0.345337	
-0.364258	
-0.38385	
-0.401733	
-0.415771	
-0.425964	
-0.433533	
-0.439514	
-0.444031	
-0.444763	
-0.445618	
-0.446594	
-0.446716	
-0.442627	
-0.436096	
-0.42511	
-0.391418	
-0.30957	
-0.171021	
0.00256348	
0.168274	
0.292847	
0.367432	
0.400085	
0.398743	
0.372803	
0.330688	
0.277527	
0.215088	
0.143433	
0.0647583	
-0.00982666	
-0.0747681	
-0.126404	
-0.163635	
-0.187866	
-0.205261	
-0.217041	
-0.227295	
-0.236328	
-0.247681	
-0.26178	
-0.277954	
-0.294739	
-0.313721	
-0.332153	
-0.348755	
-0.363831	
-0.376953	
-0.388916	
-0.400024	
-0.408081	
-0.415466	
-0.421265	
-0.423767	
-0.424744	
-0.426697	
-0.425842	
-0.425964	
-0.422607	
-0.405457	
-0.356201	
-0.253296	
-0.0963135	
0.0791626	
0.232849	
0.34259	
0.404114	
0.426636	
0.416382	
0.382813	
0.334351	
0.274109	
0.208435	
0.136658	
0.060791	
-0.0130005	
-0.0780029	
-0.130127	
-0.165649	
-0.191101	
-0.208679	
-0.221924	
-0.232239	
-0.242493	
-0.252869	
-0.264099	
-0.27832	
-0.293945	
-0.313049	
-0.332886	
-0.350769	
-0.366333	
-0.382568	
-0.395752	
-0.407593	
-0.416931	
-0.424255	
-0.428284	
-0.430115	
-0.431152	
-0.430664	
-0.428528	
-0.428162	
-0.424133	
-0.408569	
-0.360168	
-0.257507	
-0.100647	
0.0762329	
0.231445	
0.344177	
0.408997	
0.431641	
0.422913	
0.391907	
0.343262	
0.283264	
0.217529	
0.146301	
0.0704346	
-0.00445557	
-0.0714111	
-0.125854	
-0.165588	
-0.19104	
-0.207458	
-0.219116	
-0.228333	
-0.237	
-0.246948	
-0.260681	
-0.275146	
-0.290588	
-0.307129	
-0.324646	
-0.341064	
-0.357422	
-0.373474	
-0.388611	
-0.399902	
-0.409302	
-0.414917	
-0.419495	
-0.419983	
-0.419617	
-0.423035	
-0.424927	
-0.427429	
-0.425476	
-0.414307	
-0.376831	
-0.28595	
-0.139099	
0.038208	
0.200562	
0.31958	
0.390869	
0.421997	
0.42041	
0.393066	
0.348816	
0.291077	
0.224243	
0.151306	
0.0744019	
0.000793457	
-0.0638428	
-0.116455	
-0.155334	
-0.182068	
-0.20343	
-0.217957	
-0.228577	
-0.237976	
-0.245789	
-0.255798	
-0.268921	
-0.284424	
-0.301392	
-0.319763	
-0.338135	
-0.355042	
-0.37085	
-0.38385	
-0.394165	
-0.401917	
-0.408508	
-0.413208	
-0.417236	
-0.423035	
-0.427368	
-0.43042	
-0.432739	
-0.431885	
-0.423645	
-0.38739	
-0.300781	
-0.159668	
0.0109253	
0.169006	
0.285889	
0.35791	
0.386963	
0.383545	
0.356323	
0.312866	
0.259521	
0.195496	
0.121582	
0.0450439	
-0.0291748	
-0.0925903	
-0.141174	
-0.173828	
-0.193726	
-0.205811	
-0.212646	
-0.216553	
-0.220947	
-0.230835	
-0.243286	
-0.259399	
-0.277893	
-0.296814	
-0.315979	
-0.333496	
-0.351074	
-0.367188	
-0.382141	
-0.393677	
-0.400574	
-0.403015	
-0.404785	
-0.406006	
-0.408325	
-0.411011	
-0.411865	
-0.409851	
-0.401794	
-0.371887	
-0.295044	
-0.163452	
0.00292969	
0.165161	
0.290894	
0.368835	
0.404968	
0.406006	
0.382874	
0.341858	
0.288025	
0.225647	
0.154297	
0.0770874	
0.000610352	
-0.0683594	
-0.122009	
-0.158569	
-0.182556	
-0.198181	
-0.208862	
-0.216431	
-0.224243	
-0.231689	
-0.242493	
-0.257324	
-0.27356	
-0.2901	
-0.307861	
-0.327515	
-0.345032	
-0.361206	
-0.375183	
-0.387207	
-0.397522	
-0.40448	
-0.410706	
-0.417725	
-0.422363	
-0.424316	
-0.424316	
-0.423706	
-0.419067	
-0.399048	
-0.335144	
-0.212646	
-0.0439453	
0.126526	
0.264709	
0.355591	
0.402222	
0.415344	
0.402405	
0.367493	
0.315247	
0.252808	
0.18396	
0.108948	
0.0321045	
-0.0407715	
-0.0992432	
-0.143311	
-0.174622	
-0.195251	
-0.20874	
-0.218994	
-0.229492	
-0.240662	
-0.252563	
-0.266113	
-0.280518	
-0.297974	
-0.317261	
-0.335938	
-0.354614	
-0.369629	
-0.382996	
-0.396851	
-0.406677	
-0.413391	
-0.417603	
-0.418823	
-0.420715	
-0.42334	
-0.424744	
-0.424011	
-0.421082	
-0.411438	
-0.372742	
-0.279907	
-0.130859	
0.0413818	
0.194641	
0.307068	
0.376343	
0.403564	
0.398865	
0.3703	
0.324036	
0.267334	
0.200928	
0.128296	
0.0515747	
-0.0203247	
-0.0834961	
-0.132507	
-0.166443	
-0.188232	
-0.20575	
-0.219849	
-0.229248	
-0.23999	
-0.252136	
-0.267273	
-0.281128	
-0.296631	
-0.312561	
-0.3302	
-0.346924	
-0.364929	
-0.3797	
-0.393433	
-0.404602	
-0.412415	
-0.418457	
-0.421448	
-0.424438	
-0.426575	
-0.426453	
-0.426514	
-0.425842	
-0.422302	
-0.403625	
-0.344482	
-0.226929	
-0.0639648	
0.105774	
0.243713	
0.332703	
0.378601	
0.387939	
0.368286	
0.328125	
0.276489	
0.214844	
0.143372	
0.0651245	
-0.0112305	
-0.0803833	
-0.136658	
-0.176575	
-0.201538	
-0.216797	
-0.226257	
-0.232971	
-0.238281	
-0.246277	
-0.254395	
-0.26593	
-0.278564	
-0.29303	
-0.309265	
-0.325073	
-0.341187	
-0.356934	
-0.372009	
-0.383728	
-0.391479	
-0.397644	
-0.402893	
-0.407104	
-0.411682	
-0.414246	
-0.413818	
-0.41217	
-0.404663	
-0.375671	
-0.301392	
-0.172302	
-0.00848389	
0.152405	
0.277039	
0.357056	
0.392761	
0.393127	
0.368713	
0.327332	
0.273132	
0.209045	
0.13739	
0.0613403	
-0.0137329	
-0.0788574	
-0.12915	
-0.16571	
-0.191833	
-0.208557	
-0.220215	
-0.231079	
-0.239868	
-0.24762	
-0.257019	
-0.267151	
-0.283264	
-0.302368	
-0.322632	
-0.343079	
-0.361938	
-0.379517	
-0.393066	
-0.403137	
-0.411255	
-0.418396	
-0.4245	
-0.430054	
-0.433167	
-0.434204	
-0.435486	
-0.434265	
-0.422852	
-0.383606	
-0.292175	
-0.145508	
0.0265503	
0.183228	
0.296875	
0.365662	
0.393372	
0.388733	
0.361572	
0.318665	
0.262756	
0.197876	
0.126648	
0.0488892	
-0.0270996	
-0.0914307	
-0.142822	
-0.180298	
-0.205566	
-0.222656	
-0.236511	
-0.247314	
-0.256287	
-0.266602	
-0.278076	
-0.292358	
-0.308594	
-0.325928	
-0.343689	
-0.362122	
-0.381104	
-0.397949	
-0.411255	
-0.418823	
-0.425476	
-0.431519	
-0.432922	
-0.435547	
-0.437012	
-0.437683	
-0.437744	
-0.436279	
-0.430786	
-0.407837	
-0.340637	
-0.217896	
-0.0519409	
0.116699	
0.251038	
0.337769	
0.380249	
0.39032	
0.373291	
0.336609	
0.28363	
0.219788	
0.150879	
0.0749512	
0.000488281	
-0.0709839	
-0.131042	
-0.174988	
-0.204468	
-0.224426	
-0.234924	
-0.243835	
-0.250916	
-0.258057	
-0.268127	
-0.280762	
-0.296814	
-0.314392	
-0.331482	
-0.349731	
-0.367798	
-0.38446	
-0.398621	
-0.409668	
-0.418945	
-0.425354	
-0.430786	
-0.433777	
-0.435547	
-0.435608	
-0.437805	
-0.439758	
-0.439453	
-0.425415	
-0.377991	
-0.277771	
-0.130127	
0.0361328	
0.182861	
0.283447	
0.339539	
0.359436	
0.348816	
0.315308	
0.266846	
0.208557	
0.140808	
0.0680542	
-0.00671387	
-0.0754395	
-0.132935	
-0.17572	
-0.204956	
-0.222778	
-0.23407	
-0.243347	
-0.252747	
-0.260681	
-0.269226	
-0.27948	
-0.294312	
-0.31012	
-0.325989	
-0.343323	
-0.359924	
-0.374573	
-0.386597	
-0.39679	
-0.403687	
-0.409424	
-0.4151	
-0.419495	
-0.423706	
-0.426514	
-0.428711	
-0.427612	
-0.421509	
-0.400696	
-0.341248	
-0.225281	
-0.0657349	
0.103027	
0.24115	
0.330444	
0.37323	
0.381958	
0.363525	
0.326416	
0.276306	
0.215393	
0.144653	
0.069458	
-0.00378418	
-0.0689087	
-0.121948	
-0.160095	
-0.185791	
-0.203613	
-0.216614	
-0.224365	
-0.229553	
-0.235962	
-0.244019	
-0.255371	
-0.268921	
-0.284302	
-0.302002	
-0.322327	
-0.341003	
-0.357117	
-0.373413	
-0.385681	
-0.39447	
-0.401062	
-0.408203	
-0.412598	
-0.416931	
-0.420593	
-0.423584	
-0.422302	
-0.404114	
-0.345459	
-0.230347	
-0.0691528	
0.100586	
0.239563	
0.332214	
0.380493	
0.394836	
0.382446	
0.348694	
0.300049	
0.241028	
0.172119	
0.0965576	
0.0214844	
-0.0492554	
-0.109497	
-0.153381	
-0.184265	
-0.204468	
-0.216309	
-0.224121	
-0.230286	
-0.240479	
-0.253235	
-0.266235	
-0.281372	
-0.296692	
-0.313477	
-0.331116	
-0.349121	
-0.366516	
-0.383972	
-0.399536	
-0.41095	
-0.418274	
-0.42041	
-0.422668	
-0.426086	
-0.428833	
-0.431519	
-0.430298	
-0.422424	
-0.398132	
-0.330383	
-0.207336	
-0.041748	
0.125061	
0.256531	
0.339417	
0.379761	
0.388428	
0.370544	
0.332336	
0.282471	
0.223633	
0.156799	
0.0841064	
0.00891113	
-0.0597534	
-0.116028	
-0.157227	
-0.185486	
-0.206726	
-0.22168	
-0.234253	
-0.245422	
-0.255676	
-0.267517	
-0.279602	
-0.293884	
-0.307007	
-0.319824	
-0.335693	
-0.351074	
-0.367798	
-0.38324	
-0.393311	
-0.402405	
-0.408569	
-0.413147	
-0.417358	
-0.422485	
-0.427368	
-0.431213	
-0.433777	
-0.429688	
-0.406494	
-0.342773	
-0.22052	
-0.0545654	
0.11084	
0.243835	
0.330078	
0.373291	
0.383362	
0.366455	
0.330627	
0.278748	
0.216064	
0.141785	
0.0630493	
-0.0147095	
-0.0838013	
-0.138733	
-0.175964	
-0.197998	
-0.213745	
-0.224609	
-0.232361	
-0.238953	
-0.245483	
-0.254333	
-0.266968	
-0.280334	
-0.297363	
-0.313904	
-0.332031	
-0.349182	
-0.364868	
-0.380005	
-0.392456	
-0.401184	
-0.408752	
-0.413574	
-0.418274	
-0.422913	
-0.426025	
-0.425415	
-0.424622	
-0.415649	
-0.382813	
-0.299683	
-0.161499	
0.00604248	
0.164185	
0.282471	
0.352356	
0.379395	
0.375854	
0.349609	
0.304688	
0.246094	
0.178833	
0.104797	
0.0265503	
-0.0457764	
-0.103455	
-0.145996	
-0.175354	
-0.193604	
-0.206482	
-0.215454	
-0.223938	
-0.234497	
-0.244934	
-0.256958	
-0.268127	
-0.281799	
-0.300232	
-0.320679	
-0.33728	
-0.352051	
-0.364197	
-0.373291	
-0.382874	
-0.389832	
-0.397644	
-0.405884	
-0.41156	
-0.415222	
-0.416382	
-0.414795	
-0.40509	
-0.36438	
-0.272888	
-0.129639	
0.0380249	
0.192566	
0.306335	
0.370728	
0.397705	
0.395569	
0.368835	
0.325134	
0.270386	
0.204773	
0.13208	
0.0556641	
-0.0164795	
-0.0804443	
-0.1297	
-0.164307	
-0.18689	
-0.203857	
-0.21521	
-0.224243	
-0.235229	
-0.247498	
-0.261658	
-0.27832	
-0.295776	
-0.315369	
-0.334839	
-0.351501	
-0.367432	
-0.382141	
-0.394897	
-0.403809	
-0.409424	
-0.415894	
-0.420349	
-0.42572	
-0.42981	
-0.432007	
-0.431091	
-0.424622	
-0.400818	
-0.334961	
-0.210876	
-0.0448608	
0.124207	
0.262085	
0.354309	
0.402588	
0.413025	
0.397339	
0.361511	
0.310242	
0.246582	
0.1745	
0.0977173	
0.0231934	
-0.0453491	
-0.103394	
-0.145935	
-0.175842	
-0.197083	
-0.212036	
-0.225281	
-0.235474	
-0.244568	
-0.255005	
-0.266968	
-0.279297	
-0.29364	
-0.309082	
-0.325684	
-0.343445	
-0.360107	
-0.374756	
-0.389893	
-0.400818	
-0.407532	
-0.413269	
-0.419495	
-0.423645	
-0.425598	
-0.429199	
-0.429626	
-0.42572	
-0.405151	
-0.34137	
-0.221313	
-0.0568848	
0.11261	
0.249817	
0.340332	
0.385925	
0.395386	
0.378296	
0.342712	
0.29364	
0.234436	
0.166077	
0.0899658	
0.0134277	
-0.0552368	
-0.111938	
-0.153198	
-0.182617	
-0.203552	
-0.218811	
-0.229553	
-0.240234	
-0.249695	
-0.261108	
-0.277039	
-0.294312	
-0.309814	
-0.325806	
-0.343628	
-0.360107	
-0.377014	
-0.391602	
-0.403564	
-0.414917	
-0.424011	
-0.429016	
-0.431702	
-0.433289	
-0.434692	
-0.434326	
-0.432983	
-0.426086	
-0.401855	
-0.336182	
-0.213989	
-0.0480957	
0.119446	
0.253174	
0.338745	
0.380432	
0.387939	
0.369141	
0.329773	
0.276672	
0.213867	
0.140564	
0.0620728	
-0.0147705	
-0.0806274	
-0.131042	
-0.164856	
-0.185547	
-0.200623	
-0.212952	
-0.22229	
-0.22876	
-0.238159	
-0.251282	
-0.267151	
-0.283691	
-0.298706	
-0.314758	
-0.331543	
-0.346924	
-0.363098	
-0.376465	
-0.385986	
-0.393127	
-0.39917	
-0.403076	
-0.404114	
-0.406006	
-0.407288	
-0.405762	
-0.401184	
-0.376831	
-0.3078	
-0.181946	
-0.017395	
0.148071	
0.278625	
0.363342	
0.403259	
0.40863	
0.388	
0.348511	
0.294189	
0.229736	
0.156433	
0.0761719	
-0.000793457	
-0.0675049	
-0.120972	
-0.158569	
-0.182617	
-0.197937	
-0.208679	
-0.218018	
-0.228027	
-0.240723	
-0.252625	
-0.265076	
-0.278992	
-0.297485	
-0.319336	
-0.338135	
-0.354065	
-0.370789	
-0.384583	
-0.396118	
-0.404297	
-0.410828	
-0.415405	
-0.419861	
-0.421936	
-0.423279	
-0.423096	
-0.416931	
-0.382996	
-0.29834	
-0.156921	
0.0161133	
0.176025	
0.296387	
0.369995	
0.400391	
0.39801	
0.372131	
0.329224	
0.275391	
0.21405	
0.14447	
0.0663452	
-0.0106812	
-0.0791016	
-0.134216	
-0.173218	
-0.197388	
-0.21405	
-0.227295	
-0.239685	
-0.253723	
-0.266846	
-0.279419	
-0.293152	
-0.311035	
-0.329529	
-0.348511	
-0.366821	
-0.384155	
-0.39856	
-0.40918	
-0.417358	
-0.425232	
-0.431091	
-0.434265	
-0.437805	
-0.440308	
-0.442017	
-0.443054	
-0.439148	
-0.415894	
-0.347839	
-0.221069	
-0.0507202	
0.120483	
0.257019	
0.346497	
0.386841	
0.391968	
0.371887	
0.331055	
0.277649	
0.218811	
0.154114	
0.0820923	
0.00531006	
-0.0670776	
-0.129272	
-0.174805	
-0.206604	
-0.227783	
-0.240417	
-0.248962	
-0.259949	
-0.270508	
-0.281006	
-0.2948	
-0.31073	
-0.328796	
-0.350891	
-0.370422	
-0.38855	
-0.403015	
-0.415588	
-0.425171	
-0.432556	
-0.4375	
-0.439209	
-0.439758	
-0.442749	
-0.446167	
-0.44928	
-0.449524	
-0.439087	
-0.397156	
-0.300171	
-0.148804	
0.0272827	
0.182556	
0.293884	
0.357971	
0.379028	
0.368958	
0.337585	
0.289246	
0.23114	
0.165527	
0.0940552	
0.0219116	
-0.0480347	
-0.108093	
-0.154175	
-0.187622	
-0.209961	
-0.224792	
-0.236511	
-0.248474	
-0.257874	
-0.268677	
-0.28241	
-0.297363	
-0.313477	
-0.331909	
-0.351868	
-0.370605	
-0.388184	
-0.402649	
-0.412415	
-0.418396	
-0.42218	
-0.426941	
-0.430847	
-0.434753	
-0.43457	
-0.433228	
-0.428101	
-0.41626	
-0.378784	
-0.290588	
-0.146057	
0.0278931	
0.183594	
0.298096	
0.363708	
0.38739	
0.380798	
0.352234	
0.307739	
0.251099	
0.186523	
0.113403	
0.0335693	
-0.0449829	
-0.112671	
-0.163391	
-0.195862	
-0.214783	
-0.226685	
-0.235718	
-0.246887	
-0.259827	
-0.273743	
-0.288818	
-0.305908	
-0.320862	
-0.336914	
-0.352722	
-0.367371	
-0.384399	
-0.397156	
-0.407104	
-0.415466	
-0.421021	
-0.426086	
-0.430359	
-0.434204	
-0.437317	
-0.440552	
-0.439514	
-0.423218	
-0.369202	
-0.254883	
-0.0896606	
0.0834961	
0.226624	
0.325317	
0.377014	
0.389893	
0.374634	
0.337524	
0.287964	
0.233643	
0.170471	
0.0986938	
0.0214233	
-0.0501099	
-0.112305	
-0.160645	
-0.194763	
-0.217712	
-0.233826	
-0.245239	
-0.256287	
-0.267944	
-0.280945	
-0.297119	
-0.315125	
-0.33374	
