570.29
633.54
538.28
480.03
505.26
518.02
483.25
455.82
459.24
457.65
437.23
420.65
417.22
411.72
399.21
386.82
377.2
365.23
352.18
340.07
330.17
319.3
309.16
297.25
287.15
276.23
266.14
254.29
245.13
237.16
233.12
232.56
243.13
265.63
301.16
343.97
395.2
450.88
509.26
563.62
614.32
657.73
694.36
723.14
750.39
775.05
794.41
802.99
806.42
809.19
814.42
817.5
818.42
816.13
812.42
805.61
798.41
790.27
782.4
771.98
761.39
749.33
737.38
722.32
706.37
687.54
668.35
647.29
628.32
609.09
590.31
569.19
550.28
532.91
518.27
502.64
489.25
477.35
468.24
457.69
447.23
435.59
425.22
414.01
404.21
393.59
383.2
369.98
357.18
344.53
335.17
324.9
314.16
300.66
289.15
277.57
267.14
255.03
246.13
238.53
233.12
227.87
231.12
245.63
274.14
312.04
361.19
417.01
476.25
531.89
586.3
637.11
682.35
716.05
742.38
763.52
782.4
795.75
806.42
814.76
822.43
825.59
825.43
822.01
818.42
812.89
806.42
797.92
790.41
782.29
774.4
763.96
753.39
740.45
726.38
708.45
690.36
670.73
651.34
629.25
608.31
587.92
570.29
551.87
535.28
519.81
508.26
496.66
485.25
471.82
460.24
449.59
441.23
431.34
421.22
409.5
399.21
387.39
375.19
360.93
349.18
337.71
327.17
314.21
303.16
291.82
281.15
268.41
259.13
250.94
243.13
233.45
233.12
247.77
279.14
317.93
363.19
412.98
469.24
526.14
582.3
632.15
675.35
709.17
738.38
763.45
786.41
803.52
816.42
824.41
830.43
832.83
833.43
831.17
828.43
823.77
818.42
810.52
802.42
793.07
784.41
773.69
762.39
748.38
734.38
718.37
702.36
682.99
662.34
639.6
619.32
599.07
579.3
557.35
538.28
521.89
509.26
495.7
483.25
471.04
461.24
450.43
440.23
429.09
419.22
407.99
397.21
384.48
372.19
358.9
348.18
336.74
325.17
310.91
299.15
288.13
278.14
264.94
253.13
242.09
234.12
227.38
229.12
240.94
265.14
297.49
341.18
393.75
453.23
511.09
566.29
615.13
658.34
693.61
725.38
752.51
774.4
786.91
794.41
799.51
805.42
808.92
810.42
808.34
804.42
797.53
790.41
782.32
774.4
764.06
753.39
741.22
729.38
714.61
698.36
678.81
659.34
638.64
619.32
598.56
578.3
556.96
538.28
520.52
505.26
489.86
477.25
465.67
456.24
445.48
435.23
423.77
413.21
401.86
392.2
381.79
371.19
357.78
345.18
332.67
322.17
309.85
298.15
286.2
277.14
266.31
254.13
239.83
230.12
222.91
217.11
209.62
209.11
219.31
243.13
276.25
321.17
374
431.22
485.8
540.28
592.16
638.33
672.69
700.36
724.13
745.39
759.72
770.4
778.94
786.41
788.36
786.41
782.08
778.4
772.76
765.4
755.57
746.39
736.42
726.38
713.65
700.36
684.46
667.35
646.81
626.32
604.54
583.3
560.43
540.28
522.63
509.26
495.95
484.25
473.1
465.24
457.24
449.23
438.58
428.22
417.15
407.21
395.92
385.2
373.84
364.19
353.56
343.18
331.28
321.17
310.16
299.15
286
275.14
264.08
253.13
240.16
231.12
223.4
215.11
203.89
201.1
211.93
237.12
269.27
311.16
362.29
421.22
479.05
535.28
587.22
634.33
671.61
702.36
727.84
750.39
766.3
777.4
784.33
790.41
793.51
794.41
792.16
789.41
784.74
778.4
768.28
757.39
746.14
736.38
724.25
710.37
693.78
678.35
661.46
643.33
621.72
602.31
586.16
574.3
559.06
539.28
515.73
497.26
484.47
476.25
466.02
455.24
443.43
433.22
422.34
413.21
403.98
395.2
383.91
373.19
362.21
352.18
339.49
327.17
314.82
305.16
294.04
283.15
271.13
262.14
253.21
245.13
234.61
226.12
220.06
221.11
227.94
245.13
273.51
317.16
370.45
429.22
486.26
542.28
593.46
639.33
677.38
712.37
742.67
766.4
779.61
788.41
796.16
804.42
808.67
810.42
809.42
806.42
798.91
790.41
781.9
774.4
764.27
753.39
741.2
729.38
714.49
698.36
679.41
660.34
639.5
620.32
600.84
582.3
561.62
542.28
523.94
509.26
494.64
481.25
467.4
456.24
445.29
435.23
423.46
413.21
403.74
396.2
386.4
375.19
361.47
349.18
337.06
327.17
316.24
306.16
294.78
285.15
274.03
263.14
250.94
242.13
233.46
225.12
215.99
215.11
224.42
245.13
273.06
313.16
364.44
424.22
482.77
539.28
591.09
638.33
676.65
709.37
736.71
760.39
777.31
790.41
799.59
806.42
808.7
809.42
808.37
806.42
801
794.41
786.38
778.4
768.29
758.39
747.41
736.38
721.94
706.37
688.4
670.35
649.37
628.32
606.7
588.3
570.56
554.29
535.92
518.27
501.14
488.25
476.37
465.24
451.93
440.23
429.59
421.22
411.27
401.21
389.94
380.2
369.42
359.19
347.45
337.17
325.76
315.16
303.43
294.15
283.81
273.14
260.37
251.13
242.44
233.12
221.1
217.11
225.88
249.13
280.13
321.17
371.12
429.22
486.94
543.28
595.49
644.33
684.86
718.37
744.32
766.4
783.1
796.41
804.72
810.42
812.76
814.42
813.96
812.42
807.95
802.42
794.58
786.41
776.88
768.4
758.18
746.39
730.44
714.37
697.8
682.35
663.32
642.33
619.29
599.31
580.13
562.29
543
526.27
510.69
497.26
482.89
471.24
461.22
453.23
442.82
432.22
420.96
411.21
399.93
389.2
377.83
368.19
357.28
347.18
335.62
325.17
313.36
303.16
292.01
282.15
270.79
261.14
250.69
242.13
234.57
234.12
240.57
257.13
282.9
323.17
374.56
433.22
490.4
546.28
597.4
643.33
681.17
716.37
748.12
774.4
790.06
800.41
808.54
816.42
820.25
822.43
822.48
820.42
813.6
806.42
800.06
794.41
784.67
773.4
761.81
752.39
740.53
726.38
707.82
688.36
666.98
647.33
627.82
610.32
591.18
572.3
552.46
535.28
517.97
501.26
483.1
468.24
456.16
447.23
436.4
425.22
413.49
404.21
394.01
383.2
369.65
357.18
344.93
335.17
324.34
314.16
302.66
293.15
282.24
271.14
257.79
247.13
237.2
229.12
220.58
218.11
223.05
239.12
264.9
305.16
356.59
415.21
471.97
527.27
578.8
626.32
665.07
698.36
726.79
752.39
771.55
786.41
796.63
804.42
807.85
809.42
808.46
806.42
801.61
796.41
789.74
782.4
772.34
762.39
751.46
740.38
725.76
710.37
693.79
678.35
659.82
639.33
616.31
596.31
578.15
562.29
544.13
526.27
509.02
496.26
484.43
473.24
459.97
448.23
436.95
427.22
415.9
405.21
393.97
384.2
373.25
363.19
351.91
341.18
327.87
315.16
302.76
294.15
284.42
273.14
258.53
247.13
237.47
229.12
218.4
213.11
217.08
234.12
259.49
295.15
339.44
393.2
449.98
508.26
562.57
612.32
653.95
690.36
720.04
744.38
761.7
776.4
788.42
798.41
802.86
804.42
804.09
804.42
802.49
798.41
790.76
782.4
772.96
764.4
753.86
742.38
728.72
716.37
702.36
686.35
665.76
646.33
628.9
614.32
595.92
574.3
550.12
530.27
514.46
503.26
491.36
479.25
465.32
453.23
441.7
432.22
421.61
411.21
399.46
389.2
378.3
368.19
356.79
347.18
336.42
325.17
311.03
299.15
288.07
278.14
265.02
253.13
242.1
234.12
226.09
223.12
225.63
237.12
256.36
289.15
333.83
388.2
444.13
501.26
555.07
604.31
645.93
685.35
721.2
750.39
767.11
777.4
786.17
796.41
803.05
806.42
806.33
805.42
801.83
797.41
791.69
786.41
778.66
769.4
758.13
748.39
736.67
722.37
704.64
689.36
672.56
651.34
626.25
610.32
602.4
591.31
565.91
538.28
519.32
509.26
495.79
480.25
467.07
459.24
449.2
437.23
424.93
416.22
406.45
395.2
381.25
369.19
357.74
348.18
336.8
326.17
314.72
305.16
293.64
282.15
268.99
258.13
246.79
237.12
227.91
225.12
228.43
241.12
262.2
297.15
343.58
399.21
456.07
514.27
570.05
622.32
665.59
702.36
732.43
758.39
778
794.41
806.78
816.42
821.18
824.43
825.95
826.43
822.54
816.42
808.77
802.42
794.77
786.41
775.64
765.4
753.59
741.38
726.09
710.37
691.59
671.35
648.39
628.32
610.26
594.31
575.4
556.29
536.67
519.27
501.16
485.25
470.88
460.24
449.45
439.23
427.6
417.22
406.13
396.2
385.16
375.19
363.91
353.18
340
327.17
313.64
303.16
292.02
281.15
268.48
259.13
250.21
241.12
228.68
221.11
222.47
237.12
260.66
295.15
338.85
393.2
452.29
514.27
571.93
623.32
665.2
702.36
734.23
761.39
780.74
796.41
808.62
818.42
822.86
825.43
826.87
828.43
826.48
822.43
816.3
810.42
802.07
792.41
780.73
770.4
758.82
746.39
730.37
714.37
696.64
678.35
656.6
635.33
613.35
592.31
569.65
550.28
534.17
522.27
508.91
495.26
480.79
469.24
458.06
448.23
437.22
427.22
416.02
405.21
392.37
380.2
367.21
356.18
344.18
333.17
320.8
310.16
298.03
286.15
272.32
261.14
250.29
241.12
231.31
227.12
229.16
241.12
262.36
299.15
348.81
407.21
464.9
522.27
576.25
626.32
669.04
709.37
745.52
774.4
790.75
801.41
810.79
820.42
824.95
826.43
825.99
825.43
821.79
817.42
812.15
806.42
796.59
785.41
773.8
764.4
752.65
738.38
719.78
701.36
681.97
663.34
642.48
622.32
600.9
580.3
558.68
540.28
523.57
509.26
493.7
480.25
468.35
459.24
448.36
437.23
425.47
416.22
406.08
395.2
381.52
369.19
357.25
347.18
334.76
322.17
308.34
297.15
285.35
274.14
261.05
250.13
238.89
229.12
219.69
217.11
220.88
233.12
253.28
289.15
339.4
399.21
457.54
514.27
567.87
618.32
659.74
694.36
722.93
748.39
767.63
782.4
791.92
798.41
800.56
801.41
800.4
798.41
793.59
788.41
781.34
772.4
760.53
750.39
740.21
728.38
712.53
698.36
682.78
662.34
636.77
619.32
610.14
598.31
571.88
542.28
520.98
509.26
495.43
480.25
466.79
457.24
445.09
432.22
420.18
411.21
400.49
389.2
377.46
368.19
357.94
347.18
333.83
321.17
307.43
295.15
282.9
274.14
264.49
253.13
238.26
227.12
218.11
209.11
196.19
189.1
192.95
210.11
235.03
271.14
317.63
373.19
430.23
489.25
546.64
599.31
640.61
674.35
703.05
729.38
749.31
764.4
774.69
782.4
785.28
785.41
783
780.4
775.91
770.4
762.32
753.39
742.71
732.38
720.02
706.37
689.48
672.35
652.86
632.33
609.56
590.31
574.65
562.29
545.52
524.27
500.05
481.25
468.41
461.24
453.47
445.23
434.9
425.22
414.31
404.21
393.24
383.2
371.87
361.19
349.56
339.18
327.98
318.16
307.28
297.15
285.42
275.14
264.05
254.13
242.75
233.12
222.84
214.11
205.64
203.11
205.99
217.11
236.19
270.14
317.53
375.19
434.05
493.26
548.4
598.31
640.37
680.35
716.92
746.39
762.99
773.4
783.06
794.41
802.09
806.42
806.82
804.42
797.57
790.41
784
778.4
769.04
757.39
743.66
730.38
714.75
698.36
679.17
659.34
637.21
616.32
594.81
574.3
552.72
534.28
517.8
504.26
489.84
477.25
465.49
456.24
445.67
435.23
423.53
413.21
402.19
392.2
381.24
371.19
359.81
349.18
337.43
327.17
316.06
306.16
294.95
285.15
273.87
263.14
251.15
242.13
233.18
225.12
216.13
213.11
216.59
229.12
249.66
285.15
334
392.2
450.39
509.26
566.01
618.32
659.82
694.36
723.82
750.39
770.34
786.41
798.72
808.42
812.38
813.42
812.22
810.42
805.23
798.41
790.09
782.4
772.88
762.39
749.4
736.38
721.46
706.37
688.64
670.35
649.06
627.32
604.24
584.3
566.06
550.28
532.36
514.27
495.81
481.25
468.29
457.24
444.43
432.22
420.18
411.21
402.2
393.2
382.07
372.19
361.76
351.18
337.6
325.17
313.15
303.16
291.77
282.15
271.6
261.14
248.49
239.12
230.45
221.11
208.09
201.1
204.89
222.11
247.22
283.15
329.13
385.2
444.13
505.26
564.03
618.32
662.2
698.36
727.69
753.39
772.95
788.41
798.83
806.42
809.95
812.42
813
812.42
808.25
802.42
794.24
785.41
774.57
764.4
753.37
742.38
728.58
714.37
697.53
679.35
657.9
638.33
620.78
606.31
588.66
568.29
545.38
526.27
510.09
497.26
483.54
471.24
459.16
449.23
438.35
428.22
417.18
407.21
395.85
385.2
373.84
364.19
353.39
343.18
331.43
321.17
309.5
298.15
284.87
274.14
264.45
257.13
247.21
237.12
227
223.12
225.17
237.12
258.48
294.15
341.55
399.21
458.92
518.27
571.79
620.32
662.25
701.36
735.02
762.39
780.21
793.41
803.95
814.42
821.61
826.43
826.95
824.43
818.49
813.42
808.39
802.42
792.16
781.4
770.57
760.39
746.32
730.38
711.86
693.36
672.36
652.34
632.41
614.32
593.64
572.3
550.25
532.28
515.86
501.26
485.48
472.24
460.52
451.23
440.18
429.22
417.7
408.21
397.67
387.2
375.33
365.19
354.14
343.18
329.86
318.16
306.66
297.15
285.77
275.14
263.64
254.13
243.07
233.12
223.99
221.11
222.56
231.12
247.99
281.15
327.82
383.2
438.87
497.26
555.61
610.32
653.87
690.36
721.66
749.39
769.62
786.41
800.56
812.42
817.85
820.42
821.64
822.43
818.68
812.42
804.8
798.41
790.62
782.4
771.79
760.39
746.54
733.38
718.56
702.36
681.54
660.34
639
620.32
600.81
582.3
562.63
544.28
525.39
509.26
494.08
481.25
467.79
456.24
444.92
435.23
423.98
413.21
401.81
392.2
381.54
371.19
359.34
349.18
338.04
327.17
314.18
303.16
291.76
281.15
268.67
259.13
250.07
241.12
228.95
221.11
220.38
230.12
246.89
275.14
314.39
365.19
420.97
481.25
540.58
596.31
642.54
682.35
715.93
745.39
767.57
785.41
798.94
810.42
817.2
821.42
823.07
824.43
822.76
818.42
810.51
802.42
793.39
784.41
773.16
762.39
751.03
740.38
726.4
710.37
690.54
670.35
648.3
627.32
605.24
584.3
562.22
542.28
523.65
509.26
495.68
483.25
469.3
457.24
445.78
436.23
425.38
415.21
403.99
393.2
380.29
368.19
356.34
347.18
336.57
325.17
311.11
299.15
287.7
278.14
266.88
257.13
246.67
237.12
225.88
218.11
213.86
217.11
228.18
254.13
293.31
343.18
396.16
453.23
510.14
564.29
611.02
655.34
696.15
730.38
751.77
766.4
779.37
793.41
802.37
806.42
807.02
808.42
808.01
805.42
799.67
794.41
788.37
781.4
770.91
760.39
749.36
738.38
722.94
705.36
685.7
667.35
647.03
626.32
603.98
584.3
565.87
550.28
533.84
518.27
501.99
488.25
475.17
464.24
452.34
441.23
429.62
420.22
410.05
399.21
385.54
373.19
361.65
352.18
340.91
330.17
318.72
309.16
297.71
286.15
272.93
262.14
250.95
241.12
231
225.12
220.16
217.11
217.46
233.12
266.07
313.16
364.26
420.22
478.96
538.28
589.9
635.33
674.77
710.37
738.58
762.39
781.64
797.41
806.05
810.42
812.09
814.42
814.83
813.42
808.5
802.42
794.35
786.41
777.42
769.4
759.56
748.39
733.48
718.37
701.87
685.35
665.24
644.33
622.16
602.31
582.34
564.29
546.04
530.27
514.7
501.26
487.43
475.25
462.48
451.23
439.49
429.22
417.99
407.21
394.74
383.2
371.28
361.19
349.87
339.18
327.48
318.16
307.86
297.15
283.28
271.14
259.59
250.13
238.7
229.12
221.01
218.11
218.83
229.12
250.96
289.15
339.37
399.21
460.07
519.27
572.42
622.32
666.8
706.37
737.28
762.39
781.75
798.41
810.07
818.42
822.85
826.43
827.44
826.43
821.71
816.42
810.51
805.42
798.33
790.41
779.75
768.4
754.67
741.38
726.22
710.37
690.93
671.35
650.64
631.33
610.35
590.31
569.95
552.29
534.46
518.27
502.07
489.25
477.46
467.24
455.03
443.23
431.11
421.22
410.53
400.21
388.72
379.2
368.53
357.18
343.02
331.17
320.08
310.16
297.08
285.15
273.28
263.14
251.22
242.13
234.27
229.12
225.59
233.12
254.07
289.15
332.2
385.2
443.75
504.26
560.42
616.32
669.21
714.37
744.96
768.4
789.82
810.42
823.19
830.43
835.06
840.43
842.11
840.43
835.43
830.43
824.27
818.42
810.25
800.41
788.27
778.4
768.18
756.39
740.63
726.38
710.31
690.36
666.67
651.34
642.81
630.33
602.37
570.29
545.41
530.27
514.05
497.26
482.58
473.24
463
452.23
440.72
431.22
420.2
409.21
397.3
387.2
375.42
363.19
348.95
337.17
325.28
314.16
300.85
290.15
279.6
269.14
255
243.13
233.3
227.12
222.65
229.12
250.13
287.15
332.02
384.2
440.6
501.26
559.46
614.32
661.65
702.36
734.46
762.39
785.5
804.42
815.61
822.43
826.23
830.43
832.69
833.43
830.44
825.43
817.81
810.42
801.94
793.41
782.65
772.4
761.31
750.39
735.04
716.37
693.75
672.35
650.79
630.33
607.99
587.3
566.59
547.28
526.8
509.26
493.78
481.25
467.59
455.24
443.22
433.22
422.18
412.21
401.57
391.2
378.1
365.19
351.45
339.18
326.01
315.16
303.96
293.15
279.46
267.14
254.63
243.13
229.08
217.11
206.88
201.1
197.75
203.11
218.97
249.13
290.17
343.18
402.65
465.24
523.69
578.3
625.8
666.34
697.78
725.38
749.59
770.4
783.1
790.41
794.38
798.41
799.75
798.41
793.08
786.41
778.2
770.4
760.9
750.39
737.22
724.37
710.7
697.36
680.63
662.34
641.96
623.32
603.55
583.3
561.02
542.28
526.61
514.27
500.32
487.25
474.79
465.24
454.75
444.23
431.87
420.22
407.84
397.21
386.29
376.19
364.93
355.18
344.46
333.17
319.16
307.16
296.03
286.15
273.24
261.14
249.11
239.12
227.63
218.11
208.69
201.1
193.96
195.1
207.11
233.12
269.23
317.16
372.66
433.22
492.4
551.29
606.17
654.34
689.76
716.37
737.73
758.39
774.76
786.41
792.37
796.41
797.53
796.41
791.72
786.41
780.1
773.4
763.5
752.39
740.53
730.38
717.46
701.36
682.4
666.34
648.69
626.32
600.03
582.3
571.92
558.29
530.81
501.26
481.11
472.24
463.17
453.23
443.91
437.23
427.39
416.22
404.68
395.2
384.09
373.19
361.94
352.18
340.85
330.17
318.89
309.16
297.82
287.15
275.59
266.14
255.53
245.13
232.89
223.12
213.96
207.11
200.66
201.1
210.74
234.12
268.3
314.16
366.96
425.22
483.13
540.28
591.66
636.33
671.74
702.36
727.83
748.39
760.89
769.4
775.83
782.4
785.46
785.41
781.82
777.4
770.6
762.39
751.69
741.38
730.53
720.37
707.85
694.36
677.77
660.34
640.21
620.32
598.75
578.3
558.31
543.28
530.38
519.27
506.64
497.26
490.17
485.25
477.33
469.24
460.67
453.23
443.25
433.22
423.12
415.21
407.29
401.21
395.82
392.2
388.7
387.2
385.15
381.2
373.03
364.19
354.44
343.18
328.29
313.16
297.16
277.14
248.69
215.11
180.26
148.08
121.41
107.06
106.42
115.06
125.37
136.07
145.85
152.08
150.84
144.07
132.75
116.06
92.267
66.034
42.092
23.012
8.2831
1.9324e-16
-1.7947
-2.9409e-16
0.71246
1.5227e-16
-0.50141
-1.81e-16
0.21853
9.1284e-17
-0.24674
-1.2637e-16
0.026744
2.0689e-17
-0.13792
-8.2051e-17
-0.02338
-9.2006e-18
-0.048367
-3.2931e-17
0
0
0
0
0
0
0
0
0
0
0
0
0
0
0
0
0
0
0
0
0
0
0
-3.7227e-17
-0.054676
-2.8143e-17
-0.052488
-3.0863e-17
-0.070321
3.2656e-17
0.054496
-5.5374e-17
-0.10664
8.2036e-17
0.17886
-1.124e-16
-0.30174
1.4427e-16
0.55028
-1.7493e-16
-1.3105
2.0147e-16
8.1908
26.013
53.798
87.045
113.89
120.06
100.93
67.035
34.917
14.007
3.7822
1.7697e-16
-0.55451
-1.4557e-16
0.24272
1.1234e-16
-0.13371
-8.0215e-17
0.07433
5.1667e-17
-0.038016
-2.8457e-17
0.0028741
9.231e-18
-0.053204
-2.1175e-17
-0.070644
-4.401e-17
-0.029441
-2.0045e-17
0
0
0
0
0
0
0
0
0
0
0
0
0
0
0
0
0
0
0
0
0
0
0
0
0
0
0
0
0
0
0
0
0
0
0
0
0
0
0
0
0
0
0
0
0
0
0
0
0
0
0
0
0
0
0
0
0
0
0
0
0
0
0
0
0
0
0
0
0
0
0
0
0
0
0
0
0
0
0
0
0
0
0
0
0
0
0
0
0
0
0
0
0
0
0
0
0
0
0
0
0
0
0
0
0
0
0
0
0
0
0
0
0
0
0
0
0
0
0
0
0
0
0
0
0
0
0
0
0
-2.8779e-16
-0.42269
2.4001e-16
0.26627
-5.7803e-16
-0.90508
5.8285e-16
1.0084
-8.9624e-16
-1.9118
8.8695e-16
2.5443
-1.1001e-15
-4.2975
1.0084e-15
7.0896
-1.0829e-15
-16.025
8.8413e-16
79.55
201.1
305.22
353.18
353.11
337.17
325.11
317.16
307.08
295.15
284.09
274.14
262.12
249.13
237.61
229.12
220.99
213.11
205.12
197.1
187.22
177.09
167.55
160.08
153.74
152.08
156.02
168.09
187.11
214.11
245.23
277.14
304.88
329.17
348.91
364.19
372.8
377.2
377.8
376.19
371.94
368.19
364.71
361.19
356.34
353.18
351.91
351.18
349.16
349.18
353.28
360.19
365.25
368.19
370.36
373.19
373.84
371.19
364.94
357.18
346.89
333.17
314.56
293.15
269.86
245.13
216.52
185.1
153.86
127.07
103.03
79.041
54.735
36.019
25.322
20.01
13.907
7.0036
1.6138
-2.7496e-16
-0.23137
-2.7378e-17
-0.34793
-1.9914e-16
-0.11298
-1.9078e-16
-0.44977
-1.6093e-16
-0.16738
-4.5921e-16
-0.8351
-7.5411e-17
-0.034206
-6.1421e-16
-1.3562
1.0409e-16
0.70113
-7.4608e-16
-0.94559
10.005
35.659
71.037
104.25
136.07
169.58
213.11
273.45
363.19
480.96
614.32
742.36
855.44
943.33
999.52
1021.1
1023.5
1021.6
1023.5
1024
1023.5
1022.3
1023.5
1023.4
1023.5
1022.7
1023.5
1023
1023.5
1022.7
1023.5
1022.7
1023.5
1022.5
1023.5
1022.5
1023.5
1022.5
1023.5
1022.5
1023.5
1022.5
1023.5
1022.5
1023.5
1022.5
1023.5
1022.5
1023.5
1022.5
1023.5
1022.5
1023.5
1022.5
1023.5
1022.5
1023.5
1022.5
1023.5
1022.5
1023.5
1022.5
1023.5
1022.5
1023.5
1022.5
1023.5
1022.5
1023.5
1022.5
1023.5
1022.5
1023.5
1022.5
1023.5
1022.5
1023.5
1022.5
1023.5
1022.5
1023.5
1022.5
1023.5
1022.5
1023.5
1022.5
1023.5
1022.5
1023.5
1022.5
1023.5
1022.5
1023.5
1022.6
1023.5
1022.6
1023.5
1022.7
1023.5
1022.5
1023.5
1022.9
1023.5
1022.4
1023.5
1023.3
1023.5
1021.1
1019.5
1013
997.52
964.65
919.48
868.16
821.42
778.18
738.38
698.2
662.34
630.26
604.31
580.75
562.29
545.52
530.27
510.61
489.25
464.46
439.23
408.94
377.2
342.99
313.16
287.11
270.14
258.2
253.13
251.53
258.13
268.49
282.15
294.67
313.16
337.9
371.19
407.74
451.23
498.66
550.28
600.45
652.34
701.69
746.39
780.56
810.42
837.94
865.45
887.71
908.47
928.63
951.49
971.63
989.51
1002.4
1013.5
1019.7
1023.5
1023.2
1023.5
1022.5
1023.5
1022.8
1023.5
1022.5
1023.5
1022.6
1023.5
1022.5
1023.5
1022.5
1023.5
1022.5
1023.5
1022.5
1023.5
1022.5
1023.5
1022.5
1023.5
1022.5
1023.5
1022.5
1023.5
1022.5
1023.5
1022.5
1023.5
1022.5
1023.5
1022.5
1023.5
1022.5
1023.5
1022.5
1023.5
1022.5
1023.5
1022.5
1023.5
1022.5
1023.5
1022.5
1023.5
1022.5
1023.5
1022.5
1023.5
1022.5
1023.5
1022.5
1023.5
1022.5
1023.5
1022.5
1023.5
1022.5
1023.5
1022.5
1023.5
1022.5
1023.5
1022.5
1023.5
1022.5
1023.5
1022.5
1023.5
1022.5
1023.5
1022.5
1023.5
1022.5
1023.5
1022.5
1023.5
1022.5
1023.5
1022.5
1023.5
1022.5
1023.5
1022.6
1023.5
1022.6
1023.5
1022.6
1023.5
1022.6
1023.5
1022.7
1023.5
1022.5
1023.5
1022.7
1021.5
1013.5
1000.5
979.06
955.49
929.02
905.47
880.09
855.44
827.59
802.42
775.58
749.39
720.15
696.36
677.08
666.34
660.59
668.35
688.55
722.37
760.07
802.42
843.35
883.46
916.53
947.49
973.43
995.51
1007.7
1015.5
1019.3
1023.5
1024
1023.5
1019.1
1012.5
999.88
985.51
969.3
955.49
941.29
929.48
917.54
908.47
898.93
891.46
882.32
873.45
860.51
846.44
829.54
814.42
797.88
781.4
762.02
744.38
726.71
710.37
691.62
674.35
657.95
644.33
629.33
614.32
597.36
580.3
560.57
540.28
517.31
493.26
466.2
440.23
413.54
387.2
357.72
329.17
299.45
270.14
238.79
211.11
184.72
160.08
135.77
120.06
110.42
104.05
100.43
116.06
156.56
215.11
275.57
338.17
403.62
469.24
524.41
570.29
609.05
642.33
665.71
682.35
694.84
705.36
711.79
716.37
718.98
718.37
711.88
702.36
691.73
680.35
666.01
650.34
633.36
615.32
594.07
572.3
549.6
526.27
499.42
472.24
445.03
419.22
391.76
365.19
339.74
318.16
298.62
283.15
270.35
261.14
252.43
245.13
237.58
231.12
223.9
217.11
209.11
201.1
192.31
185.1
178.48
173.09
166.52
160.08
152.16
144.07
133.83
124.06
114.6
108.06
101.45
95.049
86.778
80.041
74.277
72.037
73.046
83.043
104.23
140.07
187.41
245.13
307.38
371.19
430.7
485.25
532.04
572.3
605.38
634.33
657.45
674.35
683.75
690.36
695.89
701.36
704.37
706.37
706.48
704.36
698
690.36
682.22
674.35
663.72
652.34
639.98
628.32
613.94
598.31
580.67
564.29
546.99
530.27
512.51
497.26
483.33
472.24
460.95
451.23
441.3
433.22
425.12
419.22
413.37
408.21
400.82
393.2
384.36
376.19
366.51
357.18
346.73
337.17
325.92
315.16
303.46
294.15
284.94
277.14
266.52
255.13
242.62
234.12
226.84
221.11
215.56
218.11
230.5
255.13
289.34
337.17
394.77
457.24
515.88
572.3
624.48
670.35
703.91
729.38
749.32
766.4
777.67
786.41
793.1
798.41
798.73
796.41
791.86
786.41
778.23
770.4
761.97
752.39
739.12
726.38
712.99
698.36
680.07
663.34
644.9
622.32
596.37
580.3
572.94
562.29
536.7
509.26
492.9
488.25
480.34
467.24
453.44
445.23
437.23
428.22
417.46
409.21
401.14
393.2
382.8
373.19
363.54
355.18
344.33
333.17
320.91
311.16
301.32
293.15
283.05
273.14
262.34
255.13
247.6
239.12
228.33
225.12
233.29
255.13
285.02
325.17
374.4
433.22
494.36
555.29
609.69
656.34
692.25
722.37
747.78
770.4
786.33
797.41
804.26
810.42
813.39
813.42
809.52
805.42
800.41
794.41
784.44
773.4
762.05
752.39
740.29
726.38
709.76
694.36
677.43
659.34
637.76
618.32
602.12
590.31
574.35
552.29
525.64
505.26
492.11
483.25
471.21
459.24
448.81
441.23
431.47
421.22
411.06
403.21
394.31
385.2
374.58
364.19
351.71
339.18
324.56
309.16
290.2
271.14
251.46
234.12
215.62
197.1
175.74
155.08
134.86
120.06
109.83
108.06
115.28
138.07
175.88
229.12
291.59
361.19
429.41
492.25
546.11
596.31
641.33
678.35
702.55
720.37
736.33
752.39
763.35
770.4
775.17
780.4
782.89
782.4
778.58
774.4
768.54
761.39
751.11
740.38
727.79
714.37
697.52
680.35
661.6
643.33
623.6
606.31
589.69
574.3
556.99
542.28
530.22
522.27
513.98
507.26
500.84
496.26
489.36
481.25
470.59
460.24
448.26
436.23
422.39
409.21
395.49
383.2
369.65
356.18
341.46
329.17
317.47
307.16
294.86
283.15
269.97
257.13
242.35
229.12
215.1
202.1
190.38
189.1
200.94
227.12
260.98
302.16
346.66
393.2
435.96
476.25
513.05
548.28
578.89
606.31
628.94
648.34
662.88
675.35
685.42
694.36
699.67
702.36
701.92
700.36
696.27
690.36
681.56
672.35
661.96
651.34
637.74
622.32
603.43
583.3
561.1
540.28
519.79
501.26
482.31
465.24
448.33
433.22
417.92
405.21
393.52
384.2
374.92
368.19
362.23
357.18
349.44
341.18
332.82
327.17
320.7
313.16
302.79
294.15
286.6
281.15
273.28
265.14
255.93
249.13
241.25
233.12
222.28
213.11
205.35
203.11
205.9
219.11
243
281.15
330.9
392.2
457.02
520.27
575.72
626.32
671.1
710.37
740.32
764.4
783.1
798.41
807.87
814.42
818.16
820.42
818.49
814.42
808.43
802.42
794
784.41
773
762.39
750.54
738.38
723.01
706.37
686.54
666.34
644.17
623.32
602.2
583.3
563.89
546.28
528.77
514.27
500.01
487.25
473.31
461.24
449.87
441.23
431.96
423.22
413.35
405.21
396.59
388.2
377.48
367.19
355.81
345.18
333.13
323.17
313.42
305.16
294.71
285.15
274.57
265.14
254.29
246.13
238.58
233.12
228.17
231.12
243.73
269.14
304.65
353.18
409.47
469.24
526.34
584.3
639.49
686.35
717.64
740.38
760.43
780.4
794
802.42
807.42
812.42
813.92
812.42
807.56
802.42
796.18
790.41
782.35
772.4
760.24
750.39
739.69
726.38
709.02
694.36
678.81
658.34
632.79
616.32
608.94
598.31
570.79
538.28
514.7
503.26
491.01
476.25
461.97
453.23
444.84
436.23
425.54
415.21
403.33
393.2
384.09
377.2
368.46
359.19
347.67
337.17
326.08
317.16
307.3
298.15
286.96
277.14
267.03
259.13
249.78
241.12
232.17
229.12
233.4
250.13
277.49
317.16
365.06
421.22
480.19
540.28
594.68
642.33
680.83
714.37
742.17
765.4
781.11
792.41
799.89
806.42
809.35
809.42
805.69
801.41
795.96
790.41
782.36
773.4
762.57
752.39
741.16
730.38
716.76
701.36
682.2
663.34
644.01
626.32
606.76
587.3
566.31
547.28
529
514.27
500.01
487.25
473.82
463.24
453.57
445.23
434.82
425.22
415.61
407.21
396.36
385.2
373.71
365.19
356.25
347.18
335.45
325.17
315.15
307.16
296.79
286.15
274.15
265.14
256.38
249.13
240.52
235.12
233.47
241.12
258.45
290.15
333.4
387.2
444.84
505.26
562.87
616.32
661.26
700.36
732.29
758.39
776.21
789.41
798.34
805.42
808.64
810.42
809.95
808.42
803.53
797.41
789.71
782.4
773.71
765.4
755.34
744.38
729.79
714.37
697.05
680.35
661.7
643.33
622.81
602.31
580.12
560.29
541.7
526.27
510.77
497.26
483.5
471.24
458.15
447.23
437.09
429.22
420.48
412.21
401.92
391.2
378.97
369.19
360.19
352.18
341.14
330.17
318.57
309.16
298.58
289.15
278.81
270.14
259.52
249.13
237.98
231.12
227.07
229.12
238.04
261.14
296.91
344.18
397.63
459.24
523.03
582.3
628.39
666.34
700.48
733.38
758.05
774.4
784.39
794.41
802.78
808.42
808.43
806.42
803.25
800.41
794.52
786.41
775.96
766.4
755.89
745.39
732.94
721.37
708.33
694.36
675.74
655.34
632.83
612.32
592.07
574.3
556.04
539.28
522.5
509.26
496.8
485.25
471.74
460.24
449.83
441.23
430.77
421.22
411.95
404.21
394.04
383.2
371.2
361.19
350.01
339.18
327.2
318.16
309.3
301.16
289.87
279.14
267.78
258.13
246.65
237.12
230.2
231.12
238.22
255.13
282.32
325.17
380.13
443.23
504
560.29
610.45
658.34
699.92
733.38
755.95
773.4
787.1
798.41
803.91
806.42
806.58
806.42
803.15
798.41
792.17
786.41
778.22
768.4
756.54
746.39
735.93
725.38
711.79
698.36
683.03
666.34
644.97
623.32
601.86
583.3
564.03
546.28
528.82
514.27
499.73
487.25
475.07
465.24
454.53
444.23
432.76
423.22
413.75
405.21
394.58
384.2
372.95
363.19
351.94
341.18
329.18
319.17
308.26
298.15
286.45
277.14
268.25
261.14
251.5
242.13
232.75
229.12
231.82
246.13
271.33
310.16
358.94
417.22
478.03
538.28
591.7
639.33
679.52
714.37
740.75
760.39
773.37
784.41
792.62
798.41
799.31
798.41
796.04
793.41
787.18
778.4
767.54
758.39
749.39
740.38
728
714.37
698.37
682.35
663.64
644.33
622.77
602.31
581.83
564.29
546.76
530.27
512.51
497.26
483.11
471.24
458.36
447.23
436.94
429.22
420.58
412.21
402.36
393.2
382.82
373.19
362.35
352.18
340.6
330.17
318.92
309.16
298.38
289.15
279.01
270.14
259.35
249.13
238.13
230.12
222.33
217.11
215.27
225.12
247.15
282.15
325.99
381.2
442.86
505.26
559.09
606.31
648.08
686.35
716.09
738.38
753.81
766.4
774.74
780.4
782.24
782.4
779.89
776.4
770.2
762.39
752.22
742.38
731.53
720.37
706.79
693.36
678.33
662.34
641.9
620.32
598.5
580.3
561.62
542.28
521.07
504.26
491.75
483.25
472.62
461.24
449.26
440.23
430.77
421.22
410.13
401.21
392.58
384.2
373.29
363.19
353.49
345.18
334.36
323.17
311.31
302.16
292.93
285.15
275.87
267.14
256.28
246.13
234.63
225.12
216.66
213.11
211.77
215.11
224.55
249.13
289.68
344.18
402.31
461.24
518.07
574.3
624.3
666.34
698.44
725.38
746.54
762.39
771.09
777.4
782.14
785.41
783.28
778.4
772.21
766.4
757.97
748.39
737.29
726.38
714.01
702.36
687.88
670.35
650.24
634.33
617.63
595.31
569.1
555.29
552.98
546.28
520.77
491.25
473.8
469.24
461.63
449.23
436.82
429.22
420.54
411.21
401.41
393.2
382.96
373.19
364.09
357.18
347.84
337.17
324.84
315.16
305.66
297.15
286.41
277.14
268.12
261.14
251.64
242.13
232.9
229.12
227.66
230.12
238.24
262.14
301.71
353.18
407.33
465.24
524.7
583.3
632.86
674.35
707.96
736.38
757.13
773.4
785.27
794.41
798.51
800.41
799.8
797.41
790.68
782.4
773.59
766.4
757.92
748.39
735.81
722.37
706.46
690.36
672.45
655.34
636.65
618.32
598.47
580.3
561.38
543.28
524.44
509.26
495.63
483.25
468.66
456.24
445.63
437.23
426.56
416.22
405.91
397.21
386.82
377.2
367.77
360.19
350.76
341.18
330.31
321.17
310.82
301.16
290.4
282.15
273.4
265.14
254.38
245.13
235.89
229.12
223.42
225.12
235.52
258.13
289.9
333.17
385.25
445.23
505.07
562.29
613.33
660.34
699.48
730.38
751.77
769.4
783.3
793.41
796.88
798.41
799.5
800.41
796.45
789.41
781.05
774.4
766.51
757.39
745.47
733.38
719.72
706.37
690.69
674.35
655.3
636.33
615.2
594.31
572.59
554.29
537.36
522.27
505.15
489.25
474.67
464.24
453.75
443.23
431
421.22
412.5
405.21
395.97
387.2
377.78
369.19
358.72
349.18
339.14
330.17
319.09
309.16
299.1
291.15
281.74
273.14
262.78
253.13
242.48
235.12
229.14
227.12
229.51
245.13
275.71
321.17
372.58
428.22
485.64
546.28
602.86
651.34
687.93
718.37
744.09
766.4
781.05
790.41
795.9
801.41
804.73
806.42
804.52
800.41
792.88
784.41
773.77
762.39
750.31
741.38
731.26
717.37
699.65
686.35
672.57
651.34
623.64
608.31
605.94
598.31
568.33
532.28
509.12
500.26
488.62
473.24
460.07
453.23
444.86
435.23
425.24
417.22
407.01
397.21
387.62
379.2
368
357.18
346.85
339.18
330.02
321.17
310.58
301.16
290.41
281.15
270.91
262.14
252.44
245.13
237.95
234.12
234
245.13
268.29
305.16
350.58
405.21
465.01
528.27
586.85
638.33
679.01
712.37
738.87
762.39
780.76
794.41
801.29
805.42
807.75
810.42
809.93
806.42
799.35
792.41
784.66
776.4
765.32
754.39
743.04
732.38
718.3
702.36
683.81
666.34
647.37
628.32
607.35
588.3
568.97
550.28
529.62
511.26
494.6
481.25
467.89
457.24
447.75
440.23
430.71
421.22
410.71
401.21
390.23
380.2
369.89
361.19
350.96
341.18
330.22
321.17
311.24
302.16
291.08
281.15
270.25
261.14
251.72
245.13
238.19
233.12
230.54
239.12
259.77
293.15
334.19
385.2
442.61
503.26
558.99
610.32
655.24
694.36
724.19
748.39
767.2
782.4
791.6
798.41
803.07
806.42
805.1
801.41
795.87
790.41
782.47
773.4
762.55
752.39
741.19
730.38
717.02
702.36
684.61
667.35
648.8
630.33
608.96
588.3
568.1
551.29
534.26
518.27
501.71
488.25
475.54
464.24
451.63
441.23
432.1
425.22
416.51
407.21
395.89
385.2
373.98
365.19
356.16
347.18
335.42
325.17
315.35
307.16
296.43
286.15
274.83
265.14
254.67
247.13
239.96
234.12
227.7
229.12
243.34
275.14
317.58
367.19
419.48
477.25
536.05
592.31
639.01
678.35
710.61
738.38
758.54
773.4
783.47
792.41
798.41
802.42
802.69
801.41
797.72
793.41
786.61
778.4
767.67
757.39
746.54
736.38
723.83
710.37
693.79
676.35
656.18
636.33
614.86
594.31
573.49
556.29
539.84
524.27
507.11
493.26
481.45
471.24
458.49
447.23
437.31
429.22
418.86
409.21
399.77
391.2
379.83
369.19
359.47
352.18
342.74
333.17
322.4
313.16
301.94
291.15
279.34
270.14
260.86
253.13
243.5
235.12
228.29
230.12
242.36
269.14
306.28
353.18
405.76
465.24
525.44
582.3
629.84
671.35
706.49
736.38
757.86
774.4
785.78
793.41
795.93
798.41
801.01
802.42
798.38
792.41
785.62
778.4
768.06
758.39
748.49
737.38
722.82
710.37
696.81
678.35
654.75
639.33
631.26
618.32
589.29
558.29
537.59
526.27
510.75
493.26
478.77
469.24
456.93
444.23
433.16
425.22
415.06
405.21
395.99
388.2
377.56
367.19
357.31
349.18
338.26
327.17
315.51
306.16
295.35
285.15
273.9
265.14
256.35
249.13
239.21
229.12
220.55
222.11
233.24
254.13
282.49
325.17
380.7
444.23
504.94
562.29
613.61
658.34
692.82
722.37
747.76
768.4
779.62
786.41
792
798.41
801.19
801.41
798.72
794.41
786.57
778.4
770.06
762.39
752.37
742.38
731.38
720.37
705.85
690.36
672.57
654.34
632.76
611.32
589.72
571.3
553.48
538.28
523.04
509.26
494.07
480.25
466.98
457.24
448.41
441.23
432.36
423.22
411.95
401.21
390.04
381.2
372.02
363.19
351.84
341.18
329.54
319.17
307.62
298.15
287.63
277.14
264.56
255.13
246.71
239.12
229.25
225.12
230.7
250.13
278.95
319.17
369.16
429.22
491.17
551.29
603.87
650.34
689.01
722.37
747.62
766.4
778.89
790.41
799.82
806.42
807.29
806.42
804.32
801.41
794.54
786.41
777.55
769.4
758.96
748.39
736.98
726.38
712.94
698.36
681
663.34
642.79
622.32
601.35
583.3
564.74
546.28
526.11
509.26
495.02
484.25
472.89
463.24
453.68
445.23
434.52
424.22
413.81
405.21
395.12
385.2
374.04
364.19
353.17
343.18
331.71
321.17
309.27
299.15
288.11
278.14
266.68
257.13
246.94
238.12
229.27
227.12
233.65
253.13
282.27
323.17
374.13
436.23
500.98
562.29
613
656.34
693.23
726.38
751.77
770.4
781.8
790.41
796.14
801.41
804.5
806.42
804.66
800.41
793.27
786.41
778.6
770.4
759.74
749.39
737.69
725.38
709.77
694.36
677.33
659.34
637.4
616.32
596.17
578.3
558.07
538.28
519.42
505.26
492.33
481.25
469.66
460.24
450.42
441.23
430.45
421.22
412.15
404.21
393.9
383.2
371.29
361.19
350.46
341.18
331
322.17
311.46
301.16
289.19
279.14
269.1
261.14
251
241.12
232.69
233.12
240.24
254.13
275.03
313.16
367.66
431.22
491.2
548.28
601.69
650.34
688.45
720.37
747.15
768.4
779.6
786.41
792.34
798.41
799.18
796.41
791.46
786.41
778.68
770.4
761.31
752.39
741.21
730.38
718.59
706.37
690.53
674.35
656.56
638.33
616.79
596.31
576.63
559.29
540.24
522.27
505.06
491.25
477.19
464.24
451.15
441.23
432.34
425.22
416.42
407.21
395.9
385.2
374.12
365.19
355.95
347.18
335.97
325.17
313.37
303.16
291.92
282.15
271.09
261.14
250.61
243.13
235.2
227.12
217.11
213.11
218.47
237.12
264.82
303.16
350.82
409.21
470.91
531.27
583.86
630.33
669.39
702.36
725.81
742.38
754.17
766.4
776.53
782.4
781.16
777.4
773.06
769.4
762.85
754.39
743.83
733.38
721.28
709.37
696.01
682.35
665.38
647.33
627.03
607.31
586.2
566.29
545.75
527.27
509.37
495.26
482.86
473.24
462.78
453.23
443.22
435.23
426.28
417.22
406.4
397.21
388.02
379.2
367.87
357.18
346.98
339.18
330.1
321.17
310.57
301.16
290.53
281.15
270.75
262.14
252.87
245.13
235.43
226.12
217.07
215.11
220.82
237.12
261.79
299.15
348.36
409.21
472.8
534.28
587.51
634.33
674.05
709.37
737.34
758.39
770.67
778.4
783.44
789.41
793.41
794.41
790.28
784.41
776.8
768.4
757.27
746.39
735.49
725.38
712.4
698.36
682.27
666.34
647.62
628.32
607.35
588.3
569.8
554.29
538.23
522.27
504.43
489.25
475.84
465.24
453.91
444.23
434.34
425.22
414.41
405.21
396.37
388.2
377.41
367.19
357.31
349.18
338.98
329.17
318.8
310.16
299.49
289.15
277.84
269.14
260.4
253.13
243.14
233.12
224.59
225.12
232.45
246.13
265.65
301.16
352.99
415.21
475.09
532.28
586.51
638.33
681.29
716.37
743.29
764.4
777.47
786.41
792.58
798.41
800.98
801.41
798.72
794.41
786.64
777.4
766.52
756.39
745.35
734.38
720.81
706.37
689.89
674.35
656.9
638.33
616.6
596.31
576.73
559.29
540.2
522.27
505.03
491.25
477.27
464.24
450.96
441.23
432.64
425.22
415.81
407.21
398
389.2
378.48
369.19
359.94
351.18
339.61
329.17
319.25
311.16
300.52
290.15
278.78
269.14
258.78
251.13
243.11
235.12
225.11
221.11
226.53
245.13
272.65
311.16
359.07
417.22
478.7
540.28
595
642.33
680.69
714.37
741.55
762.39
775.47
786.41
795.55
802.42
803.44
802.42
800.37
797.41
789.31
778.4
766.74
757.39
747.21
736.38
723.23
710.37
695.6
680.35
662.08
643.33
622.4
602.31
581.86
564.29
546.8
530.27
512.41
497.26
483.28
471.24
458.06
447.23
437.49
429.22
418.76
409.21
400.33
393.2
383.61
373.19
361.64
352.18
342.19
333.17
322.63
313.16
302.45
293.15
282.81
274.14
264.8
257.13
247.53
238.12
228.38
225.12
229.47
245.13
269.58
306.16
353.72
413.21
476.5
538.28
591.55
638.33
678.13
713.37
740.98
762.39
776.35
786.41
793.24
800.41
805.2
806.42
801.97
796.41
790.77
785.41
776.58
766.4
755.36
745.39
732.71
718.37
701.71
686.35
669.65
652.34
631.92
612.32
592.52
574.3
553.98
534.28
515.32
501.26
488.71
477.25
463.82
452.23
441.65
433.22
423.18
413.21
402.09
392.2
381.73
373.19
364.74
357.18
346.54
335.17
323
314.16
305.38
297.15
286.38
277.14
268.19
261.14
251.14
241.12
232.95
233.12
237.63
246.13
260.51
293.15
343.99
405.21
463.52
520.27
576.18
630.33
674
708.37
735.24
758.39
774.69
786.41
794
800.41
803.62
805.42
804.61
802.42
796.97
790.41
781.77
772.4
760.94
750.39
739.56
729.38
716.39
702.36
685.05
666.34
644.39
623.32
602.24
583.3
563.67
546.28
529.29
514.27
498.22
484.25
471.3
461.24
450.65
441.23
431.37
423.22
414.07
405.21
394.46
384.2
372.89
363.19
353.21
345.18
335.98
327.17
316.14
306.16
294.98
285.15
274.73
267.14
258.46
249.13
237.93
233.12
236.47
250.13
270.64
303.16
348.04
405.21
465.7
526.27
581.73
632.33
674.5
710.37
738.25
760.39
776.05
789.41
799.45
806.42
807.58
806.42
803.76
801.41
796.59
790.41
782.02
773.4
762.82
752.39
741.01
730.38
716.89
701.36
682.1
663.34
644.11
626.32
606.64
587.3
566.63
547.28
527.12
509.26
492.71
480.25
468.87
459.24
448
437.23
425.94
417.22
408.8
401.21
391.27
381.2
370.01
360.19
348.95
338.17
326.39
317.16
307.77
299.15
288.01
278.14
268.49
261.14
251.4
241.12
230.16
225.12
226.32
237.12
255.61
286.15
328.21
383.2
443.69
505.26
560.84
611.32
655.09
694.36
725.84
750.39
766.58
778.4
786.1
792.41
795.86
798.41
798.56
797.41
792.89
786.41
776.8
766.4
754.97
745.39
735.24
724.37
709.71
694.36
677.33
660.34
640.29
620.32
599.99
582.3
563.93
546.28
527.59
511.26
495.25
481.25
467.22
456.24
446.06
437.23
426.65
417.22
407.96
400.21
390.67
381.2
370.6
361.19
350.55
341.18
331.09
322.17
311.24
301.16
290.2
281.15
271.06
262.14
251.18
241.12
232.27
230.12
230.99
235.12
244.84
273.14
320.74
380.2
438.09
495.26
551.7
606.31
651.71
690.36
722.72
749.39
766.34
778.4
787.93
796.41
800.02
801.41
800.78
798.41
791.15
782.4
773.7
766.4
756.83
746.39
734.8
724.37
711.63
697.36
679.82
662.34
642.87
623.32
602.16
583.3
564.45
546.28
526.36
509.26
493.79
480.25
465.27
453.23
443.88
437.23
428.26
419.22
409.7
401.21
390.52
380.2
369.26
359.19
347.31
337.17
327.46
319.17
308.35
298.15
287.07
277.14
265.25
255.13
245.22
237.12
227.47
221.11
219.84
229.12
247.25
277.14
317.16
369.19
427.59
489.25
546.67
599.31
645.03
686.35
719.74
745.39
762.66
777.4
789.47
798.41
800.77
800.41
798.8
797.41
792.83
786.41
777.96
769.4
758.79
748.39
737.17
726.38
712.76
698.36
682.02
666.34
648.48
630.33
610.14
591.31
572.01
554.29
535.49
518.27
501.24
487.25
474.06
463.24
451.76
441.23
430.05
421.22
412.76
405.21
395.3
385.2
373.99
364.19
353.29
343.18
331.57
321.17
310.06
301.16
291.35
282.15
270.85
261.14
250.69
241.12
229.87
222.11
218.85
225.12
240.53
270.14
312.44
367.19
426.96
489.25
547.92
602.31
649
690.36
723.91
750.39
767.96
781.4
791.62
800.41
804.68
806.42
805.81
805.42
802.65
797.41
788.25
778.4
767.57
757.39
746.21
736.38
724.52
710.37
692.6
676.35
658.06
636.33
612.45
598.31
591.12
579.3
552.42
523.27
503.25
493.26
481.38
468.24
456.74
449.23
439.46
429.22
419.53
412.21
402.28
391.2
379.12
369.19
358.53
349.18
339.06
330.17
319.29
309.16
297.54
287.15
275.68
266.14
255.18
245.13
236.31
235.12
237.76
243.13
252.81
281.15
330.45
393.2
454.52
514.27
572.03
626.32
669.62
705.36
735.53
761.39
778.39
790.41
799.24
806.42
808.71
809.42
808.72
806.42
799.08
790.41
781.85
774.4
764.54
754.39
743.34
732.38
717.89
702.36
684.59
666.34
644.7
623.32
601.95
583.3
564.02
546.28
528.81
514.27
499.06
484.25
468.74
457.24
448.14
441.23
432.15
423.22
413.68
405.21
394.67
384.2
372.93
363.19
351.97
341.18
329.14
319.17
309.15
301.16
291.29
281.15
268.93
259.13
249.51
241.12
231.16
225.12
224.41
234.12
253.55
287.15
332.74
389.2
448.7
509.26
566.15
619.32
664.47
702.36
730.71
752.39
767.82
781.4
791.64
798.41
799.41
798.41
796.08
793.41
787.08
778.4
767.62
757.39
745.65
733.38
719.31
706.37
692.45
678.35
661.12
643.33
623.04
602.31
579.58
559.29
540.4
524.27
507.6
493.26
479.42
467.24
454.01
443.23
433.52
425.22
414.74
405.21
396.36
389.2
379.6
369.19
357.67
348.18
338.16
329.17
318.74
309.16
297.78
287.15
275.47
266.14
256.82
249.13
239.36
230.12
220.92
217.11
218.5
229.12
248.39
281.15
326.64
385.2
447.96
509.26
562.86
611.32
653.28
689.36
716.59
738.38
754.49
766.4
772.64
777.4
780.72
782.4
778.78
772.4
764.36
756.39
745.77
734.38
722.77
713.37
702.41
689.36
672.06
654.34
635.17
616.32
595.45
576.3
557.95
542.28
525.94
511.26
496.65
484.25
471.53
461.24
451.75
444.23
434.88
425.22
414.29
405.21
396.14
388.2
378.63
369.19
358.54
349.18
338.77
329.17
318.59
310.16
301.3
293.15
282.04
271.14
260.22
253.13
245.32
237.12
228.46
227.12
231.45
241.12
256.44
289.15
339.9
401.21
459.57
516.27
572.25
626.32
669.78
704.36
732.5
757.39
774.81
786.41
793.09
798.41
800.68
801.41
798.97
794.41
786.54
778.4
769.41
760.39
749.23
738.38
726.5
714.37
698.81
682.35
664
646.33
626.88
608.31
589.03
571.3
552.17
534.28
516.91
503.26
489.67
476.25
461.12
449.23
439.91
433.22
424.36
415.21
405.46
397.21
386.96
376.19
364.4
355.18
345.92
337.17
325.74
315.16
304.75
297.15
287.65
277.14
264.48
255.13
246.67
239.12
229.56
225.12
228.86
245.13
270.14
306.16
351.98
409.21
470.7
532.28
587.17
636.33
678.02
714.37
742.5
764.4
779.96
793.41
803.43
810.42
811.75
810.42
807.43
805.42
801.26
794.41
783.78
773.4
762.79
752.39
739.31
726.38
712.14
697.36
678.64
659.34
638.57
618.32
595.92
575.3
555.53
538.28
520.43
505.26
491.22
479.25
466.11
455.24
445.42
437.23
426.88
417.22
407.61
399.21
388.3
377.2
365.57
356.18
346.15
337.17
326.73
317.16
306.25
297.15
287.23
278.14
266.95
257.13
246.74
238.12
229.13
225.12
227.4
241.12
264.68
301.16
348.72
408.21
471.81
534.28
588.15
635.33
676.03
713.37
743.52
766.4
780.43
790.41
797.49
804.42
808.55
810.42
808.25
804.42
797.99
790.41
780.34
770.4
759.65
749.39
737.31
725.38
710.66
694.36
676.05
660.34
642.37
620.32
596.17
582.3
575.43
563.29
535.9
507.26
489.16
481.25
470.08
456.24
444.17
437.23
428.22
417.22
405.27
396.2
386.57
377.2
366.57
357.18
346.57
337.17
327
318.16
307.43
297.15
285.22
275.14
265.06
257.13
247.01
237.12
228.79
229.12
234.87
245.13
260.47
293.15
344.39
407.21
467.32
524.27
578.41
630.33
673.14
708.37
736.87
761.39
778.47
790.41
797.96
804.42
807.84
809.42
807.19
802.42
794.34
786.41
778.17
770.4
760.49
750.39
738.61
726.38
710.78
694.36
676.01
658.34
638.67
619.32
598.53
579.3
559.69
542.28
524.76
509.26
493.54
480.25
467.51
457.24
446.57
437.23
427.35
419.22
410.19
401.21
390.23
380.2
369.4
359.19
347.23
337.17
327.42
319.17
308.46
298.15
286.75
277.14
266.93
259.13
250.25
241.12
230.18
225.12
228.26
243.13
266.58
302.16
348.43
405.21
464.66
524.27
578.73
628.32
670.11
706.37
734.63
756.39
771.47
785.41
797.46
806.42
808.15
806.42
803.42
801.41
796.88
790.41
781.71
773.4
763.33
752.39
739.09
726.38
712.39
698.36
681.24
663.34
642.85
622.32
599.93
579.3
559.31
542.28
525
509.26
493.09
479.25
465.84
455.24
445.18
437.23
428.45
420.22
410.4
401.21
390.82
381.2
370.27
360.19
348.73
338.17
326.62
317.16
307.48
299.15
288.52
278.14
266.54
257.13
246.97
238.12
229.05
225.12
226.48
237.12
255.56
286.15
328.23
383.2
443.69
505.26
560.83
611.32
655.13
694.36
725.71
750.39
767.52
781.4
791.8
800.41
804.77
806.42
804.2
800.41
794.66
789.41
782.6
774.4
763.42
753.39
743.1
732.38
717.65
702.36
686.07
670.35
651.44
632.33
612.46
594.31
574.15
554.29
534.57
519.27
505.44
493.26
479.75
468.24
457.1
447.23
435.57
425.22
415.62
408.21
398.97
389.2
378.24
369.19
358.84
348.18
335.77
326.17
317.17
309.16
297.89
287.15
276.68
269.14
259.34
249.13
239.82
238.12
239.64
243.13
250.76
277.14
324.23
384.2
442.36
499.26
555.48
610.32
655.9
694.36
726.52
753.39
770.57
782.4
791.82
801.41
806.96
809.42
808.54
806.42
801.08
794.41
785.67
776.4
765.07
754.39
743.42
733.38
720.65
706.37
688.56
670.35
650.61
632.33
612.5
592.31
569.97
550.28
532.62
518.27
502.88
488.25
473.31
461.24
449.98
441.23
432.04
423.22
412.06
401.21
390.06
381.2
371.97
363.19
352.08
341.18
329.13
319.17
309.19
301.16
291.27
281.15
269
259.13
249.38
241.12
231.53
225.12
221.65
225.12
235.36
259.13
296.99
349.18
407.1
467.24
524.37
579.3
627.97
670.35
703.4
730.38
751.6
770.4
784.44
794.41
798.68
800.41
799.38
797.41
792.56
786.41
778.26
770.4
761.35
752.39
741.51
730.38
716.7
702.36
685.92
670.35
652.89
634.33
612.24
591.31
571.81
556.29
540.69
526.27
511.43
499.26
486.95
475.25
461.54
449.23
437.76
429.22
420.19
411.21
400
389.2
377.82
368.19
357.56
347.18
335.15
325.17
315.42
307.16
296.5
286.15
274.65
265.14
254.58
245.13
234.4
226.12
219.83
221.11
230.67
253.13
285.98
330.17
381.81
441.23
501.55
559.29
609.5
655.34
694.53
726.38
748.33
766.4
781.49
793.41
798.7
802.42
806.12
809.42
807.14
801.41
793.8
786.41
776.29
765.4
754.04
744.38
732.23
718.37
703.09
690.36
674.1
652.34
628.1
614.32
607.3
594.31
565.5
535.28
515.39
505.26
491.7
476.25
463.8
457.24
448.4
437.23
425.16
416.22
406.68
397.21
386.55
377.2
366.45
356.18
344.51
334.17
322.92
313.16
301.8
291.15
279.46
270.14
259.53
249.13
238.42
233.12
229.09
225.12
222.75
237.12
272.82
325.17
380.28
437.23
495.32
554.29
606.38
652.34
691.57
725.38
749.31
766.4
778.7
790.41
798.82
804.42
805.93
806.42
804.42
800.41
793.2
786.41
778.96
770.4
759.01
749.39
738.92
725.38
707.79
694.36
680.78
660.34
633.96
620.32
618.92
610.32
578.47
542.28
520.78
512.26
498.41
481.25
469.2
464.24
455.25
443.23
432.27
425.22
415.49
404.21
392.5
383.2
372.18
361.19
349.23
339.18
328.02
318.16
307.09
297.15
285.54
275.14
263.72
254.13
244.13
237.12
231.34
231.12
237.69
258.13
291.39
337.17
389.37
448.23
508.7
568.29
620.55
666.34
703.1
732.38
754.04
774.4
792.59
806.42
811.29
812.42
812.46
812.42
808.22
802.42
796.08
790.41
781.92
772.4
761.34
750.39
737.14
724.37
709.94
694.36
675.3
658.34
643.5
630.33
611.23
587.3
560.43
538.28
520.37
507.26
494.42
483.25
471.52
461.24
450.28
441.23
431.94
423.22
412.08
401.21
389.87
380.2
369.34
359.19
347.69
337.17
325.33
315.16
304.14
294.15
282.66
273.14
262.85
253.13
241.77
234.12
229.26
229.12
232.19
246.13
273.11
315.16
366.23
425.22
485.64
544.28
595.84
643.33
684.57
718.37
741.61
760.39
776.35
789.41
795.4
798.41
799.92
800.41
796.03
789.41
781.73
774.4
764.29
753.39
742.21
732.38
718.92
702.36
684.31
670.35
654.34
632.33
606.25
590.31
582.86
571.3
544.36
515.27
495.66
485.25
471.46
456.24
444.16
437.23
427.76
417.22
407.39
400.21
390.36
379.2
367.25
357.18
345.86
335.17
323.89
314.16
303.1
293.15
282.34
273.14
262.96
254.13
243.47
233.12
222.19
215.11
208.25
202.1
198.28
209.11
237.58
281.15
329.63
383.2
440.52
501.26
558.39
611.32
656.3
692.36
716.43
734.38
749.56
764.4
774.5
780.4
782.05
782.4
780.1
776.4
770
762.39
752.47
742.38
731.17
720.37
707.42
693.36
676.1
658.34
638.65
619.32
597.75
576.3
553.82
534.28
516.75
503.26
489.55
476.25
462.47
453.23
446.58
441.23
432.43
423.22
413.6
405.21
394.91
385.2
375.54
367.19
356.46
345.18
332.94
323.17
313.43
305.16
295.09
285.15
273.27
263.14
253
245.13
236.38
229.12
220.82
215.11
213.25
223.12
245.29
281.15
326.07
381.2
441.64
504.26
561.8
614.32
658.38
694.36
721.31
745.39
766.3
782.4
789.69
793.41
796.14
798.41
795.72
790.41
784.06
778.4
770.08
760.39
749.21
738.38
724.91
710.37
693.91
678.35
660.8
642.33
620.69
599.31
576.96
556.29
535.51
518.27
503.3
492.25
481.22
471.24
459.8
449.23
438.06
429.22
420.69
413.21
403.42
393.2
381.83
372.19
362.17
353.18
342.75
333.17
322.46
313.16
302.87
294.15
284.79
277.14
267.35
257.13
245.58
238.12
232.44
229.12
226.75
234.12
254.45
290.15
335.15
389.2
447.84
509.26
566.52
619.32
664.38
702.36
730.7
753.39
770.85
785.41
795.02
802.42
806.85
809.42
807.88
804.42
798.21
790.41
779.75
769.4
758.75
748.39
735.38
722.37
708.35
694.36
676.28
656.34
634.39
614.32
593.18
572.3
550.43
532.28
515.81
501.26
485.41
472.24
460.7
451.23
439.73
429.22
419.55
412.21
402.99
393.2
382.33
373.19
363.01
353.18
342.47
334.17
325.53
317.16
305.79
295.15
284.74
277.14
267.5
257.13
245.82
239.12
232.97
226.12
218.17
221.11
239.59
274.14
316.75
368.19
426.2
489.25
548.98
604.31
652.21
693.36
724.75
750.39
771.02
788.41
798.8
804.42
806.85
810.42
812.71
812.42
806.68
798.41
788.24
778.4
767.36
757.39
746.93
736.38
722.13
706.37
688.14
670.35
650.92
632.33
611.62
590.31
567.37
548.28
531.38
516.27
499.32
485.25
473.33
463.24
450.55
439.23
429.3
421.22
410.82
401.21
391.88
383.2
371.65
361.19
351.86
344.18
333.26
322.17
310.69
301.16
289.64
279.14
268.72
261.14
252.69
245.13
235.28
226.12
218.58
221.11
234.76
261.14
296.23
343.18
399.56
463.24
525.02
582.3
630.87
672.35
705.44
734.38
758.45
778.4
790.79
798.41
802.47
806.42
807.74
806.42
800.95
794.41
786.46
778.4
768.33
758.39
747.32
736.38
722.95
709.37
693.96
678.35
659.34
639.33
617.13
596.31
575.63
558.29
541.58
526.27
509.15
493.26
477.68
465.24
453.79
445.23
436.28
427.22
415.61
405.21
395.71
388.2
378.27
367.19
354.77
345.18
335.83
327.17
316.02
306.16
296.58
289.15
278.79
267.14
254.28
246.13
239.35
233.12
225.45
225.12
234.84
257.13
288.62
333.17
387.66
448.23
506.42
563.29
616.02
662.34
696.76
724.37
747.97
769.4
784.09
794.41
801.21
806.42
806.86
804.42
799.4
794.41
788.2
782.4
774.5
764.4
750.76
738.38
726.99
716.37
701.41
684.35
665
646.33
625.27
604.31
582.77
564.29
546.29
530.27
513.92
500.26
487.23
476.25
464.2
453.23
441.81
432.22
422.16
413.21
403
393.2
382.27
373.19
363.91
355.18
343.86
333.17
322.1
313.16
303.12
294.15
283.32
273.14
262.39
255.13
246.95
237.12
224.94
221.11
229.38
251.13
280.61
321.17
372.27
433.22
495.07
555.29
609.16
656.34
692.92
722.37
745.74
766.4
781.76
793.41
800.66
806.42
808.98
809.42
806.15
801.41
794.34
786.41
775.97
765.4
754.26
744.38
732.21
718.37
701.74
686.35
669.55
651.34
629.5
610.32
594.59
582.3
565.47
544.28
520.29
501.26
486.41
475.25
462.73
451.23
440.56
433.22
425.12
416.22
404.94
395.2
385.72
377.2
366.53
356.18
344.66
334.17
322.56
313.16
303.66
295.15
284.07
274.14
264.47
257.13
247.34
237.12
226.82
223.12
225.6
237.12
256.69
290.15
336.64
395.2
456.98
518.27
572.62
620.32
660.54
698.36
731.63
758.39
774.36
784.41
791.15
797.41
800.5
802.42
802.26
800.41
794.16
786.41
777.96
770.4
760.44
749.39
736.75
725.38
712.42
698.36
680.02
660.34
639.12
620.32
601.16
582.3
561.19
542.28
525.34
512.26
498.54
485.25
471.45
461.24
452.49
445.23
435.46
425.22
413.84
404.21
394.19
385.2
374.88
365.19
354.36
345.18
335.27
326.17
315.11
305.16
293.86
283.15
271.11
262.14
253.35
245.13
235.48
231.12
231.36
237.12
247.71
273.14
314.76
369.19
426.44
487.25
548.57
606.31
651.79
688.36
718.91
746.39
766.69
782.4
794.28
804.42
809.77
812.42
812.11
810.42
805.16
798.41
789.64
780.4
769.08
758.39
747.47
737.38
724.46
710.37
694.06
678.35
659.79
639.33
615.69
594.31
574.81
558.29
540.04
522.27
505.03
492.25
480.43
469.24
455.89
444.23
433.6
425.22
415.28
405.21
393.98
384.2
373.48
363.19
351.45
341.18
330.4
321.17
310.95
302.16
291.63
281.15
268.85
259.13
249.68
241.12
229.93
221.11
215.71
218.11
226.92
247.13
278.98
325.17
380.84
444.23
507.55
567.29
618.07
662.34
698.92
729.38
751.57
769.4
783.08
794.41
800.74
804.42
805.08
804.42
800.25
794.41
786.42
778.4
769.14
760.39
749.84
738.38
724.66
712.37
699.3
685.35
667.36
650.34
635.01
622.32
604.85
582.3
555.9
534.28
517.58
505.26
491.74
479.25
467.09
457.24
446.53
437.23
427.8
419.22
408.2
397.21
385.82
376.19
365.39
355.18
343.67
333.17
321.35
311.16
300.13
290.15
278.67
269.14
258.83
249.13
237.89
230.12
224.1
221.11
220.37
231.12
256.5
298.15
349.43
409.21
471
531.27
584.79
635.33
680.82
718.37
742.26
758.39
771.67
785.41
794.26
798.41
799
800.41
800.22
797.41
790.23
782.4
773.89
765.4
754.6
744.38
733.58
722.37
706.91
690.36
672.47
655.34
635.15
614.32
592.13
572.3
553.4
538.28
523.51
509.26
493.23
480.25
469.53
461.24
450.9
441.23
431.81
424.22
414.78
405.21
394.59
385.2
374.37
364.19
353.03
343.18
331.76
321.17
309.37
299.15
287.91
278.14
266.97
257.13
247.35
241.12
234.03
227.12
222.74
233.12
260.04
301.16
348.69
405.21
467.47
530.27
584.26
632.33
675.34
713.37
741.05
762.39
779.35
793.41
800.67
804.42
805.91
806.42
802.45
796.41
789.2
782.4
772.95
762.39
750.93
741.38
731.08
720.37
706.15
690.36
671.36
652.34
631.72
612.32
592.3
574.3
555.64
538.28
520.39
505.26
490.5
477.25
463.23
452.23
443.08
436.23
427.1
417.22
406.16
397.21
388.01
379.2
368.11
357.18
345.21
335.17
325.17
317.16
307.37
297.15
284.87
275.14
265.7
257.13
246.07
237.12
229.51
225.12
221.47
225.12
239.22
269.14
312.14
368.19
430.1
493.26
550.31
602.31
647.38
686.35
716.21
740.38
759.13
774.4
783.63
789.41
792.18
794.41
793.7
790.41
782.85
773.4
762.31
752.39
741.77
730.38
715.58
700.36
684.58
670.35
653.43
634.33
611.98
591.31
570.75
551.29
530.77
514.27
501.1
491.25
479.27
467.24
454.97
445.23
434.8
425.22
415.25
407.21
398.26
389.2
378.24
368.19
357.95
349.18
339.11
329.17
317.5
307.16
296.82
289.15
280.94
273.14
262.21
251.13
239.15
230.12
220.94
213.11
205.64
205.11
212.36
231.12
260.64
305.16
360.15
421.22
481.31
542.28
600.18
650.34
685.94
712.37
734.14
754.39
768.7
778.4
784.08
788.41
789.34
788.41
784.5
778.4
768.37
757.39
746.19
736.38
724.36
710.37
693.67
678.35
662.54
646.33
626.45
606.31
584.91
564.29
542.63
524.27
507.69
493.26
477.69
465.24
455.16
447.23
436.26
425.22
415.33
409.21
401.97
393.2
382.16
373.19
364.84
357.18
347.25
338.17
329.06
321.17
310.4
299.15
287.11
278.14
269.11
261.14
251.43
243.13
233.65
225.12
216.23
213.11
217.23
233.12
258.83
297.15
345.87
405.21
467.95
530.27
585.55
634.33
674.98
710.37
738.71
761.39
776.11
785.41
790.07
794.41
797.03
797.41
792.89
786.41
778.43
770.4
760.09
749.39
737.44
725.38
710.3
694.36
676.85
660.34
641.98
623.32
602.3
582.3
562.58
546.28
530.04
514.27
496.61
481.25
467.04
455.24
442.93
433.22
424.57
417.22
407.18
397.21
387.75
381.2
373.63
365.19
354.43
345.18
336.32
329.17
319.59
309.16
296.85
287.15
277.64
269.14
258.34
249.13
240.05
233.12
225.62
222.11
223.01
233.12
252.68
287.15
334.33
392.2
452.72
514.27
571.6
623.32
665.34
701.36
731.85
758.39
776.78
788.41
794.05
798.41
800.92
802.42
800.4
796.41
789.74
782.4
772.88
762.39
749.46
736.38
722.3
709.37
694.52
678.35
658.69
639.33
618.96
599.31
577.83
558.29
539.83
524.27
507.73
492.25
477
465.24
454.09
444.23
433.02
423.22
413.34
405.21
396.56
389.2
380.49
371.19
359.51
349.18
339.3
331.17
321.51
313.16
304.51
297.15
287.14
277.14
266.28
258.13
249.31
241.12
231.46
225.12
222.05
227.12
241.01
269.14
308.82
359.19
415.56
479.25
543.6
602.31
647.95
685.35
717.46
746.39
767.36
782.4
792.45
800.41
803.97
805.42
804.48
802.42
796.78
789.41
779.43
768.4
756.16
746.39
735.73
722.37
705.85
693.36
680.79
662.34
637.19
620.32
612.86
602.31
574.7
542.28
519.03
507.26
493.56
477.25
462.23
453.23
444.57
436.23
426.58
417.22
405.99
397.21
390.23
384.2
374.13
363.19
352.6
345.18
336.99
329.17
319.39
310.16
299
289.15
279.01
271.14
261.97
253.13
242.08
233.12
226.97
229.12
237.75
255.13
280.77
321.17
375.29
440.23
504.33
563.29
614.52
662.34
703.77
737.38
760.12
777.4
790.93
802.42
808.18
810.42
810.21
810.42
807.86
802.42
793.72
785.41
775.73
764.4
750.34
738.38
726.96
714.37
696.7
679.35
662.66
646.33
625.08
603.31
582.14
563.29
542.2
522.27
503.84
489.25
474.85
463.24
453.11
445.23
435.21
425.22
415.05
407.21
398.34
389.2
378.37
369.19
360.4
353.18
343.62
333.17
320.91
311.16
301.62
293.15
282.4
273.14
264.14
257.13
247.61
238.12
228.79
225.12
225.79
234.12
250.62
282.15
327.71
385.2
444.66
503.26
558.22
612.32
661.13
702.36
731.69
753.39
769.97
785.41
796.32
802.42
802.91
802.42
800.57
797.41
790.38
782.4
773.76
765.4
754.05
741.38
727.2
714.37
700.4
686.35
669.35
651.34
630.45
610.32
590.07
572.3
553.52
535.28
516.41
501.26
487.55
475.25
460.87
448.23
437.14
429.22
420.73
413.21
404.94
397.21
387.22
377.2
366.09
356.18
345.62
337.17
328.75
321.17
310.42
299.15
287.02
278.14
269.3
261.14
250.49
241.12
231.71
225.12
219.83
221.11
229.67
250.13
281.57
327.17
382.78
445.23
505.59
562.29
613.07
660.34
699.69
730.38
751.57
769.4
783.56
793.41
796.54
798.41
800.09
800.41
794.69
786.41
777.86
770.4
760.24
749.39
738.26
728.38
715.9
702.36
686.45
670.35
651.43
632.33
611.13
590.31
568.8
551.29
535.89
522.27
505.6
489.25
474.35
464.24
454.09
443.23
430.46
421.22
414.45
409.21
400.62
391.2
381.35
373.19
363
352.18
340.02
330.17
320.65
313.16
304.15
295.15
283.94
274.14
263.24
253.13
242.19
235.12
229.26
225.12
221.8
229.12
251.03
289.15
335.37
388.2
444.54
505.26
564.34
619.32
664.41
700.36
727.14
750.39
769.46
784.41
792.39
797.41
800.27
802.42
800.69
796.41
789.5
782.4
773.03
762.39
750.65
741.38
730.75
717.37
701.68
690.36
677.01
655.34
628.37
615.32
614.7
606.31
573.89
536.28
513.23
504.26
490.85
473.24
459.16
452.23
442.85
431.22
420.16
413.21
405.34
397.21
387.98
379.2
367.89
357.18
346.97
339.18
330.03
321.17
310.59
301.16
290.49
281.15
270.76
262.14
252.84
245.13
235.68
227.12
219.31
219.11
227.74
249.13
281.08
326.17
381.06
444.23
507.17
566.29
616.3
659.34
694.94
726.38
751.26
770.4
782.1
790.41
796.03
801.41
803.5
802.42
797.46
792.41
786.14
778.4
767.79
758.39
748.63
737.38
722.82
710.37
696.69
678.35
655.03
639.33
630.67
618.32
591.39
562.29
541.96
530.27
514.75
497.26
482.39
473.24
462.84
452.23
441.73
433.22
422.8
413.21
404.12
396.2
385.59
375.19
365.22
357.18
346.56
335.17
322.97
314.16
305.47
297.15
285.74
275.14
264.75
257.13
247.34
237.12
227.68
226.12
228.67
234.12
244.17
273.14
323.37
387.2
449.36
509.26
567.03
622.32
667.76
705.36
735.99
761.39
778.18
790.41
799.34
806.42
808.69
809.42
808.67
806.42
799.28
790.41
780.98
772.4
761.53
750.39
738.73
728.38
715.57
701.36
683.95
666.34
646.6
627.32
606.59
587.3
567.61
550.28
533.15
518.27
502.68
488.25
473.33
461.24
450.13
441.23
431.59
423.22
414.01
405.21
394.63
385.2
375.68
367.19
356.26
345.18
333.02
323.17
313.24
305.16
295.23
285.15
272.99
263.14
253.41
245.13
235.45
229.12
225.79
229.12
239.13
263.14
301.34
353.18
410.64
472.24
533.26
592.31
643.24
686.35
719.5
745.39
764.05
780.4
793.33
802.42
804.72
804.42
802.85
801.41
796.79
790.41
782
773.4
762.78
752.39
741.19
730.38
716.77
702.36
686
670.35
652.52
634.33
614.07
595.31
576.11
558.29
539.32
522.27
505.5
491.25
477.53
467.24
457.74
449.23
438.59
429.22
420.45
413.21
403.53
393.2
381.79
372.19
362.11
353.18
342.85
333.17
322.18
313.16
303.38
294.15
282.77
273.14
262.86
253.13
241.7
234.12
229.42
229.12
232.1
247.13
276.83
322.17
375.98
437.23
499.87
560.29
612.37
659.34
700.27
734.38
757.13
773.4
786.01
797.41
803.67
806.42
805.87
804.42
799.85
793.41
784.18
774.4
763.37
753.39
742.9
732.38
718.12
702.36
686.48
674.35
658.74
636.33
610.07
594.31
586.71
574.3
545.93
515.27
494.8
485.25
473.71
460.24
447.87
439.23
428.27
417.22
407.6
401.21
392.68
383.2
373.19
365.19
355.2
344.18
331.71
322.17
313.24
305.16
293.95
283.15
272.6
265.14
255.67
245.13
233.63
227.12
221.2
214.11
206.72
213.11
238.08
279.14
325.84
379.2
438.31
501.26
559.26
612.32
658.8
698.36
726.3
746.39
761.08
773.4
780.47
784.41
785.69
786.41
783.75
778.4
769.75
760.39
749.48
738.38
725.45
712.37
697.48
682.35
664.58
646.33
626.58
608.31
588.56
568.29
545.87
526.27
508.98
495.26
481
468.24
455.6
445.23
434.42
425.22
415.66
407.21
397.55
389.2
380.72
373.19
363.97
355.18
345.66
337.17
327.57
319.17
309.85
301.16
290.52
281.15
271.35
263.14
253.41
245.13
236.42
229.12
219.3
210.11
203.38
207.11
221.71
249.13
286.59
337.17
397.27
463.24
525.7
582.3
629.19
668.35
700.3
730.38
756.08
774.4
781.94
785.41
788.11
790.41
787.68
782.4
775.98
769.4
759.42
748.39
736.98
726.38
712.96
698.36
682.05
666.34
648.42
630.33
610.53
591.31
569.74
548.28
526.56
509.26
494.88
484.25
473.26
463.24
451.85
441.23
429.96
421.22
412.9
405.21
394.98
385.2
375.73
368.19
358.95
349.18
338.1
329.17
320.44
313.16
303.77
294.15
282.73
273.14
262.68
253.13
243.09
237.12
231.46
225.12
216.5
215.11
223.96
245.13
275.74
321.17
378.85
443.23
504.29
563.29
618.27
666.34
701.29
728.38
750.94
770.4
782.32
790.41
796.73
802.42
803.15
800.41
794.3
786.41
775.59
765.4
755.25
744.38
729.47
714.37
699.72
686.35
669.49
651.34
632.02
614.32
593.73
571.3
547.29
528.27
513.09
501.26
487.82
475.25
462.43
451.23
439.1
429.22
420.11
412.21
402.22
393.2
384.61
377.2
367.25
357.18
346.81
338.17
327.69
317.16
305.77
297.15
288.61
281.15
271.04
261.14
250.58
243.13
235.11
227.12
217.47
213.11
215.91
230.12
254
291.15
339.12
397.21
458.98
523.27
584.02
638.33
680.78
714.37
740.38
762.39
778.09
789.41
796.44
802.42
805.04
804.42
799.34
793.41
786.27
778.4
767.78
757.39
746.85
736.38
722.08
706.37
689.57
674.35
656.39
636.33
613.58
594.31
578.43
566.29
550.74
531.27
508.2
489.25
474.63
464.24
453.06
443.23
433.54
425.22
414.93
405.21
395.39
387.2
377.78
369.19
360.14
352.18
342.41
333.17
322.75
313.16
301.54
291.15
280.76
273.14
264.79
257.13
246.9
237.12
227.42
223.12
222.77
229.12
242.61
271.14
314.63
371.19
431.56
493.26
550.99
604.31
650.52
693.36
730.07
758.39
774.63
785.41
794.68
804.42
809.5
810.42
807.16
802.42
794.72
786.41
777.71
770.4
760.69
748.39
733.55
721.37
709.05
694.36
674.7
656.34
637.43
616.32
592.82
578.3
570.79
559.29
533.27
505.26
486.42
477.25
465.79
453.23
443.06
437.23
428.29
417.22
405.44
396.2
386.14
377.2
368.51
361.19
351.29
341.18
330.44
322.17
313.21
305.16
294.93
285.15
274.32
266.14
257.36
249.13
239.67
234.12
230.12
229.12
232.86
253.13
291.33
343.18
398.15
457.24
518.25
578.3
629.52
674.35
712.64
744.38
765.77
782.4
796.55
808.42
812.97
813.42
811.93
810.42
805.38
798.41
789.54
780.4
769.13
758.39
747.34
736.38
721.84
706.37
689.77
674.35
655.82
635.33
612.31
592.31
574.12
558.29
540.21
522.27
504.02
489.25
475.83
465.24
454.23
444.23
433.53
425.22
417.03
409.21
398.87
389.2
379.58
371.19
360.33
349.18
337.57
329.17
320.85
313.16
302.81
293.15
282.97
275.14
266.04
257.13
246.09
237.12
229.44
227.12
229.82
243.13
267.06
305.16
354.86
416.22
480.61
542.28
594.94
642.33
684.08
720.37
747.2
768.4
784.93
798.41
805.55
809.42
811.02
812.42
810.6
806.42
798.71
789.41
778.23
768.4
757.98
746.39
731.12
716.37
701.37
686.35
667.73
650.34
635.03
622.32
603.96
579.3
550.14
526.27
508.83
497.26
484.52
471.24
456.85
445.23
434.25
425.22
415.62
407.21
397.73
389.2
380.07
372.19
362.74
353.18
342.16
333.17
323.85
315.16
304.01
294.15
284.55
277.14
267.36
257.13
245.84
238.12
230.85
225.12
220.67
226.12
243.22
274.14
315.35
369.19
430.2
493.26
551.04
606.31
656.55
698.36
726.08
746.39
764.13
781.4
792.37
798.41
801.33
804.42
804.4
801.41
794.56
786.41
775.98
765.4
754.12
744.38
733.76
722.37
707.03
690.36
672.04
655.34
637.14
618.32
596.68
576.3
556.41
539.28
521.53
505.26
489.17
476.25
463.62
452.23
439.71
429.22
419.63
412.21
403.07
393.2
381.98
373.19
364.87
357.18
347.21
338.17
329.04
321.17
310.4
299.15
287.03
278.14
269.21
261.14
251.19
243.13
234.59
227.12
218.95
217.11
224.79
247.13
280.55
325.17
377.17
437.23
499.33
560.29
613.39
659.34
697.23
730.38
756.54
776.4
787.78
794.41
797.98
802.42
805.01
804.42
798.24
790.41
782.03
774.4
764.4
753.39
740.94
729.38
716.14
702.36
685.65
668.35
649.13
631.33
612.59
594.31
574.27
556.29
538.59
522.27
504.57
489.25
475.13
463.24
450.24
439.23
429.26
421.22
411.15
401.21
391.12
383.2
374.26
365.19
354.18
344.18
333.76
325.17
315.15
305.16
293.13
283.15
273.34
265.14
254.7
245.13
235.46
229.12
223.38
221.11
222.06
233.12
256.93
298.15
351.12
411.21
470.7
530.27
586.88
639.33
681.35
714.37
739.7
762.39
780.05
792.41
798.21
802.42
805.19
806.42
802.58
796.41
789.06
782.4
773.25
762.39
749.4
737.38
724.85
713.37
700.12
686.35
669.35
651.34
630.06
608.31
585.51
566.29
549.04
534.28
517.56
501.26
485.24
473.24
462.16
452.23
440.85
431.22
421.76
413.21
402.49
392.2
381.8
373.19
363.2
353.18
341.47
331.17
320.83
313.16
304.92
297.15
286.73
277.14
266.83
258.13
247.38
237.12
226.65
221.11
219.57
226.12
241.8
273.14
317.65
373.19
433.51
499.26
564.05
622.32
667.64
705.36
737.42
764.4
781.89
794.41
804.14
812.42
814.93
814.42
812.38
810.42
805
797.41
787.25
776.4
764.28
754.39
744.14
732.38
717.56
705.36
692.16
674.35
651.24
635.33
626.46
614.32
586.72
554.29
529.11
515.27
502.08
488.25
474.82
465.24
454.65
444.23
433.62
425.22
415.33
405.21
394.12
385.2
375.99
367.19
355.93
345.18
333.97
325.17
315.38
306.16
294.93
285.15
275
267.14
258.01
249.13
237.86
229.12
224.63
231.12
247.85
277.14
316.66
369.19
430.04
495.26
555.69
610.32
657.01
698.36
731.67
758.39
776.9
790.41
799.03
806.42
811.33
814.42
813.15
809.42
802.55
794.41
783.87
773.4
762.34
752.39
741.27
730.38
716.98
702.36
684.62
667.35
648.83
630.33
608.66
587.3
565.79
547.28
529.38
514.27
499.09
485.25
470.73
459.24
449.24
441.23
431.14
421.22
411.09
403.21
394.33
385.2
374.14
364.19
353.38
343.18
331.28
321.17
311.25
303.16
292.72
282.15
270.24
261.14
252.29
245.13
236.28
229.12
223.45
225.12
235.2
259.13
295.5
345.18
402.44
465.24
526.51
584.3
634.29
678.35
714.1
742.38
761.05
774.4
784.1
793.41
799.44
802.42
800.61
796.41
789.55
782.4
773.1
762.39
750.5
741.38
731.22
717.37
699.77
686.35
672.7
652.34
626.27
612.32
610.31
602.31
572.2
536.28
512.43
501.26
486.62
469.24
455.3
447.23
436.04
423.22
412.01
405.21
397.06
388.2
378.26
369.19
358.54
349.18
339.86
331.17
320.02
310.16
300.74
293.15
283.11
273.14
262.48
254.13
243.89
233.12
221.34
214.11
208.77
206.11
206.82
221.11
250.37
293.15
343.17
403.21
469.24
534.28
587.66
632.33
671.8
708.37
735.67
754.39
766.61
777.4
784.59
788.41
787.96
786.41
782.76
777.4
767.87
756.39
744.32
734.38
722.11
706.37
688.7
676.35
664.36
646.33
621.25
603.31
593.91
582.3
555.99
526.27
505.63
496.26
485.53
472.24
458.84
449.23
438.54
428.22
417.9
409.21
398.73
389.2
380.34
373.19
364.16
355.18
345.56
337.17
327
317.16
306.55
298.15
289.15
281.15
271.5
263.14
253.67
245.13
234.49
225.12
216.61
213.11
212.38
218.11
232.81
265.14
314.01
375.19
437.13
497.26
554.09
610.32
660.11
700.36
728.43
750.39
767.95
782.4
790.3
794.41
795.99
797.41
795.44
790.41
782.03
773.4
763.29
752.39
739.22
726.38
712.47
698.36
681.14
663.34
644.21
626.32
606.67
587.3
567.25
550.28
533.76
518.27
500.87
485.25
470.71
459.24
447.5
437.23
426.47
417.22
407.4
399.21
390.21
381.2
370.38
361.19
352.7
345.18
335.1
325.17
315.69
309.16
301.49
293.15
282.29
273.14
264.24
257.13
247.64
238.12
227.97
221.11
213.81
207.11
201.61
207.11
226.49
261.14
304.57
357.18
416.8
483.25
547.89
606.31
654
694.36
726.87
753.39
772.05
786.41
796.82
805.42
809.56
810.42
807.25
802.42
794.58
785.41
774.49
764.4
753.52
742.38
728.58
714.37
698.34
682.35
664.1
646.33
627.12
608.31
587.5
568.29
549.79
534.28
518.25
503.26
487.27
473.24
459.65
449.23
439.76
432.22
422.92
413.21
402.17
393.2
384.39
376.19
366.15
357.18
348.52
341.18
331.37
321.17
310.26
302.16
293.52
285.15
274.39
265.14
256.1
249.13
239.39
229.12
219.79
218.11
219.7
223.12
230.65
257.13
304.63
365.19
424.89
485.25
546.61
606.31
655.32
696.36
731.24
760.39
778.59
790.41
799.55
808.42
812.59
813.42
810.86
806.42
798.49
790.41
781.82
772.4
759.36
746.39
733.88
722.37
707.2
690.36
671.7
654.34
635.18
616.32
596.63
579.3
560.87
542.28
522.12
505.26
489.9
476.25
461.2
449.23
439.86
433.22
424.32
415.21
405.55
397.21
387.03
377.2
367.24
359.19
349.98
341.18
331.39
323.17
313.82
305.16
294.65
285.15
275
267.14
258.02
249.13
239.2
233.12
227.71
223.12
219.12
226.12
246.75
281.15
323.55
377.2
439.34
505.26
564.8
618.32
664.63
704.36
734.59
760.39
781.98
798.41
805.76
809.42
812.11
814.42
811.72
806.42
799.87
793.41
783.58
772.4
760.7
750.39
737.38
722.37
705.24
690.36
674.93
658.34
636.99
615.32
593.82
575.3
556.06
538.28
521.01
507.26
493.45
480.25
465.6
453.23
441.68
432.22
421.93
413.21
404.52
397.21
388.49
380.2
370.57
361.19
350.4
341.18
331.78
323.17
312.21
302.16
292.35
285.15
275.71
265.14
253.3
246.13
239.95
233.12
223.46
219.11
219.8
225.12
234.66
261.14
307.32
367.19
427.55
489.25
551.43
610.32
656.2
692.36
722.74
750.39
770.8
786.41
797.83
806.42
809.14
809.42
808.16
806.42
801.14
794.41
785.92
776.4
763.54
750.39
736.9
724.37
709.43
694.36
678.04
662.34
643.7
624.32
603.33
584.3
564.74
546.28
526.64
509.26
492.99
480.25
467.9
457.24
445.81
436.23
427
420.22
412.82
405.21
394.77
384.2
372.86
363.19
353.29
345.18
336.68
329.17
319.61
310.16
298.96
289.15
278.97
271.14
262.12
253.13
241.92
233.12
225.49
221.11
217.69
221.11
233.72
261.14
301.42
355.18
415.95
480.25
541.04
598.31
648.64
692.36
726.25
753.39
773.79
790.41
801.75
810.42
815.45
818.42
817.39
814.42
808.83
802.42
793.68
784.41
773.44
762.39
749.31
736.38
722.33
709.37
694.36
678.35
658.88
639.33
618.5
599.31
579.67
562.29
544.66
528.27
510.12
493.26
477.19
465.24
454.39
445.23
435.19
427.22
419.6
413.21
404.84
396.2
385.68
375.19
363.29
353.18
343.4
335.17
325.46
317.16
308.52
301.16
291.16
281.15
270.22
262.14
253.46
245.13
234.68
227.12
222.85
227.12
240.76
269.14
309.06
359.19
415.12
479.25
545.41
606.31
652.79
689.36
720.57
750.39
773.65
790.41
800.57
808.42
813.13
816.42
816.44
814.42
808.98
802.42
793.75
784.41
773.13
762.39
750.53
738.38
723.65
709.37
693.89
678.35
659.47
640.33
619.83
600.31
578.84
558.29
537.41
519.27
502.25
489.25
476.93
465.24
451.57
440.23
430.06
421.22
410.29
401.21
394.07
389.2
381.22
371.19
359.28
349.18
338.61
329.17
318.78
310.16
300.93
293.15
283.77
275.14
265.28
257.13
247.16
237.12
226.39
221.11
220.34
226.12
238.17
265.14
308.68
367.19
428.84
489.25
545.88
602.31
653.82
697.36
728.92
753.39
771.88
786.41
794.91
801.41
806.15
809.42
807.28
802.42
796.16
790.41
782.05
772.4
761.09
750.39
739.07
729.38
717.31
702.36
684.6
670.35
654.09
631.33
604.7
591.31
589.6
582.3
554.06
520.27
497.83
488.25
476.23
461.24
448.31
441.23
432.73
423.22
413.31
405.21
395.02
385.2
375.6
367.19
356.1
345.18
334.72
327.17
318.28
309.16
298.08
289.15
280.36
273.14
263.5
254.13
244.14
237.12
229.5
223.12
218.81
226.12
247.7
285.15
331.31
385.2
443.91
508.26
570.65
626.32
669.81
705.36
734.84
761.39
781.12
794.41
800.87
805.42
808.18
810.42
809.36
806.42
800.77
794.41
785.78
776.4
765.09
754.39
743.25
733.38
720.98
706.37
687.87
670.35
652.67
635.33
614
592.31
571.12
554.29
537.94
522.27
504.72
489.25
475.26
465.24
456
448.23
438.72
429.22
418.38
409.21
400.08
392.2
382.61
373.19
362.6
353.18
342.04
331.17
319.27
310.16
301.14
293.15
282.62
273.14
263.87
257.13
247.62
237.12
227.91
229.12
238.68
255.13
277.63
317.16
373.93
440.23
502.14
560.29
615.18
666.34
706.53
738.38
763.59
784.41
797.39
806.42
812.94
818.42
818.91
816.42
811.57
806.42
798.48
789.41
778.7
768.4
756.85
746.39
735.47
725.38
712.55
698.36
680.62
662.34
642.2
623.32
603.13
583.3
561.69
542.28
524.13
509.26
494.02
480.25
466.87
457.24
448.6
441.23
431.93
423.22
413.78
405.21
394.66
384.2
372.76
363.19
353.35
345.18
335.84
327.17
316.34
306.16
294.69
285.15
275.16
267.14
257.77
249.13
239.21
233.12
232.15
242.13
261.64
293.15
334.77
389.2
450.87
515.27
573.97
627.32
673.64
714.37
745.58
769.4
786.53
801.41
811.96
818.42
819.23
818.42
816.19
813.42
807
798.41
787.62
777.4
766.43
756.39
745.3
734.38
720.72
706.37
689.94
674.35
656.74
638.33
616.43
594.31
570.57
548.28
526.43
509.26
494.77
483.25
470.62
459.24
447.52
437.23
426.11
417.22
408.82
401.21
390.99
381.2
371.73
364.19
354.23
343.18
330.66
321.17
311.9
303.16
291.81
282.15
272.81
265.14
254.94
245.13
234.39
226.12
219.62
221.11
231.23
253.13
284.84
330.17
386.03
449.23
510.56
568.29
619.19
664.34
700.68
730.38
752.4
769.4
780.9
790.41
796.32
798.41
794.45
788.41
781.38
774.4
764.68
754.39
743.53
733.38
721.42
709.37
694.71
678.35
659.95
644.33
626.74
604.31
578.42
562.29
554.71
544.28
519.89
493.26
475
465.24
451.84
436.23
423.45
417.22
410.2
401.21
389.99
380.2
369.9
361.19
352.69
345.18
335.27
325.17
314.5
306.16
297.32
289.15
278.79
269.14
258.74
250.13
239.57
229.12
218.66
213.11
208.04
202.1
195.58
201.1
223.77
263.14
309.75
363.19
421.84
485.25
545.41
600.31
646.86
686.35
716
738.38
753.97
766.4
774.63
780.4
782.4
782.4
779.2
774.4
766.86
758.39
748.27
738.38
727.31
716.37
703.33
689.36
672.19
654.34
634.77
616.32
596.33
576.3
554.27
534.28
515.86
501.26
486.36
472.24
458.29
449.23
442.64
437.23
428.42
419.22
409.55
401.21
391.04
381.2
371.23
363.19
354.06
345.18
335.34
327.17
317.98
309.16
298.49
289.15
279.29
271.14
261.57
253.13
244.12
237.12
227.82
218.11
209.98
213.11
227.67
253.13
286.18
333.17
392.68
459.24
521.33
578.3
628.49
672.35
706.98
737.38
763.17
782.4
790.69
794.41
797.93
802.42
802.23
798.41
792.11
785.41
775.56
764.4
752.55
742.38
730.9
718.37
702.64
686.35
668.1
650.34
630.75
611.32
589.53
568.29
547.09
530.27
515.58
503.26
489.35
476.25
462.22
449.23
435.63
425.22
416.47
409.21
399.22
389.2
379.73
373.19
365.62
357.18
346.43
337.17
328.24
321.17
311.96
302.16
290.5
281.15
271.06
261.14
249.69
242.13
235.57
229.12
220.62
219.11
227.14
246.13
272.73
313.16
366.7
429.22
490.34
550.28
606.96
658.34
697.7
728.38
752.65
773.4
787.69
798.41
805.62
810.42
810.34
808.42
804.36
798.41
788.23
777.4
766.57
756.39
743.5
730.38
716.87
704.36
688.63
671.35
652.02
634.33
615.36
596.31
575.23
556.29
538.09
522.27
505.76
491.25
476.84
464.24
451.28
441.23
432.12
424.22
414.21
405.21
396.58
389.2
379.3
369.19
358.94
351.18
342.29
333.17
322.14
313.16
304.38
297.15
287.23
277.14
266.41
259.13
250.87
241.12
228.36
221.11
222.25
235.12
256.24
289.15
333.14
389.2
450.68
515.27
576.51
632.33
677.56
714.37
742.79
766.4
783.53
796.41
804.39
810.42
813.03
813.42
810.1
805.42
798.45
790.41
779.84
769.4
758.52
748.39
735.89
722.37
706.31
690.36
672.65
655.34
635.31
614.32
591.37
571.3
552.17
534.28
514.45
497.26
482.5
471.24
458.86
447.23
435.29
425.22
414.39
405.21
396.34
389.2
380.86
373.19
364.52
356.18
345.21
334.17
322.4
313.16
303.57
295.15
285.27
277.14
268.51
261.14
251.14
241.12
230.74
225.12
222.36
225.12
234.26
258.13
296.87
349.18
407.04
469.24
530.42
588.3
637.93
682.35
720.1
750.39
769.14
781.4
790.67
800.41
806.92
810.42
809.58
806.42
799.36
790.41
779.79
770.4
760.21
749.39
736.61
725.38
712.9
698.36
680.26
664.34
647.45
627.32
604.33
590.31
582.88
570.29
541.94
511.26
490.72
481.25
469.81
456.24
444.22
437.23
428.26
417.22
405.14
396.2
386.9
377.2
366.01
357.18
348.81
341.18
331.18
322.17
312.95
305.16
294.94
285.15
274.69
266.14
255.47
245.13
234.91
229.12
223.28
218.11
216.01
229.12
258.84
302.16
351.25
409.21
473.45
538.28
592.95
639.33
679.13
714.37
740.96
762.39
779.53
793.41
800.55
804.42
806.02
806.42
802.37
796.41
789.28
782.4
772.87
762.39
750.9
740.38
727.52
713.37
697.13
682.35
665.8
647.33
624.87
604.31
585.88
570.29
552.3
534.28
516.16
501.26
486.44
473.24
459.65
448.23
437.29
429.22
421.12
413.21
402.83
393.2
383.61
375.19
364.35
353.18
341.58
333.17
324.9
317.16
306.76
297.15
287.1
279.14
269.74
261.14
251.73
245.13
238.27
233.12
229.06
233.12
246.53
273.14
311.12
363.19
423.85
488.25
547.63
602.31
650.25
692.36
725.53
753.39
775.86
794.41
806.23
814.42
819.24
822.43
821.5
818.42
812.61
805.42
795.15
784.41
773.03
762.39
749.59
736.38
722.08
709.37
694.77
678.35
657.23
635.33
612.64
592.31
571.06
550.28
528.11
508.26
489.26
473.24
457.71
445.23
433.91
425.22
415.86
407.21
397.52
389.2
380.35
372.19
361.91
351.18
339.1
329.17
319.49
311.16
301.35
293.15
284.66
277.14
266.47
255.13
242.91
234.12
225.46
217.11
207.13
202.1
204.11
218.11
243.93
285.15
336.1
392.2
448.06
507.26
565.12
614.32
647.2
671.35
693.07
714.37
728.85
738.38
745.29
752.39
756.06
757.39
756.32
754.39
748.95
741.38
731.67
722.37
712.12
702.36
690.95
679.35
665.63
652.34
637.44
622.32
603.76
584.3
564.04
547.28
530.84
514.27
495.49
480.25
468.31
459.24
447.92
437.23
427.63
421.22
414.34
408.21
400.86
393.2
382.89
373.19
363.6
355.18
344.27
333.17
321.15
311.16
300.18
290.15
278.76
269.14
259.1
251.13
241.94
233.12
221.9
213.11
209.08
217.11
236.08
267.14
307.57
361.19
424.22
492.25
555.29
612.32
661.86
706.37
742.3
770.4
789.19
802.42
810.85
818.42
823.65
826.43
823.88
818.42
810.55
802.42
791.99
780.4
766.69
753.39
739.45
726.38
710.72
693.36
673.35
655.34
637.07
618.32
596.1
575.3
554.95
535.28
512.89
493.26
477.17
465.24
451.91
439.23
426.98
417.22
406.59
397.21
387.77
379.2
368.25
357.18
345.45
335.17
324.04
314.16
303.37
293.15
281.2
271.14
261.32
253.13
242.72
233.12
223.62
217.11
209.26
201.1
191.98
189.1
194.58
213.11
243.07
287.15
341.82
405.21
469.26
531.27
586.34
635.33
675.95
710.37
736.54
756.39
769.56
780.4
788.49
794.41
795.27
793.41
789.38
785.41
778.91
770.4
759.42
749.39
738.92
728.38
715.2
702.36
688.39
674.35
656.96
639.33
620.36
602.31
582.47
564.29
546.8
532.28
517.57
505.26
493.8
485.25
476.52
469.24
460.9
453.23
444.43
437.23
429.32
421.22
410.65
401.21
392.05
384.2
373.8
363.19
351.32
341.18
329.71
319.17
307.6
298.15
287.39
277.14
265.87
258.13
250.82
245.13
241.27
249.13
270.52
306.16
351.07
408.21
472.81
538.28
593.97
642.33
685.43
725.38
756.03
778.4
793.56
806.42
815.53
822.43
825.4
826.43
824.11
820.42
814
806.42
796.45
786.41
775.15
764.4
752.13
740.38
727.24
714.37
698.24
680.35
659.54
640.33
620.96
602.31
580.9
560.29
540.19
523.27
505.79
489.25
472.55
459.24
446.6
435.23
422.93
413.21
404.3
396.2
385.46
375.19
365.28
357.18
346.55
335.17
322.97
314.16
305.47
297.15
285.72
275.14
264.76
257.13
247.42
237.12
226.26
221.11
219.63
223.12
232.2
257.13
299.76
357.18
417.31
477.25
535.51
594.31
646.71
689.36
720.11
745.39
765.98
782.4
791.6
797.41
800.66
802.42
799.5
794.41
787.9
781.4
771.73
760.39
748.29
738.38
727.27
714.37
697.94
682.35
666.33
650.34
630.83
611.32
590.9
571.3
549.64
530.27
513.52
501.26
488.33
475.25
460.9
449.23
438.31
429.22
419.45
411.21
402.16
393.2
382.47
373.19
363.95
355.18
343.79
333.17
323.06
315.16
304.96
294.15
282.09
273.14
264.56
257.13
247.25
238.12
228.43
221.11
213.85
211.11
215.01
233.12
265.63
313.16
368.59
429.22
489.74
550.28
605.77
654.34
691.78
721.37
744.43
764.4
778.31
786.41
788.19
788.41
787.36
785.41
779.23
770.4
759.46
749.39
738.8
728.38
715.77
702.36
686.42
670.35
652.65
635.33
615.27
594.31
571.75
552.29
534.17
518.27
502
489.25
477.9
467.24
453.24
440.23
429.03
421.22
412.51
404.21
394.65
385.2
374.2
365.19
356.68
348.18
336.61
326.17
316.85
309.16
298.78
289.15
280.08
273.14
263.39
253.13
241.81
233.12
224.19
217.11
209.49
205.11
205.25
217.11
240.09
275.14
319.69
377.2
442.27
508.26
566.22
618.32
663.91
702.36
729.5
750.39
767.58
782.4
790.5
794.41
795.75
796.41
792.64
785.41
775.58
766.4
755.91
744.38
730.54
717.37
703.75
690.36
673.8
656.34
637.27
619.32
599.2
578.3
555.38
535.28
517.83
505.26
493.03
481.25
467.8
456.24
444.17
432.22
418.89
409.21
402.34
397.21
388.68
379.2
369.33
361.19
351.23
341.18
330.5
322.17
313.24
305.16
295.54
287.15
277.61
269.14
258.75
249.13
238.76
231.12
223.45
218.11
214.87
221.11
238.8
271.14
313.28
365.19
423.73
489.25
553.61
611.32
656.71
694.36
726.18
754.39
774.68
788.41
796.79
804.42
809.13
810.42
806.41
800.41
792.58
784.41
773.74
762.39
750.57
740.38
727.15
710.37
691.87
678.35
662.92
639.33
610.86
596.31
594.4
586.3
556.5
522.27
501.13
492.25
478.57
461.24
447.45
440.23
430.48
419.22
408.77
401.21
391.21
381.2
372.14
365.19
355.5
345.18
334.82
327.17
318.26
309.16
298.16
289.15
280.27
273.14
263.66
254.13
243.87
237.12
230.11
223.12
215.23
215.11
225.51
249.13
281.69
326.17
382.08
449.23
516.87
578.3
628.5
672.35
710.08
742.38
765.52
782.4
793.51
801.41
804.64
806.42
806.79
806.42
801.58
793.41
782.57
772.4
761.45
750.39
737.32
724.37
709.61
694.36
676.31
658.34
638.74
619.32
597.37
576.3
555.6
538.28
521.12
505.26
488.24
473.24
459.3
449.23
440.11
432.22
421.95
411.21
399.18
389.2
380.05
373.19
365.35
357.18
346.78
337.17
326.67
317.16
306.58
298.15
289.31
281.15
270.46
261.14
252.12
245.13
235.23
225.12
216.66
217.11
224.14
238.12
259.28
297.15
351.36
416.22
479.28
539.28
594.76
646.33
688.91
724.37
752.28
774.4
788.45
798.41
805.23
810.42
810.81
808.42
803.59
798.41
790.58
781.4
770.49
760.39
749.43
738.38
724.68
710.37
694.09
678.35
660.6
642.33
620.87
599.31
577.4
559.29
542.15
526.27
508.73
493.26
478.13
464.24
449.11
437.23
427.92
421.22
412.28
403.21
393.58
385.2
374.97
365.19
355.22
347.18
337.88
329.17
319.36
311.16
301.76
293.15
282.62
273.14
262.94
255.13
246.64
239.12
230.29
225.12
224.58
234.12
253.05
285.15
328.82
385.2
447.38
511.26
569.75
623.32
669.76
710.37
741.57
765.4
782.49
797.41
808.12
814.42
814.94
814.42
812.78
809.42
800.9
790.41
779.35
769.4
757.46
745.39
733.06
722.37
709.03
693.36
673.98
655.34
636.23
618.32
598.48
579.3
558.81
539.28
518.84
501.26
484.92
471.24
457.63
447.23
437.76
429.22
418.48
409.21
400.69
393.2
383.01
373.19
363.83
356.18
345.68
334.17
321.89
313.16
304.79
297.15
287.04
278.14
268.88
261.14
250.97
241.12
230.98
225.12
221.94
225.12
235.26
259.13
296.58
348.18
406.7
469.24
529.56
587.3
638.6
684.35
721.25
750.39
770.33
785.41
796.52
806.42
812.22
814.42
811.96
808.42
803.37
797.41
788.26
778.4
767.65
757.39
745.35
733.38
718.69
702.36
684.54
670.35
654.2
632.33
606.27
590.31
582.7
570.29
541.73
511.26
491.33
481.25
467.59
452.23
440.09
433.22
423.76
413.21
403.39
396.2
386.73
377.2
368.27
361.19
350.91
339.18
326.85
318.16
309.61
301.16
289.63
279.14
268.92
261.14
251.2
241.12
230.85
225.12
219.55
214.11
210.41
221.11
249.65
294.15
344.78
401.21
460.78
522.27
578.89
631.33
676.82
714.37
739.88
758.39
772.92
786.41
795.15
800.41
801.98
802.42
799.58
794.41
786.37
778.4
768.92
758.39
746.52
737.38
727.18
713.37
695.69
682.35
668.81
648.34
622.03
608.31
606.73
598.31
567.07
531.27
509.75
501.26
487.39
469.24
455.29
449.23
441.27
431.22
421.01
413.21
403.15
393.2
383.61
375.19
363.97
353.18
343.12
335.17
324.79
314.16
302.5
293.15
283.31
275.14
265.65
257.13
247.75
241.12
233.61
226.12
218.78
221.11
234.88
261.14
296.28
345.18
405.21
471.24
532.89
590.31
641.57
686.35
720.98
750.39
775.06
794.41
804.45
810.42
814.9
818.42
816.08
810.42
803.76
798.41
790.48
780.4
768.6
758.39
747.08
734.38
718.17
702.36
686.07
670.35
651.22
631.33
610.3
591.31
570.85
550.28
528.29
509.26
491.81
477.25
462.2
449.23
437.49
429.22
420.46
411.21
399.49
389.2
379.78
372.19
362.27
351.18
338.7
329.17
320.52
313.16
303.36
294.15
284.56
277.14
267.52
257.13
245.5
238.12
231.62
225.12
216.53
214.11
219.55
235.12
259.77
301.16
357.73
423.22
485.93
546.28
602.96
654.34
693.89
725.38
751.15
773.4
788.17
798.41
805.23
810.42
810.78
808.42
803.67
798.41
790.43
781.4
770.75
760.39
748.84
738.38
727.3
716.37
702.04
686.35
668.2
650.34
629.46
607.31
583.64
564.29
547.93
534.28
518.43
503.26
488.47
476.25
462.66
449.23
435.18
424.22
414.81
408.21
400.91
393.2
382.66
372.19
361.02
351.18
339.85
329.17
317.84
309.16
300.54
293.15
283.11
273.14
262.52
255.13
246.72
237.12
224.68
217.11
216.47
226.12
243.7
274.14
317.19
373.19
434.72
499.26
560.5
616.32
661.48
698.36
727.46
752.39
770.86
784.41
792.39
798.41
801.34
802.42
800.22
797.41
792.74
786.41
776.25
765.4
754.31
744.38
731.93
718.37
703.44
690.36
675.38
658.34
637.3
618.32
602.38
590.31
574.03
552.29
526.2
505.26
490.06
479.25
466.69
455.24
444.99
437.23
427.33
417.22
406.97
399.21
390.38
381.2
370.18
360.19
348.89
338.17
326.43
317.16
307.72
299.15
288.05
278.14
268.42
261.14
251.45
241.12
230.23
225.12
224.13
229.12
240.42
267.14
310.06
367.19
428.94
493.26
554.94
612.32
660.93
704.36
741.28
770.4
787.06
796.41
802.56
809.42
813.28
814.42
812
808.42
802.07
794.41
784.46
774.4
763.4
753.39
741.84
729.38
713.85
698.36
681.26
664.34
645.25
627.32
608.61
590.31
568.97
548.28
528.89
514.27
499.84
485.25
469.18
457.24
448.23
441.23
431.24
421.22
411.58
404.21
395
385.2
374.3
365.19
354.76
344.18
331.96
322.17
312.87
305.16
294.49
283.15
270.78
262.14
253.52
245.13
235.3
230.12
227.22
227.12
231.44
253.13
293.91
348.18
404.61
465.24
528.7
590.31
639.87
680.35
714.85
745.39
766.85
782.4
794.2
804.42
808.92
809.42
806.43
802.42
796.24
790.41
782.81
772.4
758.32
746.39
735.85
724.37
708.71
694.36
678.71
658.34
632.78
615.32
606.26
594.31
566.56
534.28
510.19
497.26
483.52
468.24
454.22
445.23
435.16
424.22
412.95
405.21
397.41
389.2
378.63
369.19
359.76
351.18
340.16
329.17
317.76
309.16
300.53
293.15
283.4
273.14
260.88
251.13
241.68
233.12
221.94
213.11
207.81
210.11
217.64
234.12
260.22
301.16
355.27
421.22
488.48
550.28
601.29
646.33
685.47
718.37
741.19
758.39
771.68
782.4
787.06
788.41
787.41
785.41
779.19
770.4
759.59
749.39
738.54
728.38
716.24
702.36
685.6
670.35
654.84
638.33
617.52
598.31
582.4
570.29
553.73
532.28
507.85
489.25
476.23
467.24
455.68
443.23
430.44
421.22
412.73
405.21
395.95
387.2
377.58
369.19
360.21
352.18
342.6
333.17
322.35
313.16
303.5
295.15
285.37
277.14
268.44
261.14
251.28
241.12
229.84
222.11
215.79
213.11
214.21
227.12
253.23
294.15
344.89
405.21
468.34
530.27
586.03
639.33
687.44
726.38
750.46
766.4
779.72
793.41
802.2
806.42
806.32
804.42
798.53
790.41
780.2
770.4
759.66
749.39
737.68
725.38
710.15
694.36
676.94
660.34
641.92
623.32
602.42
582.3
561.32
542.28
523.9
509.26
495.02
481.25
465.5
452.23
440.66
431.22
419.81
409.21
399.44
392.2
383.21
373.19
361.89
353.18
344.88
337.17
327.19
318.16
308.9
301.16
291.13
281.15
270.24
262.14
253.36
245.13
235.65
229.12
222.02
215.11
209.61
217.11
240.56
279.14
325.43
381.2
443.7
509.26
568.7
622.32
668.71
708.37
738.08
762.39
782.05
797.41
804.87
808.42
809.83
810.42
806.61
800.41
792.45
784.41
773.86
762.39
749.36
736.38
721.29
706.37
690.21
674.35
655.63
636.33
615.44
596.31
576.62
558.29
539.19
522.27
505.14
489.25
472.18
457.24
443.24
432.22
421.55
413.21
404.86
397.21
387.16
377.2
367.06
359.19
350.34
341.18
330.17
321.17
312.52
305.16
295.11
285.15
274.67
267.14
258.42
249.13
237.57
229.12
221.99
217.11
212.89
217.11
232.14
261.14
301.24
355.18
417.74
483.25
542.87
598.31
648.41
692.36
725.05
750.39
770.17
786.41
795.81
801.41
804.28
806.42
805.26
802.42
796.84
789.41
778.81
768.4
757.61
746.39
731.57
716.37
700.81
686.35
668.86
650.34
630.16
611.32
590.2
568.29
545.1
526.27
510.9
499.26
485.95
472.24
457.36
445.23
434.07
425.22
415.74
407.21
397.63
389.2
380.19
372.19
362.63
353.18
342.37
333.17
323.55
315.16
305.35
297.15
288.5
281.15
271.2
261.14
250.01
242.13
234.8
229.12
222.6
221.11
227.12
247.13
280.65
329.17
385.8
447.23
508.71
572.3
632.03
682.35
717.57
744.38
766.74
786.41
798.68
806.42
811.57
816.42
816.81
813.42
806.39
798.41
788.06
777.4
766.22
756.39
745.58
734.38
719.35
702.36
684.52
670.35
653.36
630.33
603.86
588.3
581.57
570.29
541.89
509.26
486.39
476.25
465.66
452.23
438.34
429.22
420.75
413.21
404.86
397.21
387.2
377.2
366.5
357.18
346.93
338.17
329.12
321.17
310.98
301.16
290.45
282.15
273.2
265.14
255.35
247.13
237.85
229.12
218.87
213.11
214.03
227.12
250.44
286.15
331.84
389.2
453.1
520.27
581.86
635.33
677.99
714.37
744.39
769.4
785.97
796.41
801.75
806.42
809.21
810.42
807.5
802.42
794.77
786.41
775.7
764.4
751.86
740.38
727.66
714.37
697.76
680.35
661.16
643.33
624.47
606.31
586.6
568.29
549.19
531.27
512.78
497.26
482.47
469.24
454.91
443.23
433.15
425.22
415.19
405.21
395.08
387.2
378.3
369.19
358.48
349.18
339.3
330.17
319.13
309.16
298.97
291.15
282.06
273.14
262.17
253.13
244.13
237.12
229
223.12
218.76
221.11
231.69
257.13
296.17
348.18
406.34
469.24
530.66
588.3
637.84
682.35
720.08
750.39
769.57
782.4
791.89
801.41
807.56
810.42
808.57
804.42
797.47
790.41
782.42
774.4
763.89
752.39
738.84
725.38
709.89
694.36
677.02
660.34
641.84
623.32
602.42
582.3
561.95
544.28
526.24
509.26
491.69
477.25
463.6
451.23
437.7
427.22
419.02
413.21
405.11
396.2
385.53
375.19
363.41
353.18
343.34
335.17
325.55
317.16
308.51
301.16
290.64
279.14
266.64
258.13
249.81
241.12
230.03
223.12
219.09
218.11
219.32
233.12
262.09
305.16
355.32
415.21
481.15
546.28
599.62
644.33
684.44
722.37
751
770.4
782.85
794.41
803.12
808.42
808.35
806.42
802.73
798.41
790.52
780.4
768.67
758.39
746.36
732.38
716.95
705.36
692.56
674.35
651.02
635.33
626.57
614.32
587.75
558.29
536.15
522.27
505.93
489.25
475.18
465.24
452.75
440.23
428.67
419.22
407.45
397.21
389.67
385.2
377.46
367.19
355.09
345.18
334.81
325.17
314.49
306.16
297.45
289.15
277.8
267.14
256.61
249.13
240.71
233.12
225.11
221.11
219.3
223.12
234.22
261.14
304.09
361.19
422.26
484.25
543.77
602.31
654.24
697.36
728.79
753.39
771.88
786.41
795.14
801.41
804.9
806.42
803.37
798.41
791.98
785.41
775.7
764.4
752.22
742.38
731.95
720.37
705.28
690.36
674.37
658.34
638.92
619.32
598.7
579.3
558.11
538.28
519.39
504.26
489.22
475.25
460.76
449.23
438.22
428.22
416.8
407.21
397.87
389.2
378.5
369.19
360.6
353.18
343.08
333.17
323.21
315.16
304.82
294.15
282.27
273.14
264.28
257.13
247.67
238.12
227.66
221.11
216.25
215.11
218.03
234.12
265.71
313.16
367.73
427.22
488.44
552.29
611.57
662.34
700.29
730.38
754.73
776.4
791.93
802.42
807.95
812.42
813.98
812.42
806.03
798.41
789.84
781.4
770.86
760.39
749.21
738.38
724.76
710.37
694.11
678.35
660.31
642.33
622.81
604.31
584.05
564.29
543.78
526.27
509.73
495.26
479.54
465.24
451.51
441.23
431.84
424.22
414.9
405.21
394.13
385.2
376.52
368.19
357.27
347.18
337.36
329.17
318.33
307.16
295.13
286.15
277.11
269.14
258.76
249.13
239.38
233.12
226.5
221.11
218.14
227.12
248.8
283.15
325.86
381.2
445.96
514.27
574.98
628.32
674.17
714.37
745.42
770.4
788.96
802.42
809.19
814.42
818.43
820.42
816.29
809.42
801.61
794.41
784.43
773.4
762
752.39
740.37
726.38
710.87
698.36
683.3
663.34
640.33
626.32
618.16
604.31
574.92
543.28
521.06
509.26
495.38
479.25
463.65
452.23
440.06
429.22
419.89
413.21
404.37
395.2
385.54
377.2
366.73
356.18
344.51
334.17
322.75
313.16
303.3
295.15
285.59
277.14
266.89
257.13
246.41
239.12
232.23
226.12
219.37
221.11
235.79
267.14
309.18
361.19
419.83
485.25
549.52
608.31
656.5
697.36
730.67
758.39
778
792.41
801.71
808.42
810.51
810.42
808.11
805.42
799.86
792.41
781.83
770.4
758.54
749.39
738.83
725.38
709.59
698.36
685.45
664.34
637.65
624.32
623.11
614.32
581.63
543.28
518.71
508.26
494.39
477.25
463.26
455.24
444.07
431.22
419.95
413.21
405.32
397.21
388.67
381.2
371.18
361.19
351.47
344.18
335.04
325.17
313.62
305.16
297.63
291.15
280.98
270.14
258.39
249.13
238.35
227.12
214.22
206.11
205.09
217.11
241.69
282.15
336.25
403.21
472.97
538.28
592.25
638.33
676.67
708.37
730.35
746.39
757.35
765.4
768.74
770.4
769.58
766.4
759.2
752.39
746.7
741.38
732.46
722.37
711.74
701.36
687.27
671.35
652.99
634.33
612.77
591.31
569.01
548.28
527.18
509.26
493
479.25
464.66
452.23
441.2
433.22
424.81
417.22
408.23
399.21
387.97
377.2
366.04
356.18
345.01
334.17
322.76
313.16
302.82
293.15
282.56
274.14
265.34
257.13
246.53
237.12
227.99
221.11
211.52
201.1
191.6
190.1
192.77
198.1
208.07
237.12
287.78
352.18
415.49
477.25
537.36
594.31
640.44
678.35
710.17
737.38
755.23
766.4
773.13
778.4
779.59
778.4
774.82
770.4
762.97
754.39
744.88
736.38
726.18
714.37
699.28
684.35
668.89
654.34
636.98
618.32
596.83
576.3
556.02
539.28
523.29
509.26
495.13
484.25
473.66
463.24
450.65
441.23
434.93
431.22
424.13
415.21
405.11
397.21
388.87
381.2
372.55
365.19
356.82
349.18
339.86
331.17
321.31
313.16
303.35
293.15
280.78
271.14
261.77
253.13
242.78
237.12
236.05
241.12
250.73
273.14
310.11
361.19
418.32
481.25
545.42
607.31
659.06
702.36
737.28
766.4
788.03
806.42
820.76
830.43
832.07
830.43
827.79
825.43
819.21
810.42
799.67
789.41
777.52
765.4
751.79
738.38
722.64
706.37
687.52
668.35
646.94
626.32
604.42
583.3
560.81
540.28
519.84
501.26
481.93
465.24
450.34
439.23
427.88
417.22
405.86
397.21
388.96
381.2
370.92
361.19
351.7
344.18
334.88
325.17
313.99
305.16
296.46
289.15
279.48
270.14
260.14
253.13
245.32
237.12
226.21
218.11
212.7
213.11
218.8
237.12
269.46
317.16
373.57
437.23
502.5
567.29
625.24
676.35
717.67
750.39
772.82
789.41
801.07
810.42
815.37
818.42
819.69
821.42
820.52
816.42
807.86
798.41
787.24
774.4
758.07
742.38
726.37
710.37
692.76
678.35
662.85
643.33
620.3
606.31
599.05
586.3
557.6
527.27
507.36
497.26
483.64
468.24
455.4
447.23
436.43
425.22
415.29
408.21
398.73
389.2
380.25
373.19
363.44
353.18
342.46
334.17
325.03
317.16
308.38
301.16
292.63
285.15
275.2
265.14
254.66
249.13
244.2
238.12
230.17
233.12
253.08
291.15
338.17
393.2
453.47
518.27
579.73
636.33
684.57
725.38
755.59
778.4
794.71
808.42
817.85
824.43
826.52
826.43
823.12
818.42
810.9
802.42
792.24
782.4
771.35
760.39
747.19
733.38
717.47
702.36
685.61
668.35
648.09
628.32
607.17
586.3
563.66
543.28
522.98
503.26
482.05
465.24
452.81
444.23
433.61
423.22
413.15
405.21
395.08
384.2
372.47
363.19
353.8
345.18
335.39
327.17
318.01
309.16
298.27
289.15
280.2
273.14
264.51
257.13
248.79
241.12
230.86
222.11
215.8
217.11
224.42
241.12
267.86
310.16
364.75
428.22
492.06
554.29
609.07
655.34
691.92
725.38
755.13
778.4
789.67
794.41
797.57
802.42
804.17
802.42
796.63
789.41
779.33
768.4
756.62
746.39
735.45
724.37
710.89
697.36
682
666.34
647.35
627.32
605.08
584.3
563.71
546.28
529.65
515.27
499.82
485.25
469.97
457.24
445.42
436.23
426.44
417.22
406.55
397.21
387.9
380.2
370.9
361.19
350.06
341.18
332.63
325.17
315.35
306.16
296.58
289.15
279.5
269.14
257.53
250.13
243.57
237.12
228.53
225.12
226.9
235.12
249.69
281.15
330.48
392.2
453.87
515.27
574.76
630.33
674.5
710.37
740.17
766.4
784.97
798.41
807.55
814.42
815.99
814.42
810.36
806.42
800.51
793.41
783.49
772.4
759.15
746.39
732.94
720.37
705.68
690.36
672.42
654.34
633.28
611.32
587.92
568.29
550.53
534.28
515.23
497.26
480.75
468.24
455.95
445.23
433.99
424.22
413.75
405.21
396.79
389.2
379.19
369.19
359
351.18
342.33
333.17
322.09
313.16
304.54
297.15
286.99
277.14
266.82
259.13
250.08
241.12
231
225.12
222.56
226.12
234.88
255.13
287.23
333.17
388.59
453.23
519.6
582.3
634.25
678.35
714.81
745.39
767.54
785.41
799.41
810.42
814.98
816.42
816.27
816.42
813.07
806.42
796.05
785.41
774.34
764.4
752.26
738.38
722.23
708.37
694.19
678.35
657.57
638.33
622.53
610.32
592.28
567.29
537.81
514.27
497.24
485.25
471.82
459.24
447.06
437.23
426.47
417.22
407.92
399.21
387.85
377.2
367.49
360.19
350.97
341.18
330.1
321.17
311.65
303.16
293.26
285.15
276.52
269.14
259.21
249.13
237.91
230.12
223.71
221.11
222.17
234.12
257.73
295.15
342.69
401.21
463.97
526.27
582.24
635.33
683.14
722.37
747.38
764.4
778.71
793.41
802.69
806.42
806.05
806.42
805.3
801.41
792.57
782.4
771.55
761.39
749.41
737.38
723.98
710.37
693.61
676.35
657.54
639.33
618.75
598.31
576.52
556.29
536.08
519.27
503.42
489.25
473.76
460.24
447.33
436.23
423.86
413.21
403.58
396.2
387.04
377.2
366.1
357.18
348.61
341.18
331.72
322.17
310.99
301.16
290.46
281.15
270.78
262.14
252.78
245.13
236.39
229.12
220.98
215.11
210.58
213.11
224.65
251.13
290.74
343.18
401.92
465.24
527.54
587.3
638.3
680.35
713.16
742.38
767.07
786.41
796.84
802.42
804.86
806.42
804.4
800.41
793.91
786.41
776.42
766.4
755.48
744.38
730.73
717.37
703.52
690.36
674.02
656.34
636.1
616.32
594.73
574.3
554.33
538.28
522.85
508.26
491.81
477.25
463.3
451.23
438.16
427.22
417.3
409.21
399.14
389.2
379.11
371.19
362.27
353.18
342.46
333.17
323.28
314.16
303.08
293.15
282.98
275.14
265.99
257.13
246.28
237.12
227.84
221.11
214.84
213.11
215.95
229.12
253.89
295.15
349.25
413.21
478.35
542.28
599.99
651.34
692.65
726.38
752.5
774.4
789.89
800.41
805.79
810.42
813.37
814.42
810.09
802.42
792.74
784.41
774.51
762.39
748.21
737.38
726.77
713.37
695.94
682.35
668.54
648.34
622.36
608.31
606.21
598.31
568.27
532.28
508.35
497.26
482.68
465.24
451.64
445.23
437.06
427.22
417.15
409.21
398.87
388.2
377.15
367.19
355.42
345.18
335.54
327.17
316.17
306.16
296.5
289.15
279.34
269.14
257.97
250.13
241.73
233.12
222.71
217.11
216.06
222.11
235.66
265.14
309.43
365.19
425.54
493.26
563.06
626.32
673.05
709.37
740.61
768.4
786.52
798.41
807.56
816.42
819.71
818.42
814.16
810.42
804.73
797.41
787.17
776.4
764.8
754.39
741.52
726.38
709.69
697.36
684.35
666.34
643.09
627.32
618.56
606.31
578.64
546.28
521.18
507.26
493.99
480.25
466.93
457.24
446.49
436.23
425.86
417.22
406.84
397.21
388.06
381.2
372.63
363.19
351.52
341.18
330.38
321.17
310.81
302.16
292.9
285.15
275.65
267.14
257.52
249.13
238.49
229.12
222.75
227.12
241.54
267.14
301.32
349.18
409
477.25
542.21
600.31
649.6
694.36
732.13
762.39
781.83
794.41
802.43
810.42
815.97
818.42
815.53
810.42
802.94
794.41
783.59
773.4
762.92
752.39
739.24
726.38
712.55
698.36
680.75
663.34
644.9
626.32
604.44
583.3
561.62
540.28
516.89
497.26
481.43
469.24
455.43
443.23
432.84
425.22
415.38
405.21
394.96
387.2
378.37
369.19
358.46
349.18
339.34
330.17
319.13
309.16
299.01
291.15
282.05
273.14
262.22
253.13
244.18
237.12
227.73
218.11
208.26
205.11
209.97
227.12
255.12
297.15
350.34
413.21
477.36
539.28
594.09
643.33
684.51
718.37
742.59
760.39
772.26
781.4
786.81
790.41
790.68
788.41
781.62
772.4
761.09
750.39
739.2
728.38
715.38
701.36
685.37
670.35
653.61
635.33
613.4
592.31
570.97
550.28
527.71
508.26
491.89
479.25
465.55
453.23
441.6
432.22
421.36
411.21
401.13
393.2
384.46
376.19
366.54
357.18
346.54
337.17
327.62
319.17
309.47
301.16
292.57
285.15
275.24
265.14
254.14
246.13
237.63
229.12
218.35
210.11
202.56
197.1
193.59
201.1
221.98
257.13
301.2
356.18
418.84
485.25
545.91
600.31
647.55
689.36
721.75
746.39
764
778.4
787.63
792.41
792.09
790.41
787.04
782.4
774.13
764.4
753.36
742.38
728.85
714.37
698.93
685.35
670.57
654.34
633.66
612.32
590.75
572.3
553.3
534.28
513.35
495.26
479.68
468.24
456.46
445.23
433.37
424.22
414.81
405.21
393.78
385.2
378.58
373.19
364.55
355.18
345.41
337.17
327.1
317.16
306.59
298.15
289.04
281.15
271.78
263.14
253.11
245.13
236.65
229.12
219.85
213.11
208.48
210.11
218.57
241.12
278.6
331.17
390.17
452.23
513.15
574.3
630.37
678.35
713.64
740.38
760.7
778.4
791.48
801.41
806.89
809.42
807.19
802.42
794.58
785.41
774.34
764.4
753.97
742.38
727.84
714.37
699.59
682.35
662.21
646.33
629.98
607.31
579.54
564.29
561.59
554.29
526.37
493.26
472.28
464.24
452.73
437.23
423.95
417.22
409.11
399.21
388.74
381.2
372.98
365.19
356.76
349.18
339.21
329.17
318.83
311.16
302.4
293.15
281.64
273.14
266.3
261.14
252.09
242.13
231.77
225.12
218.45
214.11
213.93
227.12
254.74
297.15
348.01
407.21
470.36
535.28
594.28
646.33
689.12
725.38
753.69
776.4
791.88
802.42
808.2
813.42
816.51
816.42
810.43
802.42
793.71
785.41
774.15
761.39
747.27
734.38
720.41
706.37
689.48
671.35
650.3
630.33
610.42
592.31
572.21
552.29
531.68
514.27
497.77
483.25
467.5
453.23
439.52
429.22
419.84
412.21
402.87
393.2
382.19
373.19
364.37
356.18
346.08
337.17
328.51
321.17
311.23
301.16
290.34
282.15
273.29
265.14
254.91
246.13
237.86
233.12
227.29
221.11
215.28
219.11
233.45
259.13
294.21
345.18
408.79
477.25
538.92
595.31
646.11
690.36
723.03
749.39
771.57
789.41
798.07
802.42
806.08
810.42
809.92
805.42
798.02
790.41
780.37
769.4
757.11
745.39
731.99
718.37
702.51
686.35
668.3
651.34
633
614.32
592.75
572.3
552.38
535.28
517.55
501.26
484.95
471.24
457.15
444.23
431.1
421.22
412.48
405.21
396.04
387.2
377.67
369.19
359.06
349.18
338.65
330.17
321.21
313.16
303.55
295.15
285.69
277.14
266.61
257.13
247.05
239.12
230.35
223.12
215.75
213.11
216.32
231.12
256.05
293.15
340.67
401.21
468.03
534.28
590.95
640.33
683.51
722.37
751.67
772.4
786.09
798.41
808
814.42
815.19
813.42
808.83
802.42
792.58
782.4
771.82
761.39
748.17
734.38
719.75
706.37
691.38
676.35
658.51
639.33
617.39
598.31
582.45
570.29
553.92
532.28
506.32
485.25
469.86
459.24
447.07
435.23
423.23
413.21
402.34
393.2
384.61
377.2
367.22
357.18
347.63
341.18
333.68
325.17
314.13
305.16
296.55
289.15
279.19
270.14
260.81
253.13
243
233.12
223.01
217.11
213.87
217.11
227.23
250.13
285.54
335.17
393.27
457.24
520.08
580.3
633.18
679.35
716.31
746.39
768.39
785.41
797.09
806.42
811.83
814.42
812.43
808.42
801.92
794.41
784.42
774.4
763.68
753.39
741.34
729.38
714.7
698.36
680.56
666.34
650.15
628.32
602.35
586.3
578.78
567.29
540.4
511.26
491.6
481.25
467.56
452.23
439.45
431.22
420.43
409.21
399.29
392.2
382.76
373.19
364.21
357.18
347.55
337.17
326.3
318.16
309.43
301.16
290.63
281.15
271.62
265.14
257.46
249.13
238.55
231.12
224.27
218.11
212.11
217.11
237.44
274.14
319.42
373.19
432.78
497.26
559.01
616.32
665.01
705.36
735
758.39
776.73
792.41
802.43
808.42
810.1
810.42
807.61
802.42
794.22
786.41
777.36
766.4
752.46
740.38
728.03
713.37
695.65
682.35
668.81
648.34
622.03
608.31
606.8
598.31
566.21
528.27
503.85
493.26
478.92
461.24
447.27
440.23
430.68
419.22
408.47
401.21
391.68
381.2
371.19
365.19
359.35
353.18
344.17
335.17
325.2
317.16
308.55
301.16
292.01
283.15
272.05
262.14
252.18
245.13
237.23
230.12
223.01
222.11
227.18
241.12
263.56
301.16
352.97
416.22
480.43
542.28
597.23
646.33
687.58
724.37
754.78
778.4
792.04
800.41
806.42
813.42
817.73
818.42
813.42
805.42
794.79
784.41
773.24
762.39
749.84
737.38
723.61
710.37
694.83
678.35
659.1
640.33
620.16
600.31
578.51
558.29
538.27
520.27
501.58
485.25
469.91
457.24
444.07
432.22
419.7
408.21
395.82
385.2
374.49
364.19
351.49
339.18
327.12
317.16
306.04
295.15
283.44
274.14
264.96
257.13
247.1
237.12
226.18
218.11
209.55
201.1
191.2
185.1
180.25
177.09
177.2
193.1
227.88
278.14
334.03
396.2
461.86
526.27
580.38
626.32
665.38
698.36
721.3
738.38
751.77
762.39
766.05
765.4
762.27
758.39
750.83
741.38
730.63
720.37
709.09
698.36
685.68
671.35
655.82
644.33
632.01
614.32
591.14
575.3
566.54
554.29
527.25
497.26
476.75
468.24
459.13
447.23
434.35
425.22
416.29
409.21
403.08
399.21
393.93
389.2
383.91
379.2
372.23
365.19
356.88
349.18
340.51
334.17
327.69
321.17
310.96
301.16
291.7
285.15
277.07
269.14
259.86
253.13
246.41
242.13
239.54
245.13
260.05
289.15
331.46
389.2
455.13
523.27
585.24
642.33
692.07
734.38
766.34
793.41
816.11
834.43
844.09
849.44
852.58
855.44
854.12
850.44
844.56
838.43
829.72
820.42
809.52
798.41
785.25
773.4
761.29
749.39
733.97
718.37
701.32
684.35
663.88
643.33
621.88
602.31
582.06
564.29
546.66
530.27
512.43
497.26
483.39
471.24
456.96
444.23
433.09
425.22
416.55
408.21
397.87
387.2
374.84
365.19
356.32
348.18
336.64
326.17
316.4
309.16
299.25
289.15
278.16
270.14
261.23
253.13
244.98
243.13
247.48
262.14
287.51
329.17
382.56
443.23
504.25
568.29
631.03
686.35
725.39
753.39
776.14
798.41
815.14
826.43
832.23
836.43
837.36
836.43
832.19
826.43
818.03
809.42
799.16
788.41
776.43
766.4
754.69
740.38
723.31
710.37
697.09
678.35
653.09
635.33
626.02
614.32
586.86
554.29
528.96
514.27
498.6
481.25
464.67
453.23
442.15
432.22
422.07
413.21
402.59
393.2
384.4
377.2
368.01
359.19
349.65
341.18
330.18
319.17
307.25
298.15
288.97
281.15
271.55
263.14
253.64
245.13
234.35
225.12
218.96
223.12
237.14
263.14
299.15
349.18
409.61
476.25
539.03
596.31
645.98
690.36
726.2
754.39
773.26
786.41
794.76
802.42
807.75
810.42
807.73
802.42
794.73
786.41
775.87
765.4
754.53
744.38
731.97
718.37
702.05
685.35
666.33
647.33
626.53
606.31
584.43
563.29
541
520.27
499.41
481.25
463.89
449.23
434.21
420.22
405.48
393.2
381.98
373.19
363.81
355.18
345.59
337.17
328.41
321.17
313.09
305.16
294.83
285.15
275.65
269.14
261.53
253.13
241.93
233.12
225.91
221.11
213.46
205.11
196.42
193.1
194.83
206.11
228.33
267.14
319.37
381.2
443.36
504.26
561.47
616.32
663.79
702.36
729.46
749.39
763.87
776.4
785.06
790.41
790.83
788.41
782.33
774.4
764.27
754.39
743.66
732.38
717.96
702.36
685.58
670.35
653.56
635.33
613.56
592.31
570.66
550.28
528.39
508.26
489.11
473.24
457.85
445.23
433.54
424.22
414.11
405.21
396.28
389.2
380.87
372.19
361.93
353.18
344.67
337.17
328.02
319.17
309.57
301.16
291.14
281.15
269.48
259.13
248.01
238.12
226.95
217.11
206.34
197.1
187.51
181.09
176.45
177.09
183.38
202.1
234.35
282.15
339.96
405.21
470.08
531.27
584.47
632.33
672.97
706.37
730.36
749.39
763.62
773.4
776.8
778.4
779.19
778.4
771.43
760.39
748.22
738.38
727.47
714.37
698.85
685.35
671.1
654.34
633.92
616.32
598.32
576.3
550.51
534.28
526.43
514.27
486.47
457.24
439.63
433.22
424.17
413.21
404.59
400.21
393.01
385.2
378.89
375.19
368.18
359.19
349.35
341.18
331.25
321.17
310.53
302.16
293.22
285.15
275.55
267.14
257.67
249.13
238.63
229.12
219.51
213.11
206.73
202.1
198.98
205.11
223.28
257.13
301.79
356.18
416
481.25
545.34
604.31
651.97
690.36
720.46
746.39
766.11
780.4
788.27
793.41
795.13
794.41
789.4
782.4
773.39
764.4
753.62
742.38
730.55
720.37
707.28
690.36
671.51
658.34
644.6
623.32
596.69
583.3
582.17
574.3
543.95
509.26
489.2
483.25
472.8
457.24
443.6
436.23
426.63
415.21
404.24
397.21
389.73
383.2
376.99
372.19
364.9
357.18
349.07
343.18
336.19
329.17
320.22
313.16
306.56
302.16
295.77
289.15
280.53
273.14
263.48
253.13
241.83
237.12
240
253.13
274.67
310.16
359.12
420.22
483.88
546.28
601.89
651.34
692.68
729.38
759.4
782.4
795.24
802.42
806.36
810.42
811.67
810.42
805.23
798.41
789.44
780.4
769.72
758.39
745.12
732.38
717.96
702.36
683.76
666.34
648.79
631.33
609.98
588.3
566.27
546.28
524.75
504.26
484.63
469.24
454.59
441.23
427.25
416.22
406.08
397.21
386.6
377.2
368.03
360.19
350.48
341.18
332.01
325.17
317.16
309.16
300.02
293.15
285.31
277.14
266.46
258.13
250.88
245.13
235.44
225.12
216.23
214.11
213.55
214.11
218.71
241.12
283.66
341.18
401.51
464.24
527.77
590.31
643.63
688.36
724.53
754.39
775.22
790.41
800.73
808.42
811.65
813.42
813.01
810.42
802.89
793.41
782.78
772.4
759.62
746.39
732.61
720.37
706.09
690.36
671.86
654.34
635.19
615.32
593.51
575.3
558.61
542.28
522.61
505.26
490.02
476.25
459.45
445.23
435.17
429.22
420.69
411.21
401.32
393.2
383.18
373.19
363.13
355.18
346.06
337.17
327.3
319.17
309.93
301.16
290.43
281.15
271.85
265.14
257.09
249.13
239.65
233.12
227.05
223.12
221.52
231.12
253.34
289.15
334.19
391.2
455.75
522.27
581.42
634.33
679.92
718.37
746.49
769.4
788.1
802.42
808.07
809.42
809.27
809.42
805.44
798.41
789.43
781.4
771.65
760.39
746.93
734.38
720.7
706.37
689.58
674.35
658.75
642.33
620.98
599.31
578.81
562.29
544.6
526.27
506.29
489.25
473.53
460.24
445.98
433.22
421.37
413.21
405.26
397.21
386.67
377.2
368.05
360.19
350.42
341.18
331.99
325.17
317.19
309.16
299.02
290.15
280.8
273.14
263.32
253.13
241.72
234.12
227.27
221.11
214.31
215.11
224.87
245.13
273.72
317.16
374.01
439.23
502.07
562.29
617.58
666.34
703.13
732.38
756.55
777.4
790.51
798.41
802.75
806.42
806.63
804.42
798.53
790.41
779.49
769.4
759.18
748.39
734.81
722.37
709.7
696.36
680.27
666.34
650.73
630.33
604.94
587.3
577.63
566.29
541.78
514.27
494.09
483.25
470.62
456.24
442.62
433.22
422.66
412.21
402.48
396.2
389.11
381.2
370.79
361.19
351.85
345.18
337.53
329.17
318.37
310.16
303.03
297.15
287.47
277.14
266.42
259.13
251.09
243.13
233.82
229.12
229.26
238.12
255.25
286.15
329.53
385.2
446.62
512.26
575.33
632.33
677.61
714.37
743.59
768.4
786.44
800.41
810.35
818.42
821.48
820.42
815.14
809.42
802.36
794.41
783.78
773.4
762.81
752.39
738.25
722.37
705.17
690.36
674.76
658.34
638.05
618.32
600.19
586.3
569.29
546.28
517.28
493.26
476.54
465.24
451.79
439.23
428.67
421.22
411.42
401.21
391.03
383.2
374.08
365.19
355.85
348.18
338.81
329.17
318.12
309.16
299.69
291.15
281.11
273.14
264.79
257.13
246.68
237.12
227.64
221.11
214.77
213.11
218.55
238.12
270.2
315.16
369.3
433.22
498.58
559.29
611
660.34
705.96
742.38
762.56
774.4
785.4
798.41
806.75
810.42
810.19
808.42
802.49
794.41
784.52
774.4
761.91
749.39
736.68
725.38
712.25
698.36
681.57
664.34
645.19
627.32
608.59
590.31
569.17
548.28
527.68
511.26
495.73
481.25
465.37
452.23
440.68
431.22
419.83
409.21
399.56
393.2
385.82
377.2
366.24
357.18
348.7
341.18
331.32
322.17
312.79
305.16
295.24
285.15
274.11
266.14
257.54
249.13
239.36
233.12
226.57
219.11
211.59
217.11
240.06
279.14
325.65
381.2
443.59
509.26
568.91
623.32
671.26
712.37
742.46
766.4
785.79
801.41
809.6
814.42
817.24
818.42
813.93
806.42
797.32
788.41
777.34
766.4
755.25
744.38
730.06
714.37
697.49
682.35
665.68
648.34
628.15
608.31
587
566.29
543.97
523.27
502.88
485.25
467.94
453.23
439.07
427.22
415.26
405.21
394.78
385.2
374.45
365.19
355.88
347.18
336.11
325.17
314
305.16
295.48
286.15
274.92
265.14
255.17
247.13
236.94
226.12
213.74
205.11
198.12
193.1
187.28
187.1
195.29
217.11
251.68
302.16
363.7
431.22
495.03
554.29
606.97
654.34
692.85
724.37
748.11
766.4
778.05
786.41
791.36
794.41
793.4
790.41
784.99
778.4
769.37
760.39
750.07
738.38
724.34
712.37
699.92
685.35
667.9
654.34
638.91
615.32
586.5
572.3
571.36
562.29
527.94
488.25
465.25
459.24
450.44
437.23
426.78
423.22
417.39
409.21
401.3
397.21
391.77
385.2
376.84
369.19
359.34
349.18
337.4
327.17
316.85
309.16
300.82
293.15
282.95
273.14
262.39
254.13
245.18
237.12
228.87
227.12
233.07
251.13
280.62
325.17
379.33
439.23
499.71
564.29
627.79
682.35
719.02
744.38
765.45
786.41
801.41
810.42
814.11
816.42
815.68
813.42
808.6
802.42
792.65
781.4
768.75
757.39
745.7
734.38
719.44
702.36
684.27
670.35
654.87
634.33
609.21
592.31
583.69
574.3
552.32
526.27
506.16
496.26
487.18
477.25
466.18
457.24
446.71
436.23
425
415.21
403.99
393.2
381.88
372.19
361.47
351.18
339.51
329.17
317.74
307.16
295.39
286.15
276.98
269.14
259.36
251.13
242.03
233.12
221.42
213.11
211.31
222.11
243.65
278.14
323.47
381.2
445.42
512.26
573.37
627.32
671.88
710.37
741.24
765.4
780.36
789.41
794.04
798.41
800.72
800.41
794.77
786.41
776.11
766.4
755.55
744.38
731.1
717.37
701.73
686.35
669.31
652.34
633.39
615.32
596.26
578.3
559.29
542.28
525.1
509.26
492.27
477.25
462.38
449.23
435.66
425.22
416.38
409.21
399.38
389.2
378.94
371.19
362.49
353.18
342.16
333.17
324.67
317.16
307
297.15
287.48
281.15
273.64
265.14
253.77
245.13
238.05
233.12
225.63
219.11
214.4
217.11
227.51
251.13
287.82
339.18
399.29
465.24
529.1
588.3
639.35
685.35
724
754.39
773.46
786.41
796.15
805.42
810.16
810.42
805.5
798.41
789.19
780.4
770.17
758.39
744.41
732.38
719.91
705.36
688.1
674.35
658.68
635.33
606.98
592.31
590.48
582.3
551.19
514.27
490.64
481.25
468.99
453.23
439.63
431.22
419.88
407.21
396.08
389.2
381.22
373.19
364.74
357.18
347.12
337.17
327.19
319.17
309.76
301.16
292.02
285.15
277.12
269.14
258.86
250.13
240.91
233.12
224.53
219.11
214.78
214.11
218.52
237.12
269.87
315.16
367.83
431.22
500.28
566.29
618.21
660.34
697.82
733.38
760.25
778.4
789.17
797.41
802.23
805.42
805.34
802.42
794.76
785.41
774.75
764.4
752.97
742.38
729.62
714.37
696.73
682.35
666.92
646.33
620.74
603.31
594.06
582.3
556.11
526.27
503.96
491.25
476.92
461.24
446.91
437.23
426.62
416.22
405.8
397.21
386.84
377.2
368.15
361.19
352.41
343.18
333.03
325.17
316.91
309.16
299.15
290.15
280.71
273.14
263.91
255.13
245.08
237.12
228.36
221.11
214.84
215.11
220.73
234.12
255.58
293.15
346.87
413.21
479.78
542.28
598.14
650.34
694.82
730.38
754.85
773.4
787.27
798.41
804.03
806.42
806.32
806.42
803.92
798.41
788.5
777.4
765.18
753.39
739.97
726.38
710.62
694.36
676.19
659.34
641.26
622.32
600.11
579.3
558.84
539.28
517.23
497.26
479.45
465.24
450.83
439.23
429.21
421.22
411.03
401.21
391.37
383.2
373.65
365.19
357.24
351.18
343.15
334.17
323
313.16
303.16
295.15
285.92
277.14
266.38
257.13
247.9
241.12
232.93
225.12
216.69
213.11
213.78
222.11
238.5
270.14
316.94
377.2
441.07
505.26
565.7
623.32
673.25
714.37
743.76
765.4
780.89
794.41
804.15
810.42
811.04
808.42
802.17
794.41
784.36
774.4
763.7
753.39
741.4
729.38
715.88
702.36
685.9
668.35
648.92
631.33
612.94
594.31
572.64
552.29
533.31
518.27
503.26
489.25
473.74
459.24
444.31
432.22
421.41
413.21
404.37
396.2
386.55
377.2
366.56
357.18
347.49
339.18
330.21
323.17
315.79
309.16
299.43
289.15
277.98
270.14
261.8
253.13
242.07
234.12
227.11
221.11
214.63
217.11
232
261.14
299.33
349.18
408.25
473.24
534.26
590.31
640.29
686.35
724.19
754.39
775.96
792.41
803.06
810.42
813.47
814.42
812.18
808.42
801.36
792.41
781.17
770.4
758.64
746.39
731.6
717.37
703.18
690.36
674.43
656.34
635.4
616.32
597.09
578.3
556.76
536.28
516.38
499.26
481.39
465.24
450.52
440.23
429.99
419.22
406.51
397.21
390.42
385.2
376.62
367.19
357.32
349.18
339.18
329.17
318.47
310.16
301.13
293.15
284.14
277.14
269.04
261.14
250.45
241.12
232.97
229.12
225.2
223.12
224.94
241.12
273.72
322.17
377.36
437.23
498.62
562.29
621.33
672.35
711.3
742.38
766.5
786.41
799.93
809.42
814.44
817.42
816.77
814.42
808.99
801.41
790.73
780.4
769.65
758.39
744.77
732.38
718.57
702.36
683.84
670.35
656.39
635.33
608.75
595.31
594.34
586.3
554.09
515.27
490.08
480.25
468.43
453.23
440.01
432.22
422.2
411.21
400.95
393.2
383.09
373.19
364.21
357.18
347.4
337.17
326.84
319.17
310.17
301.16
290.2
281.15
272.18
265.14
255.78
246.13
235.57
229.12
224.02
221.11
219.73
229.12
252.94
293.15
341.89
397.21
456.17
520.27
582.56
638.33
681.97
717.37
745.95
770.4
787.34
798.41
804.11
808.42
809.73
808.42
802.42
794.41
785.39
778.4
770.53
760.39
746.74
734.38
721.92
708.37
692.04
678.35
663.1
642.33
616.61
600.31
593.14
582.3
554.53
522.27
499.14
487.25
473.47
457.24
442.44
433.22
423.16
412.21
400.97
393.2
385.36
377.2
366.45
356.18
346.14
339.18
332.22
325.17
314.41
303.16
291.12
282.15
273.18
265.14
254.86
246.13
238.04
233.12
226.91
221.11
216.47
221.11
235.88
263.14
300.94
353.18
415.17
481.25
542.32
599.31
650.26
694.36
727.3
753.39
774.05
790.41
798.67
802.42
803.87
805.42
803.15
797.41
788.08
778.4
767.69
757.39
745.57
733.38
719.44
706.37
692.27
678.35
662.15
646.33
628.62
610.32
588.89
568.29
548.24
531.27
513.75
497.26
480.66
467.24
453.71
440.23
425.09
413.21
403.96
397.21
388.3
379.2
369.54
361.19
351.08
341.18
330.66
322.17
313.07
305.16
295.77
287.15
277.18
269.14
260.57
253.13
243.63
235.12
225.95
219.11
213
213.11
221.82
245.13
280.35
327.17
381.65
445.23
511.66
575.3
627.83
671.35
707.17
738.38
761.33
777.4
787.49
796.41
802.72
806.42
804.89
800.41
793.38
786.41
777.23
766.4
754.42
745.39
735.32
721.37
703.65
690.36
677.41
658.34
633.62
620.32
618.32
610.32
580.34
544.28
520.16
509.26
495.18
477.25
461.2
451.23
439.77
427.22
414.75
405.21
394.68
385.2
376.37
369.19
359.47
349.18
338.7
331.17
322.6
313.16
301.47
293.15
286.56
281.15
271.7
262.14
252.47
245.13
235.47
226.12
217.41
215.11
218.82
233.12
258.4
299.15
352.04
415.21
480.93
546.28
604.63
655.34
696.77
733.38
763.5
786.41
798.96
806.42
811.7
817.42
819.61
818.42
813.12
806.42
797.54
788.41
777.61
766.4
753.47
741.38
728.11
714.37
697.98
682.35
665.34
647.33
625.4
604.31
584.15
566.29
545.62
524.27
503.13
487.25
473.49
461.24
447.52
436.23
425.99
417.22
406.59
397.21
388.15
380.2
370.21
361.19
352.52
345.18
335.15
325.17
314.71
306.16
295.54
285.15
273.8
265.14
256.41
249.13
239.14
229.12
220.2
219.11
222.54
230.12
243.89
277.14
330.65
396.2
459.88
522.27
582.61
638.33
681.83
717.37
747.67
773.4
789.04
798.41
804.71
810.42
811.2
808.42
803.21
798.41
791.04
781.4
769.9
760.39
750.26
738.38
723.97
712.37
699.68
682.35
660.47
646.33
638.66
626.32
598.4
567.29
544.34
530.27
512.84
493.26
475.8
464.24
452.33
441.23
431.51
425.22
417
407.21
395.41
385.2
374.63
365.19
355.21
347.18
338.24
329.17
317.42
307.16
297.22
289.15
278.82
269.14
258.93
251.13
242.35
235.12
228.03
225.12
225.25
233.12
249.73
281.15
326.35
385.2
449.57
515.27
575.44
630.33
677.46
718.37
749.6
772.4
786.81
798.41
807.44
814.42
815.75
813.42
808.02
802.42
794.88
786.41
775.89
765.4
753.44
741.38
727.55
714.37
700.15
686.35
669.55
651.34
630.28
610.32
590
571.3
550.99
531.27
510.84
493.26
476.75
463.24
450.11
439.23
427.78
417.22
405.97
397.21
388.89
381.2
370.99
361.19
351.6
344.18
334.97
325.17
313.81
305.16
296.7
289.15
279.08
270.14
260.87
253.13
242.97
233.12
222.96
217.11
214.89
221.11
236.5
266.14
308.27
363.19
424.48
489.25
550.58
607.31
655.99
698.36
732.1
758.39
775.34
786.41
792.58
797.41
799.2
798.41
793.31
786.41
777.52
768.4
757.53
746.39
733.56
720.37
705.18
690.36
674.33
658.34
639.3
619.32
597.16
576.3
555.67
538.28
521.23
505.26
487.53
471.24
455.14
441.23
427.3
416.22
406
397.21
386.72
377.2
367.83
360.19
351.63
344.18
336.4
329.17
319.27
309.16
298.48
290.15
281.25
273.14
262.84
253.13
243.33
237.12
229.84
221.11
210.64
206.11
204.55
203.11
202
217.11
254.85
310.16
368.26
428.22
490.5
554.29
610.44
658.34
697.69
730.38
753.43
770.4
782.65
792.41
796.77
797.41
794.52
790.41
782.99
773.4
762.16
752.39
740.97
726.38
708.74
694.36
680.23
662.34
640.4
626.32
618.79
606.31
578.14
547.28
525.79
514.27
499.92
483.25
467.71
456.24
442.68
429.22
417.31
409.21
400.11
391.2
381.69
373.19
362.84
353.18
344.02
337.17
329.18
321.17
311.51
303.16
293.8
285.15
274.53
265.14
255.69
249.13
241.83
235.12
226.87
221.11
215.9
214.11
216.91
233.12
263.9
309.16
362.28
423.22
487.27
551.29
608.11
658.34
699.79
733.38
757.8
778.4
794.97
806.42
809.18
808.42
806.87
805.42
799.43
790.41
779.57
769.4
757.59
745.39
731.7
718.37
703.8
690.36
675.18
658.34
637.6
618.32
600.91
586.3
568.5
548.28
525.39
505.26
487.25
473.24
459.62
447.23
433.48
421.22
409.61
401.21
393.03
385.2
374.94
365.19
355.86
349.18
341.5
333.17
322.37
313.16
304.27
297.15
287.64
278.14
268.01
261.14
253.48
245.13
233.97
226.12
221.28
221.11
223.4
235.12
259.12
299.15
350.84
413.21
478.85
543.28
600.3
652.34
697.38
734.38
759.64
778.4
793.06
805.42
811.77
814.42
814
812.42
806.77
798.41
787.91
778.4
767.91
756.39
742.51
729.38
714.64
698.36
679.92
664.34
646.88
624.32
598.2
582.3
574.69
562.29
533.77
503.26
483.24
473.24
459.76
444.23
431.28
423.22
412.59
401.21
391.08
384.2
375.06
365.19
355.64
349.18
341.54
333.17
322.82
314.16
305.13
297.15
286.82
277.14
267.46
261.14
253.56
245.13
235
229.12
223.89
218.11
212.5
221.11
249.13
294.15
344.88
401.21
462.03
526.27
585.83
640.33
687.29
726.38
753.91
774.4
789.53
801.41
807.85
812.42
814.81
814.42
807.74
798.41
788.68
780.4
770.07
758.39
744.96
732.38
718.7
705.36
690.06
674.35
655.58
636.33
615.56
596.31
575.41
554.29
532.15
514.27
498.55
484.25
467.6
453.23
441.26
432.22
421.4
411.21
401.33
393.2
383.13
373.19
363.15
355.18
346.06
337.17
327.28
319.17
309.98
301.16
290.35
281.15
271.99
265.14
256.84
249.13
240.12
233.12
225.23
219.11
215.39
222.11
240.62
273.14
315.49
369.19
430.53
497.26
560.77
618.32
665.7
705.36
737.52
766.4
789.67
806.42
813.97
817.42
818.99
820.42
817.45
810.42
799.75
789.41
778.75
768.4
755.74
742.38
727.74
714.37
699.11
682.35
662.93
646.33
631.61
618.32
600.62
580.3
556.83
534.28
511.74
493.26
477.2
464.24
450.12
437.23
425.33
417.22
409.2
401.21
390.81
381.2
371.77
364.19
354.96
345.18
333.95
325.17
316.64
309.16
299.26
290.15
280.64
273.14
263.32
253.13
242.65
237.12
231.83
225.12
216.78
218.11
231.18
255.13
286.4
333.17
394.94
464.24
527.99
587.3
642.15
690.36
724.74
750.39
771.67
790.41
801.02
806.42
809.87
814.42
815.46
812.42
804.4
794.41
783.04
773.4
762.69
749.39
732.53
718.37
705.77
692.36
674.85
659.34
643.04
622.32
596.78
580.3
572.9
562.29
535.54
505.26
484.74
475.25
463.2
448.23
434.31
425.22
414.82
404.21
394.43
388.2
381.05
373.19
363.01
353.18
342.56
334.17
325.49
317.16
306.37
297.15
288.26
281.15
271.22
261.14
250.99
245.13
238.79
231.12
220.82
217.11
223.47
243.13
272.13
313.16
364.26
425.22
489.46
555.29
615.7
667.35
706.39
738.38
764.49
785.41
797.85
806.42
812.89
818.42
818.98
816.42
811.29
805.42
796.48
786.41
775.16
764.4
751.37
737.38
721.45
706.37
690.1
674.35
656.72
639.33
619.21
598.31
575.56
555.29
535.04
515.27
494.04
477.25
464.53
455.24
443.39
431.22
418.97
409.21
398.71
389.2
379.44
371.19
361.75
353.18
344.39
337.17
327.98
318.16
306.52
297.15
288.19
281.15
272.57
265.14
256.65
249.13
239.19
230.12
221.9
219.11
219.21
225.12
239.05
270.14
317.52
377.2
438.94
501.26
560.58
616.32
663.83
705.36
739.52
766.4
782.55
792.41
798.82
805.42
809.22
810.42
807.48
802.42
794.06
784.41
773.03
762.39
751.18
740.38
727.31
713.37
697.21
682.35
667.72
654.34
636.6
614.32
586.94
562.29
542.42
528.27
511.97
493.26
474.8
465.24
460.23
452.23
434.41
415.21
400.83
393.2
385.3
377.2
368.05
359.19
347.64
337.17
328.01
321.17
311.74
302.16
292.35
285.15
275.68
265.14
253.38
246.13
239.78
233.12
223.56
218.11
216.19
218.11
223.76
245.13
285.49
341.18
400.81
464.24
528.7
590.31
640.48
682.35
718.16
749.39
771.12
786.41
797.35
806.42
809.86
809.42
806
802.42
796.58
789.41
779.43
768.4
756.39
746.39
734.78
720.37
703.32
690.36
677.14
658.34
633.12
615.32
605.91
594.31
568.08
538.28
516.75
505.26
490.97
473.24
456.18
445.23
434.83
424.22
412.5
403.21
393.85
385.2
374.89
365.19
355.16
347.18
338.27
329.17
318.13
309.16
300.52
293.15
283.03
273.14
262.75
255.13
246.28
237.12
225.68
217.11
211.13
211.11
215.64
230.12
255.77
297.15
351.41
417.22
485.57
551.29
608.1
658.34
700.78
736.38
762.08
781.4
795.28
806.42
812.16
814.42
813.5
812.42
808.8
802.42
792.03
781.4
770.66
760.39
747.57
734.38
720.56
708.37
694.59
680.35
663.23
646.33
629.06
614.32
596.65
574.3
546.3
522.27
504.84
493.26
479.35
464.24
448.87
437.23
426.33
417.22
407.65
399.21
389.6
381.2
372.39
364.19
353.64
343.18
331.56
321.17
309.4
299.15
288.84
281.15
272.74
265.14
254.95
245.13
235
229.12
224.35
221.11
217.85
223.12
241.2
277.14
327.05
389.2
454.52
518.27
576.07
632.33
683.93
726.38
753.9
773.4
789.87
805.42
814.49
818.42
818.47
817.42
812.8
806.42
798.35
790.41
780.28
769.4
757.07
745.39
732.07
718.37
702
685.35
667.13
650.34
632.33
614.32
593.26
572.3
550.81
532.28
513.89
497.26
480.79
468.24
457.06
447.23
435.45
425.22
415.82
408.21
398.59
389.2
379.94
373.19
365.38
357.18
346.94
338.17
329.04
321.17
311.03
301.16
290.3
282.15
273.38
265.14
255.03
247.13
238.65
231.12
224.69
229.12
247.41
281.15
324.16
377.2
436.83
501.26
562.5
619.32
668.27
710.37
743.28
770.4
790.71
805.42
813.08
818.42
821.55
822.43
818.21
812.42
805.13
796.41
784.71
774.4
764.33
752.39
736.36
722.37
708.33
690.36
667.42
652.34
645.25
634.33
605.75
570.29
541.34
523.27
504.9
485.25
466.58
453.23
440.2
428.22
416.95
409.21
401.22
393.2
382.95
373.19
363.17
355.18
346.3
337.17
326.18
317.16
308.53
301.16
291.11
281.15
270.71
263.14
254.37
245.13
233.62
225.12
218.29
214.11
209.26
209.11
216.25
237.12
271.63
322.17
382.66
448.23
510.85
570.29
623
668.35
703.57
733.38
758.31
778.4
789.11
793.41
794.47
796.41
795.55
790.41
780.15
769.4
758.76
748.39
734.47
718.37
701.62
688.36
674.52
658.34
639.03
622.32
603.5
579.3
552.67
539.28
537.12
530.27
504.87
475.25
456.23
448.23
436.51
421.22
408.12
401.21
393.01
383.2
372.85
365.19
356.68
348.18
338.43
329.17
318.47
309.16
299.65
291.15
281.17
273.14
264.84
257.13
246.63
237.12
227.86
221.11
212.84
205.11
197.14
194.1
196.42
210.11
237.09
281.15
335.4
395.2
456.49
523.27
589.59
646.33
685.05
713.37
738.09
761.39
776.96
786.41
791.99
796.41
796.32
793.41
788.33
782.4
772.59
760.39
746.44
733.38
719.68
706.37
