863.45
977.14
860.45
796.88
850.44
878.59
834.43
802.41
816.42
820.35
794.41
773.97
773.4
768.62
752.39
736.82
726.38
712.87
696.36
680.4
666.34
650.59
634.33
615.52
599.31
584.03
570.29
553.82
538.28
522.74
509.26
494.03
480.25
467.14
457.24
446.55
437.23
428.56
424.22
420.48
417.22
411.96
409.21
408.09
409.21
408.63
409.21
411.06
416.22
420.52
424.22
426.05
429.22
432.11
435.23
435.76
435.23
432.44
429.22
424.17
419.22
413.35
408.21
402.28
397.21
391.79
387.2
381.55
376.19
370.22
365.19
359.27
353.18
345.68
339.18
333.34
329.17
323.7
317.16
309.25
303.16
297.99
293.15
285.85
278.14
271.26
267.14
262.8
257.13
249.26
242.13
235.51
229.12
220.95
213.11
206.6
202.1
196.49
189.1
180.28
173.09
167.29
162.08
155.3
148.08
141.24
136.07
131.11
126.07
120.33
115.06
109.58
104.05
97.697
92.048
86.597
82.042
76.71
72.037
66.624
62.032
56.961
54.028
50.899
48.025
43.026
40.021
39.134
43.022
49.811
64.033
87.416
124.06
170.4
226.12
288.89
361.19
437.88
514.27
583.52
647.33
704.3
754.39
794.52
828.43
855.75
876.45
887.92
895.46
901.52
907.47
909.51
909.47
907.11
903.47
895.78
887.46
879.32
873.45
865.21
855.44
843.3
833.43
822.91
812.42
798.76
786.41
773.19
760.39
744.44
730.38
717.19
706.37
692.71
679.35
664.99
652.34
637.1
622.32
607.11
595.31
582.95
571.3
557.68
546.28
535.11
526.27
516.6
509.26
502.12
497.26
491.89
489.25
487.27
487.25
485.63
485.25
485.06
487.25
488.22
489.25
488.67
489.25
488.67
488.25
486.19
485.25
483.37
481.25
476.53
472.24
467.73
464.24
458.77
453.23
447.32
443.23
437.97
432.22
425.41
421.22
418.02
415.21
409.63
404.21
399.56
397.21
393.09
387.2
379.22
373.19
368.45
365.19
360.33
355.18
349.15
344.18
338.54
333.17
326.81
321.17
315.14
310.16
305.18
301.16
295.69
289.15
281.27
275.14
269.99
265.14
258.05
251.13
245.72
243.13
239.25
233.12
224.59
218.11
212.44
207.11
199.24
193.1
188.47
186.1
180.8
175.09
169.48
168.09
166.58
166.09
167.39
179.09
201.02
233.12
271.38
321.17
381.92
452.23
523.4
594.31
660.52
721.37
773.22
820.42
861.57
895.46
917.57
933.48
945.97
957.5
963.87
967.5
968.58
969.5
967.36
964.5
959.94
955.49
947.87
939.49
929.3
920.48
909.81
899.47
887.39
877.45
866.64
856.44
843.17
830.43
816.06
802.42
785.52
768.4
748.96
730.38
709.25
688.36
665.48
644.33
622.32
602.31
581.64
563.29
544.08
526.27
507.81
493.26
481.08
473.24
465.7
460.24
454.01
449.23
443.77
441.23
439.95
441.23
441.08
441.23
440.42
441.23
440.59
439.23
435.66
433.22
430.33
427.22
421.45
416.22
411.76
409.21
404.88
399.21
391.67
385.2
378.66
373.19
367.49
363.19
358.06
352.18
344.21
337.17
330.72
325.17
317.96
311.16
305.18
301.16
295.81
289.15
281.2
275.14
270.03
265.14
257.85
250.13
243.27
239.12
234.83
229.12
221.17
214.11
208.2
203.11
196.31
189.1
182.53
178.09
173.31
167.09
159
152.08
146.48
142.07
136.49
131.07
125.12
120.06
114.25
110.06
105.7
102.05
96.416
92.048
88.005
86.045
83.131
83.043
87.006
100.05
120.41
150.08
187.88
238.12
298.86
369.19
442.24
516.27
586.38
652.34
710.58
762.39
804.62
838.43
864.14
887.46
906.6
919.48
923.42
925.48
928.33
931.48
929.02
923.48
916.75
911.47
903.75
895.46
886.39
879.45
870.67
861.45
850.05
840.43
829.45
818.42
804.08
790.41
775.38
761.39
745.1
730.38
715.41
702.36
686.59
670.35
651.68
634.33
615.55
598.31
580.72
566.29
551.63
538.28
523.75
512.26
501.66
493.26
483.76
477.25
472.63
471.24
468.18
465.24
461.73
461.24
460.79
461.24
460.4
461.24
461.34
461.24
458.7
457.24
455.89
455.24
452.16
449.23
445.93
443.23
438.01
432.22
425.93
421.22
415.38
409.21
401.94
396.2
390.5
385.2
378.07
371.19
364.61
360.19
355.15
349.18
340.89
333.17
325.66
319.17
311.74
305.16
299
294.15
288.06
281.15
272.83
265.14
257.05
249.13
240.5
233.12
226.51
221.11
215.38
210.11
203.97
197.1
188.68
181.09
174.1
168.09
161.08
155.08
149.23
144.07
136.27
128.07
119.89
115.06
109.83
104.05
96.272
92.048
91.158
95.049
101.5
116.06
140.38
177.09
221.79
275.14
334.78
401.21
468.4
534.28
594.81
651.34
700.55
742.38
774.74
801.41
822.19
838.43
848.32
855.44
860.08
863.45
862.86
860.45
855.8
850.44
842.38
834.43
825.99
818.42
808.48
798.41
787.11
777.4
766.53
756.39
743.68
730.38
714.59
700.36
685.29
670.35
651.98
634.33
616.98
602.31
585.36
567.29
547.19
530.27
514.72
501.26
486.03
472.24
459.17
449.23
438.51
428.22
416.58
407.21
398.72
393.2
387.82
384.2
380.5
379.2
377.89
377.2
374.46
372.19
369.74
369.19
368.55
369.19
369.05
369.19
367.98
367.19
364.74
361.19
355.79
352.18
349.56
347.18
342.12
337.17
333
330.17
325.18
319.17
312.91
309.16
305.98
303.16
298.92
295.15
291.47
289.15
286.22
283.15
278.82
275.14
271.56
269.14
266.01
263.14
259.8
258.13
255.92
253.13
247.38
242.13
237.04
234.12
229.59
225.12
219.12
215.11
211.18
210.11
209.61
213.11
220.65
238.12
264.6
302.16
348.23
405.21
467.22
531.27
593.7
659.34
723.32
778.4
816.76
846.44
873.63
900.47
919.39
931.48
938.5
944.49
946.02
944.49
939.76
935.48
929.59
923.48
915.27
907.47
897.59
887.46
875.45
865.45
854.85
844.44
830.77
818.42
806.41
796.41
783.27
769.4
753.37
738.38
720.14
700.36
677.46
656.34
634.77
614.32
591.86
571.3
550.55
531.27
510.67
493.26
477.77
465.24
451.3
439.23
428.44
421.22
413.79
408.21
402.91
400.21
397.58
397.21
396.77
397.21
395.85
395.2
393.95
393.2
390.3
387.2
382.96
379.2
374.01
369.19
363.78
359.19
353.54
348.18
342.2
337.17
331.5
326.17
320.14
315.16
309.94
305.16
299.36
294.15
288.45
283.15
277.33
273.14
269.51
266.14
260.73
255.13
249.53
245.13
239.62
234.12
227.9
223.12
217.71
213.11
207.13
202.1
195.94
191.1
185.22
181.09
176.51
174.09
171.09
171.09
174.66
189.1
215.07
255.13
304.31
363.19
428.4
501.26
576.04
650.34
717.06
776.4
826.67
871.45
907.41
935.48
955.87
975.5
992.35
1003.5
1005
1004.5
1005.3
1007.5
1004.7
999.52
992.91
987.51
979.33
971.5
962.97
955.49
944.43
933.48
921.73
912.47
901.45
891.46
879.58
868.45
854.43
841.44
827.21
814.42
798.58
782.4
763.42
745.39
725.34
706.37
685.48
666.34
647.1
631.33
614.62
598.31
580.78
568.29
558.37
550.28
539.05
530.27
524.57
523.27
519.61
515.27
510.31
509.26
508.49
508.26
505.41
503.26
500.96
501.26
500.83
500.26
497.34
495.26
492.26
489.25
483.87
479.25
474.63
471.24
466.19
461.24
455.04
449.23
442.1
436.23
430.37
425.22
418.07
411.21
404.63
400.21
394.95
389.2
381.74
375.19
368.15
361.19
352.63
345.18
338.67
334.17
328.81
323.17
315.98
309.16
301.21
294.15
286.73
281.15
274.83
269.14
261.04
253.13
243.95
237.12
230.09
225.12
219.9
218.11
217.47
221.11
229.06
249.13
282.38
330.17
384.83
445.23
508.75
578.3
647.86
713.37
767.91
814.42
853.28
887.46
912.9
931.48
943.89
955.49
963.6
967.5
964.94
961.5
957.44
953.49
946.17
939.49
933.02
927.48
918.11
908.47
898.61
891.46
882.38
873.45
862.38
852.44
840.63
830.43
819.23
809.42
797.11
785.41
771.76
758.39
740.51
720.37
697.01
676.35
656.41
638.33
617.65
598.31
580.05
566.29
552.1
538.28
523.22
512.26
503.17
496.26
487.56
481.25
476.66
475.25
472.13
469.24
465.87
465.24
464.41
464.24
461.84
459.24
455.38
453.23
450.46
447.23
441.41
436.23
430.73
425.22
417.06
409.21
401.91
396.2
388.93
381.2
372.53
365.19
357.99
352.18
345.28
337.17
326.84
318.16
311.62
307.16
300.83
293.15
284.41
277.14
269.93
263.14
255.61
249.13
242.89
237.12
229.59
221.11
212.12
205.11
199.25
194.1
187.69
181.09
174.23
168.09
161.12
154.08
146.41
140.07
133.63
128.07
121.55
116.06
109.45
103.05
94.765
88.046
82.062
79.041
76.119
76.039
78.454
88.046
105.3
135.07
176.44
231.12
295.64
369.19
443.7
515.27
581.68
648.34
711.01
762.39
796.02
820.42
842.43
863.45
876.66
883.46
886.27
888.46
887.58
885.46
881.33
875.45
864.99
853.44
841.89
832.43
821.42
810.42
797.89
786.41
773.06
760.39
746.47
734.38
721.04
708.37
693.26
678.35
660.49
642.33
622.87
607.31
593.1
580.3
564.69
550.28
535.7
522.27
506.36
492.25
479.31
469.24
458.15
449.23
441.39
436.23
429.9
425.22
421.32
420.22
418.26
417.22
415.96
417.22
418.6
421.22
422.55
424.22
424.46
425.22
424.7
424.22
421.78
419.22
415.64
413.21
410.42
408.21
404.4
400.21
394.55
389.2
382.39
375.19
367.2
361.19
355.38
349.18
340.97
334.17
328.44
323.17
315.68
309.16
304.68
302.16
296.92
289.15
280.03
273.14
267.32
262.14
255.57
249.13
242.59
237.12
231.2
225.12
217.42
209.11
200.28
193.1
186.84
181.09
173.98
167.09
160.73
156.08
151.17
147.08
142.65
139.07
133.73
128.07
120.79
115.06
109.86
107.06
102.15
96.05
90.076
92.048
99.816
111.06
124.6
152.08
197.34
257.13
320.67
388.2
458.63
530.27
595.75
656.34
710.84
758.39
794.18
822.43
845.36
864.45
875.21
880.46
883.15
887.46
889.64
888.46
882.81
877.45
872.27
867.45
859.26
850.44
840.74
832.43
821.69
810.42
797.13
785.41
772.74
761.39
747.97
734.38
717.89
702.36
686.26
672.35
657.01
642.33
625.71
610.32
593.65
578.3
561.56
546.28
530.01
515.27
499.36
485.25
471.4
461.24
452.55
447.23
442.19
439.23
435.59
433.22
430.16
429.22
428.45
429.22
428.82
429.22
428.78
429.22
428.22
427.22
424.35
421.22
416.41
412.21
407.71
404.21
399.14
393.2
385.67
379.2
372.32
365.19
356.48
349.18
342.77
337.17
329.96
323.17
316.23
309.16
299.58
290.15
282.19
277.14
271.65
265.14
256.87
249.13
241.05
233.12
224.46
217.11
210.65
205.11
198.3
191.1
183.57
177.09
170.43
164.08
157.23
151.08
144.94
140.07
134.87
130.07
124.09
119.06
113.22
108.06
101.96
98.051
93.942
90.047
83.72
80.041
80.381
88.046
99.789
118.06
143.28
181.09
231.33
295.15
365.98
440.23
512.12
582.3
646.76
704.36
752.21
794.41
830.32
859.44
877.84
889.46
896.85
903.47
906.69
907.47
904.65
900.47
893.87
887.46
879.68
871.45
860.3
849.44
838.07
828.43
817.06
806.42
794.88
785.41
773.86
761.39
745.32
730.38
715.31
702.36
686.66
670.35
652.53
638.33
624.22
610.32
593.28
578.3
563.72
550.28
534.06
520.27
508.84
501.26
492.45
485.25
478.74
475.25
471.14
469.24
468.03
469.24
469.52
471.24
472.12
473.24
472.33
473.24
474.82
477.25
476.52
475.25
473.5
473.24
470.91
467.24
461.36
456.24
450.4
445.23
439.46
435.23
430.14
424.22
415.98
409.21
403.64
399.21
392.37
385.2
378.12
373.19
368.01
363.19
356.59
349.18
340.3
333.17
326.89
321.17
313.68
307.16
301.68
297.15
289.87
281.15
272.55
267.14
262.51
257.13
249.34
242.13
236.01
231.12
224.58
217.11
208.91
202.1
195.83
191.1
185.98
181.09
174.92
170.09
164.66
159.08
150.83
144.07
138.33
135.07
130.45
127.07
123.72
124.06
128.49
143.07
166.44
199.1
239.29
293.15
358.63
431.22
502.03
572.3
639.92
702.36
752.53
793.41
827.38
857.44
879.66
895.46
904.98
911.47
913.51
913.47
910.81
907.47
901.22
893.46
882.95
872.45
860.83
850.44
839.08
828.43
815.16
801.41
786.24
774.4
763.14
752.39
737.54
722.37
705.84
690.36
672.1
654.34
635.83
619.32
600.78
582.3
562.23
544.28
525.92
509.26
491.93
477.25
463.3
452.23
440.88
431.22
421.12
413.21
405.39
400.21
396.09
395.2
394.11
393.2
390.42
389.2
388.47
389.2
388.75
389.2
388.94
388.2
384.39
380.2
375.99
373.19
368.78
363.19
355.82
349.18
342.58
337.17
331.44
326.17
319.79
313.16
305.13
297.15
288.65
281.15
273.69
267.14
260.08
253.13
245.1
237.12
228.74
221.11
213.05
205.11
196.93
190.1
183.67
177.09
168.78
160.08
151.35
143.07
133.72
124.06
114.95
108.06
102.19
96.05
87.709
78.04
68.247
60.031
52.245
44.023
35.257
28.014
22.038
16.008
9.0481
4.0021
1.8851
2.001
1.03
-7.5988e-17
-0.81795
-2.8475e-16
-0.069331
-1.885e-16
-0.63127
-1.8471e-16
-0.20952
-3.2982e-16
-0.52798
-3.2608e-17
-0.82477
-4.7325e-16
8.147
35.018
82.045
144.07
211.11
281.15
350.74
417.22
476.61
532.28
583.32
626.32
656.3
678.35
696.88
713.37
723.8
730.38
735.35
740.38
741.91
740.38
736.89
734.38
731.02
726.38
718.69
710.37
700.42
690.36
678.65
668.35
657.66
647.33
634.53
622.32
608.71
594.31
576.25
559.29
543.55
530.27
514.24
497.26
479.42
465.24
452.18
441.23
429.68
420.22
410.24
401.21
391.43
385.2
381.26
380.2
378.07
377.2
376.35
377.2
377.18
379.2
382.25
387.2
390.36
393.2
394.79
397.21
398.47
400.21
400.66
401.21
400.59
401.21
401.35
401.21
398.83
397.21
396.12
396.2
394.15
391.2
387.38
385.2
382.62
380.2
376.85
375.19
373.92
373.19
370.64
368.19
365.29
363.19
359.94
357.18
354.21
352.18
348.55
344.18
338.2
333.17
327.41
322.17
315.22
309.16
302.32
297.15
290.85
286.15
281
278.14
273.46
269.14
264.53
266.14
272.38
285.15
302.84
333.17
376.63
433.22
494.14
559.29
626.69
698.36
766.13
826.43
874.99
917.47
953.42
983.51
1002.4
1013.5
1018
1021.5
1022.5
1023.5
1023
1023.5
1022.9
1023.5
1023.2
1023.5
1020.4
1015.5
1006.2
996.52
985.03
975.5
964.2
953.49
940.41
929.48
917.78
907.47
893.91
880.46
864.72
850.44
834.06
818.42
799.84
781.4
760.47
741.38
721.19
702.36
681.52
663.34
646.58
634.33
621.7
610.32
597.74
588.3
579.27
572.3
564.04
558.29
553.34
551.29
548.18
546.28
543.55
542.28
539.04
535.28
528.7
522.27
514.86
509.26
503.09
497.26
489.15
481.25
472.6
465.24
456.69
448.23
438.33
429.22
419.1
409.21
398.23
389.2
381.47
376.19
370.53
365.19
358.23
351.18
343.3
337.17
331.17
325.17
316.99
309.16
301.57
295.15
287.8
281.15
274.73
269.14
261.67
253.13
244.02
237.12
231.31
226.12
219.54
213.11
206.53
201.1
195.22
190.1
183.75
177.09
168.12
160.08
152.59
148.08
142.88
138.07
131.83
128.07
124.75
124.06
125.4
135.07
152.92
181.09
218.29
270.14
334.3
407.21
480.48
554.29
624.43
688.36
741.57
789.41
832.02
867.45
889.57
903.47
913.78
924.48
931.49
935.48
935.21
932.48
925.9
919.48
913.08
907.47
898.8
889.46
878.5
868.45
856.7
846.44
835.11
824.43
811.4
800.41
789.18
778.4
762.87
746.39
728.88
714.37
698.41
682.35
663.53
646.33
629.03
614.32
598.04
582.3
565.49
552.29
539.65
528.27
515.05
505.26
498.26
495.26
490.93
487.25
482.94
481.25
479.86
481.25
482.45
484.25
483.97
485.25
486.82
489.25
488.68
487.25
484.15
481.25
476.12
471.24
466.31
463.24
458.82
453.23
444.98
437.23
429.71
424.22
418.48
413.21
406.28
399.21
391.32
385.2
379.14
373.19
365.11
357.18
348.83
341.18
332.51
325.17
318.84
314.16
308.09
301.16
292.8
285.15
277.23
270.14
262.98
257.13
251.14
245.13
237.58
230.12
222.85
217.11
211.25
205.11
197.27
189.1
181.1
175.09
169.77
164.08
156.27
148.08
140.59
135.07
129.7
124.06
116.93
110.06
103.5
99.051
93.947
88.046
80.066
74.038
68.444
63.033
54.702
48.025
43.478
43.022
44.066
51.026
64.622
88.046
120.27
166.09
224.47
294.15
368.19
445.23
520.14
590.31
651.04
705.36
753.16
794.41
824.42
845.44
859.84
872.45
881.7
887.46
887.51
884.46
878.82
873.45
866.79
859.44
848.96
837.43
824.47
813.42
801.75
790.41
776.99
765.4
753.29
741.38
725.69
710.37
694.96
682.35
668.37
655.34
641.65
630.33
616.89
602.31
585.02
570.29
555.92
542.28
526.05
512.26
500.39
491.25
479.87
469.24
459.23
452.23
443.98
436.23
428.63
425.22
423.64
424.22
422.94
421.22
418.13
417.22
416.72
417.22
415.96
415.21
413.87
413.21
410.6
407.21
401.73
396.2
389.85
385.2
381.47
379.2
374.75
368.19
359.63
353.18
347.99
343.18
336.03
329.17
322.76
317.16
309.68
302.16
294.88
289.15
282.89
277.14
271.02
265.14
257.87
251.13
245.28
241.12
235.8
229.12
221.25
215.11
210.07
205.11
197.84
190.1
183.4
179.09
174.42
168.09
159.75
152.08
145.33
139.07
131.55
124.06
117.94
114.06
109.65
103.05
94.69
88.046
83.074
78.04
70.711
64.033
59.064
56.029
51.233
46.024
39.982
35.018
28.795
24.012
19.863
18.009
15.447
15.008
17.396
28.014
47.667
80.041
122.91
177.09
240.03
313.16
391.58
471.24
544.83
612.32
672.51
726.38
769.22
801.41
824.86
846.44
865.48
879.45
884.23
884.46
883.79
884.46
881.87
875.45
865.23
855.44
845.46
836.43
825.52
814.42
801.15
788.41
774.23
761.39
747.32
734.38
719.85
706.37
690.49
674.35
656.48
642.33
629.89
619.32
605.19
590.31
573.55
558.29
542.01
528.27
515.12
504.26
491.89
481.25
471.95
467.24
462.94
459.24
453.41
449.23
445.55
444.23
442.09
441.23
440.23
441.23
441.13
441.23
440.29
441.23
441.5
441.23
438.6
437.23
436.18
435.23
430.76
425.22
419.33
415.21
409.91
404.21
397.76
393.2
388.41
383.2
375.87
369.19
362.74
357.18
350.07
343.18
336.43
331.17
324.6
317.16
308.69
302.16
296.42
291.15
284.06
277.14
270.78
266.14
260.33
253.13
244.35
237.12
231.13
226.12
219.72
213.11
206.47
201.1
195.57
190.1
183.63
177.09
170.08
164.08
158.64
154.08
148.66
143.07
136.99
132.07
126.83
122.06
116.15
111.06
105.18
100.05
93.179
87.045
81.225
79.041
77.007
76.039
76.689
86.045
102.02
123.06
148.44
189.1
247.36
318.16
389.2
460.24
531.34
602.31
665.89
722.37
771.19
813.42
844.76
867.45
883.22
896.46
905.79
912.47
915.03
915.47
912.34
907.47
899.7
891.46
881.41
871.45
859.61
848.44
836.01
824.43
810.96
798.41
784.67
772.4
758.45
745.39
730.89
718.37
705.12
693.36
679.64
666.34
650.33
634.33
616.4
600.31
583.11
566.29
547.22
530.27
513.73
499.26
483.95
472.24
463.04
457.24
449.82
443.23
437.24
435.23
433.7
433.22
430.81
429.22
427.66
429.22
431.06
433.22
432.94
433.22
433
433.22
431.19
429.22
426.48
424.22
420.11
416.22
411.99
409.21
405.95
403.21
398.49
392.2
383.67
377.2
373.13
371.19
366.75
360.19
351.86
345.18
339.12
334.17
328.36
323.17
317.69
313.16
307.74
302.16
295.34
289.15
282.76
277.14
270.87
265.14
259.12
254.13
249.25
245.13
239.67
233.12
225.33
219.11
213.96
209.11
201.84
194.1
187.14
183.09
178.64
173.09
164.94
158.08
151.73
147.08
140.9
136.07
131.73
130.07
126.89
124.06
122.14
128.07
141.96
166.09
198.35
243.13
298.98
365.19
434.37
505.26
574.37
642.33
704.04
758.39
801.63
836.43
863.54
887.46
906.17
919.48
925.31
928.48
930.1
931.48
928.86
923.48
914.74
905.47
894.47
884.46
873.58
863.45
851.7
841.44
829.75
817.42
801.33
786.41
772.14
760.39
745.78
730.38
713.21
698.36
681.59
663.34
641.09
620.32
600.1
582.3
563.23
546.28
529.49
514.27
496.92
481.25
466.59
455.24
443.34
433.22
423.6
417.22
411.4
408.21
405.09
403.21
399.75
397.21
394.29
393.2
392.19
393.2
393.5
393.2
390.37
388.2
385.76
383.2
377.99
373.19
369.37
367.19
362.7
356.18
347.9
341.18
335.19
330.17
323.76
317.16
310.33
305.16
299.59
293.15
284.69
277.14
270.63
265.14
257.65
249.13
240.71
235.12
230.45
225.12
217.22
209.11
201.51
195.1
188.1
181.09
173.53
166.09
158.4
152.08
146.28
140.07
131.99
124.06
117.06
111.06
103.68
96.05
88.91
84.043
78.232
71.037
62.116
56.029
51.072
46.024
37.997
32.017
28.467
28.014
28.074
34.018
46.887
68.035
95.722
136.07
189.44
253.13
319.02
387.2
455.64
522.27
580.74
632.33
677.17
716.37
746.71
770.4
788.02
801.41
808.7
812.42
813.61
814.42
812.55
808.42
801.45
794.41
786.47
778.4
767.73
756.39
743.73
732.38
719.62
706.37
690.19
674.35
657.59
642.33
625.81
610.32
593.75
578.3
560.86
543.28
523.55
505.26
487.55
473.24
458.65
444.23
427.68
413.21
399.58
388.2
376.29
367.19
359.28
353.18
345.37
339.18
334.77
334.17
333.4
333.17
332.34
334.17
337.4
343.18
348.33
353.18
355.9
359.19
362.5
367.19
370.6
373.19
373.16
372.19
369.54
367.19
363.95
361.19
358.24
357.18
356.26
355.18
352.07
349.18
346.05
343.18
338.5
334.17
330.63
329.17
326.71
323.17
318.31
315.16
312.33
309.16
303.85
299.15
294.9
291.15
285.73
281.15
277.2
274.14
268.7
263.14
257.28
253.13
247.42
242.13
235.77
231.12
225.47
221.11
215.4
211.11
207.18
209.11
216.65
233.12
256.32
290.15
333.16
387.2
447.61
514.27
581.56
648.34
709.59
766.4
814.92
855.44
885.45
909.47
927.44
941.49
949.52
955.49
959.04
961.5
959.79
956.49
950.58
943.49
932.62
921.48
909.92
900.47
889.66
879.45
867.55
856.44
842.77
829.43
814.79
802.42
788.49
774.4
757.52
742.38
726.43
710.37
689.45
667.35
643.69
622.32
599.68
578.3
557.13
540.28
523.88
508.26
490.97
477.25
465.58
456.24
444.84
435.23
426.87
421.22
414.02
408.21
403.79
403.21
402.19
401.21
398.49
397.21
396.19
397.21
397.38
397.21
394.64
392.2
389.17
387.2
384.19
381.2
376.38
371.19
364.91
360.19
356.13
353.18
348.56
343.18
336.59
331.17
325.81
321.17
315.52
310.16
304.23
299.15
293.8
289.15
283.61
278.14
272.01
267.14
262.13
257.13
249.69
242.13
234.97
231.12
226.69
221.11
212.51
206.11
200.29
195.1
186.81
181.09
178.56
181.09
183.91
191.1
204.21
229.12
264.66
314.16
374
443.23
515.4
590.31
662.25
729.38
786.96
838.43
882.43
919.48
945.76
965.5
980
992.51
999.78
1003.5
1002.9
1001.5
997.7
993.51
986.78
979.51
969.4
959.5
948.77
940.49
930.47
919.48
905.19
893.46
882.32
872.45
858.9
846.44
834.21
824.43
811.28
797.41
781.26
766.4
748.32
729.38
707.98
689.36
670.91
654.34
635.62
618.32
600.78
586.3
571.28
558.29
545.34
536.28
528.32
523.27
517.73
514.27
510.29
508.26
505.73
505.26
503.48
501.26
496.33
493.26
491.75
493.26
493.46
493.26
490.55
487.25
481.57
476.25
470.2
465.24
459.56
455.24
450
444.23
436.16
429.22
422.82
417.22
409.19
401.21
393.89
389.2
383.7
377.2
368.6
361.19
354.4
349.18
343.1
337.17
330.05
323.17
315.54
309.16
302.84
297.15
290.06
283.15
275.68
269.14
261.34
254.13
247.1
243.13
238.59
233.12
224.34
217.11
209.81
203.11
194.21
189.1
187.21
189.1
190.89
199.1
215.99
245.13
283.54
335.17
397.28
467.24
536.8
606.31
672.25
733.38
784.57
829.43
867.53
899.47
921.04
936.48
947.62
957.5
962.34
963.5
960.37
956.49
950.72
945.49
938.64
931.48
921.37
911.47
900.88
892.46
882.27
871.45
857.56
845.44
833.64
824.43
813.27
802.42
789.03
776.4
762.05
749.39
734.52
718.37
697.32
676.35
654.95
636.33
616.56
598.31
579.18
562.29
545.41
532.28
519.85
509.26
497.54
489.25
482.81
479.25
474.8
473.24
473.12
475.25
475.59
477.25
478.83
481.25
481.06
481.25
480.52
479.25
474.22
469.24
465.18
463.24
458.75
452.23
443.81
437.23
430.98
425.22
417.33
409.21
400.51
393.2
385.15
377.2
368.34
361.19
354.68
349.18
341.66
333.17
323.95
317.16
311.15
305.16
296.97
289.15
281.65
275.14
267.72
261.14
254.88
249.13
241.45
233.12
224.48
217.11
209.32
202.1
195.37
191.1
186.51
181.09
173.07
166.09
158.88
152.08
142.95
136.07
131.42
130.07
126.38
122.06
117.84
120.06
128.66
147.08
174.2
214.11
265.49
329.17
398.62
471.24
542.14
612.32
677.08
734.38
779.96
817.42
847.2
871.45
887.79
899.47
907.11
913.47
916.18
916.47
912.88
907.47
899.3
891.46
883.04
875.45
865.6
855.44
843.72
833.43
821.46
809.42
795.06
782.4
769.03
756.39
740.9
726.38
711.47
698.36
682.03
664.34
644.39
627.32
610.39
594.31
575.54
558.29
541.27
526.27
509.22
493.26
478.08
467.24
456.99
448.23
438.96
433.22
429.31
428.22
426.27
425.22
422.94
421.22
418.26
417.22
416.68
417.22
415.41
413.21
410.19
408.21
404.58
400.21
394.23
389.2
383.96
379.2
372.55
365.19
356.68
349.18
341.17
333.17
324.31
317.16
310.89
305.16
297.39
289.15
280.6
273.14
265.06
257.13
248.75
241.12
233
225.12
216.79
209.11
201.02
193.1
184.76
177.09
168.94
160.08
149.8
140.07
131.42
124.06
116.22
108.06
99.369
91.047
82.689
75.039
67.493
60.031
51.927
44.023
36.045
28.014
19.484
12.006
6.2314
3.0016
0.81927
-2.1323e-16
-0.6194
-1.2923e-16
-0.088902
-3.2557e-16
-0.72228
-8.7654e-17
0.024583
-3.8594e-16
-1.0518
-5.8938e-17
0.53486
-3.8871e-16
-0.93667
8.0041
33.037
76.039
130.37
194.1
264.84
341.18
414.66
480.25
535.26
584.3
628.13
666.34
694.55
714.37
728.42
741.38
751.74
758.39
759.56
758.39
755.91
753.39
748.63
742.38
734.24
726.38
717.36
708.37
697.47
686.35
673.09
660.34
647.2
636.33
624.11
610.32
591.58
572.3
553.82
540.28
527.34
514.27
498.06
483.25
468.84
456.24
441.87
429.22
418.06
411.21
404.85
400.21
395.39
393.2
390.69
389.2
387.38
389.2
392.51
397.21
400.01
404.21
409.08
415.21
418.58
421.22
423.27
427.22
430.02
432.22
432.44
433.22
433.1
433.22
431.89
431.22
430.01
429.22
426.47
423.22
418.71
415.21
411.55
409.21
406.4
404.21
401.22
399.21
396.34
393.2
388.3
384.2
380
376.19
370.55
365.19
359.76
355.18
348.62
341.18
332.4
325.17
318.51
314.16
308.85
303.16
295.15
289.15
283.16
278.14
270.73
265.14
258.8
253.13
246.39
246.13
251.36
262.14
275.53
301.16
341.54
396.2
456
522.27
592.69
666.34
735.31
800.41
857.87
907.47
945.99
979.51
1006.2
1023.5
1026.3
1023.5
1021.3
1023.5
1023.9
1023.5
1022.3
1023.5
1023.3
1023.5
1022.7
1023.5
1021.5
1017.5
1008.7
999.52
987.64
976.51
963.27
952.49
941.26
931.48
917.82
903.47
886.55
871.45
854.56
838.43
819.24
800.41
779.38
760.39
740.41
722.37
703.04
686.35
669.23
654.34
638.58
626.32
615.08
607.31
599.74
596.31
594.17
594.31
591.97
590.31
587.88
587.3
584.71
582.3
578.5
576.3
572.41
568.29
562.41
558.29
552.96
546.28
536.05
527.27
519.94
514.27
505.71
496.26
485.43
475.25
463.51
453.23
443.89
436.23
426.13
415.21
404.3
397.21
391.17
385.2
376.75
369.19
362.41
357.18
350.28
343.18
335.57
329.17
321.39
313.16
304.45
298.15
292.57
287.15
279.87
273.14
266.68
261.14
254.04
247.13
239.63
233.12
225.15
218.11
210.7
205.11
198.42
193.1
186.9
182.09
175.77
171.09
166.86
168.09
175.44
194.1
221.3
258.13
302.83
361.19
431.19
509.26
583.56
651.34
711.84
770.4
822.57
865.45
896.04
921.48
942.7
959.5
967.9
973.5
977.92
981.51
979.41
975.5
971.33
968.5
962.4
955.49
947.24
939.49
928.35
917.47
905.94
896.46
885.24
875.45
864.17
853.44
840.24
829.43
818.17
806.42
788.51
769.4
749.99
734.38
716.91
698.36
676.31
656.34
637.38
622.32
606.15
590.31
573.08
560.29
549.81
542.28
533.19
526.27
519.95
516.27
512.07
511.26
511.83
514.27
514.29
515.27
516.13
518.27
518.07
518.27
517.14
515.27
509.62
504.26
499.7
497.26
492.73
487.25
479.99
473.24
465.04
457.24
448.64
441.23
433.71
428.22
422.69
417.22
409.26
401.21
392.65
385.2
376.79
369.19
361.51
355.18
348.08
341.18
333.03
325.17
316.64
309.16
301.13
293.15
284.32
277.14
270.83
265.14
257.45
249.13
240.48
233.12
225.44
218.11
210.83
205.11
199.32
193.1
185.36
178.09
170.9
164.08
155.78
148.08
141
136.07
129.91
123.06
114.46
108.06
102.32
98.051
91.985
87.045
82.061
80.041
80.803
90.047
107.39
135.07
172.57
225.12
288.94
359.19
429.44
503.26
577.75
646.33
699.41
741.38
778.13
813.42
840.91
859.44
869.77
877.45
882.3
885.46
885.15
883.46
879.12
873.45
864.74
855.44
844.63
834.43
822.88
812.42
800.43
788.41
774.24
762.39
750.94
740.38
725.72
710.37
694.45
682.35
670.37
659.34
645.69
632.33
616.83
602.31
587.1
574.3
559.32
542.28
521.78
505.26
492.84
484.25
473.37
463.24
454.27
449.23
443.99
440.23
436.52
435.23
433.48
433.22
432.56
433.22
432.74
433.22
433.02
433.22
430.76
427.22
422.32
419.22
416.19
413.21
407.53
401.21
394.17
388.2
380.91
373.19
364.97
359.19
353.98
348.18
339
329.17
319.93
313.16
306.2
299.15
291.39
285.15
279.1
273.14
265.29
257.13
248.6
241.12
233.34
226.12
218.94
213.11
207.19
201.1
193.56
186.1
178.92
173.09
166.92
160.08
151.86
144.07
136.95
131.07
125.29
120.06
114.85
110.06
104.61
99.051
93.112
88.046
82.827
78.04
72.26
67.035
61.066
56.029
50.363
46.024
40.52
35.018
28.052
24.012
22.882
27.014
34.162
48.025
69.659
104.05
150.67
211.11
280.44
356.18
432.64
509.26
581.17
646.33
701.01
748.39
788.51
822.43
846.94
864.45
876.08
885.46
891.52
895.46
895.34
892.46
886.14
879.45
871.59
863.45
852.51
841.44
829.86
820.42
809.57
798.41
785.06
773.4
760.25
746.39
729.22
714.37
700.57
688.36
672.15
655.34
637.53
622.32
606.02
591.31
575.88
562.29
547.28
534.28
521.65
512.26
502.96
496.26
489.53
485.25
481.2
480.25
478.77
477.25
473.64
473.24
475.16
479.25
480.4
481.25
482.01
485.25
487.4
489.25
488.6
487.25
483.79
481.25
478.21
475.25
469.74
464.24
458.19
453.23
447.56
443.23
438.12
432.22
423.93
417.22
411.76
407.21
400.15
393.2
386.57
381.2
374.13
367.19
359.87
353.18
344.85
337.17
330.27
325.17
318.6
311.16
303.07
297.15
291.45
285.15
276.68
269.14
262.67
257.13
249.71
242.13
235.42
231.12
226.58
221.11
213.35
205.11
196.91
191.1
185.98
181.09
174.82
170.09
164.98
159.08
150.41
144.07
138.91
134.07
125.87
120.06
116.77
116.06
114.25
118.06
129.46
150.08
177
217.11
271.72
339.18
410.31
484.25
557.1
626.32
685.74
738.38
784.36
824.43
854.87
879.45
898.66
913.47
920.76
924.48
926.1
927.48
925.03
920.48
913.87
907.47
898.16
887.46
875.2
865.45
855.18
844.44
830.52
818.42
806.87
796.41
781.73
766.4
750.66
738.38
724.8
710.37
691.69
672.35
650.6
630.33
609.81
592.31
574.62
558.29
539.77
522.27
504.82
491.25
478.38
467.24
454.94
445.23
436.88
432.22
428.33
427.22
425.89
425.22
422.54
421.22
420.29
421.22
420.92
421.22
420.57
420.22
417.72
415.21
411.9
409.21
404.63
399.21
391.96
385.2
378.34
373.19
368.06
363.19
356.43
349.18
340.87
333.17
324.89
317.16
308.85
301.16
292.88
285.15
276.87
269.14
260.87
253.13
244.9
237.12
228.87
221.11
212.92
205.11
196.85
189.1
181.01
173.09
164.46
156.08
147.71
140.07
132.09
124.06
115.69
108.06
100.34
92.048
82.121
72.037
62.93
56.029
50.091
44.023
36.159
27.014
17.828
11.006
6.676
4.0021
1.4686
-1.8297e-17
-0.52829
-2.8746e-16
-0.19814
-1.5076e-17
-0.23197
-3.9286e-16
-0.59969
2.7782e-17
0.083027
-4.6342e-16
-1.1416
7.2499e-17
0.98609
-4.8588e-16
-3.4952
7.5846e-17
16.951
50.026
94.809
151.08
215.78
285.15
351.14
412.21
467.77
519.27
563.01
598.31
624.73
646.33
663.81
678.35
687.98
694.36
698.29
702.36
704.9
705.36
702.46
698.36
692.66
686.35
678.69
672.35
665.73
658.34
647.35
636.33
625.35
615.32
601.72
586.3
569.26
554.29
538.48
522.27
503.29
485.25
467.83
453.23
437.47
421.22
403.5
389.2
377.5
369.19
360.44
353.18
346.13
341.18
335.53
331.17
327.22
326.17
325.24
325.17
324.48
326.17
328.41
331.17
331.84
333.17
334.95
338.17
339.89
341.18
341.11
341.18
339.92
339.18
337.98
337.17
335
333.17
330.86
329.17
326.93
326.17
325.64
325.17
322.35
319.17
315.92
314.16
311.71
309.16
305.69
303.16
300.35
298.15
295.32
293.15
290.13
287.15
283.64
282.15
281.41
281.15
278.34
275.14
271.54
270.14
267.66
265.14
260.75
258.13
254.22
250.13
243.88
241.12
240.2
242.13
244.6
255.13
274.74
305.16
342.78
393.2
455.28
527.27
600.44
674.35
743.03
804.42
855.83
905.47
951.4
987.51
1005
1012.5
1017.4
1023.5
1024.7
1023.5
1022
1023.5
1023.5
1023.5
1022.6
1023.5
1022.5
1021.5
1017.8
1013.5
1005
995.51
983.23
972.5
960.02
948.49
934.83
923.48
911.35
900.47
886.15
871.45
853.16
834.43
812.77
793.41
774.04
756.39
735.24
714.37
693.17
676.35
659.59
644.33
627.6
614.32
602.5
594.31
585.33
578.3
570.99
566.29
560.54
556.29
551.99
551.29
550.61
550.28
546.95
544.28
541.15
539.28
535
530.27
523.84
518.27
511.13
504.26
496.19
489.25
481.16
473.24
463.78
455.24
445.95
437.23
427.33
419.22
412.4
408.21
403.04
397.21
389.61
383.2
376.27
369.19
360.36
353.18
347.35
343.18
337.37
331.17
323.95
317.16
309.26
302.16
295.13
289.15
282.62
277.14
271.21
265.14
257.37
251.13
245.64
241.12
233.45
225.12
216.41
211.11
205.73
201.1
194.61
190.1
186.03
185.1
184.67
189.1
199.54
222.11
254.86
299.15
352.37
417.22
487.57
559.29
626.63
693.36
756.11
810.42
848.89
877.45
901.52
925.48
943.6
955.49
960.78
964.5
966.06
967.5
966.25
963.5
956.97
949.49
940.06
931.48
921.25
911.47
899.77
889.46
878.19
868.45
856.86
846.44
834.64
824.43
812.26
800.41
785.39
770.4
753.45
738.38
721.58
704.36
683.11
662.34
641.28
623.32
604.26
586.3
568.02
554.29
542.17
532.28
520.66
511.26
502.72
497.26
491.43
488.25
485.62
485.25
484.08
485.25
486.72
489.25
489.12
489.25
488.82
489.25
486.78
483.25
478.33
475.25
471.96
469.24
464.4
459.24
453
448.23
442.82
437.23
429.7
423.22
417.17
412.21
405.08
397.21
388.88
383.2
377.83
372.19
364.28
357.18
350.65
345.18
338.13
331.17
323.8
317.16
309.38
302.16
295.02
289.15
282.8
277.14
271.11
265.14
257.33
249.13
240.58
233.12
225.11
217.11
209.05
203.11
198.16
193.1
185.55
177.09
169.03
163.08
157.67
152.08
145.08
138.07
131.65
127.07
122.16
116.06
107.66
100.05
93.005
87.045
79.216
72.037
65.576
62.032
57.067
51.026
43.435
40.021
39.921
44.023
50.507
66.034
93.449
136.07
189.63
254.13
325.94
404.21
482.41
558.29
627.19
689.36
741.66
785.41
819.33
846.44
866.22
881.46
891.93
900.47
905.5
907.47
904.73
900.47
894.91
889.46
881.14
871.45
859.87
849.44
837.54
825.43
811.1
798.41
785.08
772.4
756.89
742.38
727.49
714.37
698.51
682.35
664.83
650.34
635.8
622.32
606.07
590.31
573.83
560.29
546.59
534.28
520.15
507.26
493.92
483.25
472.93
465.24
457.33
451.23
444.65
440.23
435.78
433.22
430.23
429.22
428.35
429.22
428.98
429.22
428.56
429.22
428.57
427.22
423.71
421.22
418.36
415.21
409.42
404.21
399.84
397.21
392.75
387.2
379.9
373.19
366.31
361.19
356.14
351.18
344.11
337.17
330.39
325.17
319.43
314.16
308.27
303.16
297.72
293.15
287.52
281.15
273.38
267.14
261.91
257.13
249.93
242.13
235.21
231.12
226.9
221.11
213.11
206.11
200.3
195.1
188.18
181.09
174.77
170.09
164.86
159.08
152.95
148.08
143.34
138.07
131.17
124.06
117.39
112.06
106.93
102.05
96.5
91.047
85.094
80.041
74.777
70.036
64.163
59.031
53.1
48.025
42.467
39.02
35.037
31.016
25.433
24.012
28.752
43.022
63.923
94.049
134.48
189.1
252.74
322.17
394.26
472.24
549.84
618.32
670.37
713.37
753.1
790.41
818.4
838.43
853.05
865.45
872.77
876.45
876.76
875.45
870.37
863.45
854.75
846.44
836.44
826.43
815
804.42
792.23
780.4
766.79
754.39
740.9
728.38
713.49
698.36
680.27
662.34
643.25
627.32
612.55
600.31
585.66
570.29
553.02
538.28
523.11
508.26
491.28
477.25
465.25
456.24
445.87
437.23
429.65
425.22
420.03
416.22
413.03
413.21
413.21
413.21
410.82
409.21
407.97
409.21
409.59
409.21
406.34
404.21
402.13
401.21
399.05
397.21
394.51
392.2
388.31
384.2
378.73
373.19
366.03
359.19
352.64
348.18
343.17
337.17
329.11
322.17
316.18
311.16
304.29
297.15
290.5
286.15
281.25
275.14
267.39
261.14
255.38
249.13
240.7
233.12
226.79
221.11
213.56
206.11
199.32
193.1
185.14
177.09
169.89
164.08
157.56
151.08
145.03
140.07
134.39
128.07
121.16
115.06
109.27
104.05
98.82
94.049
88.772
83.043
76.819
72.037
68.638
66.034
61.287
55.028
48.159
44.023
40.806
38.02
33.374
30.016
26.74
24.012
18.843
15.008
13.511
18.009
27.001
44.023
69.479
107.06
154.83
214.11
281.8
357.18
433.64
508.26
577.19
642.33
700.58
750.39
788.89
820.42
845.65
865.45
877.93
887.46
894.67
899.47
898.89
896.46
892.73
887.46
877.14
865.45
853.91
844.44
833.2
822.43
810.94
800.41
786.92
773.4
758.87
746.39
732.23
718.37
702.12
686.35
668.13
650.34
631.07
614.32
597.88
584.3
570.38
558.29
544.27
530.27
514.89
503.26
493.26
485.25
475.16
467.24
461.3
459.24
456.07
453.23
449.76
449.23
448.75
449.23
448.33
449.23
450.42
453.23
454.59
456.24
456.46
457.24
456.8
457.24
456.42
455.24
451.87
449.23
446.18
443.23
437.67
432.22
427.37
425.22
422.55
419.22
413.55
408.21
402.29
397.21
391.46
387.2
382.93
379.2
373.93
369.19
363.95
359.19
353.22
348.18
342.76
337.17
329.62
323.17
318.19
315.16
310.6
305.16
298.93
294.15
288.91
283.15
275.75
269.14
263.05
258.13
252.46
247.13
241.65
237.12
231.71
226.12
219.29
213.11
206.45
201.1
195.13
190.1
183.97
179.09
173.13
168.09
161.97
158.08
154.09
152.08
150.78
156.08
168.48
191.1
221.41
263.14
314.79
377.2
444.67
516.27
585.98
652.34
711.6
766.4
813.02
850.44
877.4
901.47
922.93
939.49
946.25
949.49
952.45
955.49
952.89
947.49
941.04
935.48
926.55
916.47
905.23
895.46
884.01
873.45
861.48
849.44
833.71
818.42
803.04
790.41
775.94
761.39
744.93
730.38
713.97
696.36
674.33
652.34
628.91
606.31
581.68
559.29
537.91
519.27
499.32
481.25
464.35
451.23
437.44
424.22
410.55
401.21
394.55
391.2
386.83
383.2
379.12
377.2
374.53
372.19
368.73
367.19
365.84
365.19
362.83
361.19
359.63
359.19
356.79
353.18
347.79
343.18
338.32
334.17
329.39
325.17
319.61
313.16
305.37
299.15
293.96
289.15
281.92
274.14
267.26
263.14
258.86
253.13
244.98
237.12
229.72
223.12
215.79
209.11
202.86
197.1
189.65
181.09
172
164.08
156.2
148.08
139.41
132.07
125.83
120.06
113.16
106.05
98.938
92.048
84.194
76.039
67.736
60.031
52.803
47.024
41.846
36.019
28.184
20.01
12.588
7.0036
2.3437
-7.9951e-17
-0.8152
-2.7956e-16
-0.13557
-1.2654e-16
-0.46186
-2.9908e-16
-0.43189
-1.3435e-16
-0.20406
-3.0796e-16
-1.1233
-1.1915e-16
5.6951
22.011
50.7
94.049
147.78
209.11
273.57
341.18
407.57
469.24
521.4
566.29
605.09
639.33
665.81
685.35
698.93
710.37
719.02
725.38
728.35
730.38
731.01
730.38
726.27
720.37
713.02
706.37
698.55
690.36
679.65
668.35
655.5
644.33
632.99
622.32
608.96
595.31
580.24
566.29
550.39
534.28
516.65
501.26
486.02
472.24
457.49
445.23
433.79
424.22
413.03
403.21
394.41
389.2
383.85
379.2
373.79
371.19
369.44
369.19
367.56
367.19
367.15
369.19
370.64
373.19
375.57
379.2
380.82
381.2
380.05
381.2
383.09
385.2
384.96
385.2
385.21
385.2
382.86
381.2
379.94
379.2
376
373.19
371.63
372.19
370.58
367.19
362.78
361.19
360.62
360.19
357.46
355.18
353.49
353.18
351.32
349.18
347.04
347.18
346.84
345.18
339.97
334.17
327.81
323.17
317.72
313.16
307.39
303.16
298.27
295.15
290.18
285.15
277.77
273.14
270.52
273.14
277.93
289.15
307.08
337.17
376.99
428.22
486.82
554.29
625.08
697.36
763.81
825.43
880.36
931.48
972.56
1001.5
1015
1020.5
1021.6
1023.5
1023.4
1023.5
1022.6
1023.5
1023.2
1023.5
1022.6
1023.5
1023.2
1023.5
1022.3
1023.5
1022.7
1019.5
1010
1000.5
989.82
979.51
964
948.49
933.15
921.48
907.14
891.46
871.77
852.44
830.5
809.42
786.63
766.4
746.28
729.38
710.82
692.36
671.65
654.34
637.74
623.32
607.65
596.31
587.65
582.3
574.34
567.29
561.12
559.29
556.72
554.29
550.04
548.28
546.64
546.28
543.96
542.28
538.92
535.28
529.19
524.27
519.1
514.27
506.62
499.26
491.69
485.25
477.04
469.24
460.61
452.23
442.07
433.22
424.84
417.22
407.12
397.21
387.95
381.2
373.48
365.19
355.44
347.18
339.39
333.17
326.61
321.17
315.39
310.16
303.55
297.15
290.48
285.15
279.24
273.14
265.69
259.13
253.31
249.13
243.69
237.12
229.08
223.12
217.89
213.11
205.45
198.1
191.14
187.1
182
177.09
170.58
166.09
161.07
158.08
156.85
164.08
179.82
206.11
239.37
283.15
336.45
401.21
472.25
548.28
621.99
690.36
748.12
798.41
840.79
877.45
905.63
928.48
945.61
959.5
967.8
973.5
976.54
979.51
979.01
975.5
967.55
959.5
950.89
943.49
933.64
923.48
911.55
901.47
890.46
880.46
867.83
855.44
841.3
829.43
816.94
805.42
790.37
774.4
755.44
737.38
717.22
697.36
675.1
654.34
632.6
612.32
590.85
572.3
554.21
538.28
521.37
507.26
493.19
480.25
466.23
457.24
452.4
451.23
447.78
445.23
443.71
445.23
445.17
445.23
444.42
445.23
444.89
445.23
444.52
444.23
441.8
439.23
435.62
433.22
430.12
427.22
422.19
416.22
408.26
401.21
395.02
391.2
386.41
380.2
371.8
365.19
359.84
355.18
348.16
341.18
334.57
329.17
321.93
314.16
306.48
301.16
295.6
289.15
280.66
273.14
266.72
262.14
257.4
253.13
247.66
241.12
232.7
225.12
218.64
213.11
205.85
198.1
191.24
187.1
182.89
177.09
169.01
162.08
156.27
151.08
143.49
136.07
129.61
126.07
121.2
115.06
106.49
100.05
94.499
91.047
86.984
86.045
87.812
96.05
111.21
139.07
177.93
227.12
283.04
349.18
421.56
495.26
563.15
628.32
689.18
742.38
781.95
813.42
840.47
864.45
880.53
891.46
898.61
903.47
903.05
900.47
896.31
891.46
882.88
873.45
862.96
852.44
838.97
826.43
814.52
804.42
791.19
777.4
762.64
750.39
736.6
722.37
704.94
688.36
671.68
658.34
644.29
630.33
614.14
600.31
585.79
570.29
550.53
532.28
515.24
500.26
483.39
469.24
457.36
448.23
437.01
427.22
418.79
413.21
406.32
401.21
398.24
399.21
398.83
397.21
393.89
393.2
393.1
393.2
390.79
389.2
388.13
388.2
385.99
383.2
379.72
377.2
372.73
367.19
360.62
356.18
352.48
349.18
343.83
338.17
332.06
327.17
321.92
317.16
311.32
305.16
297.66
291.15
285.42
281.15
275.82
270.14
263.92
259.13
254.31
249.13
241.76
234.12
227.3
223.12
218.89
213.11
205.07
198.1
192.44
187.1
179.84
173.09
168.5
166.09
161.93
155.08
146.69
140.07
134.93
130.07
123.36
116.06
109.09
104.05
99.094
94.049
87.922
83.043
77.622
72.037
64.971
60.031
55.121
50.026
43.096
40.021
39.934
42.022
44.215
55.028
77.596
112.06
153.4
206.11
270.8
345.18
419.96
493.26
561.4
623.32
676.42
725.38
768.65
802.42
821.9
834.43
846.26
859.44
867.92
871.45
870.71
868.45
862.73
855.44
846.64
838.43
828.25
817.42
804.77
793.41
781.47
770.4
756.62
742.38
726.61
713.37
699.69
686.35
670.16
655.34
640.78
628.32
613.45
598.31
581.46
566.29
549.93
534.28
516.87
501.26
486.76
476.25
464.95
452.23
436.67
425.22
418.24
415.21
409.96
404.21
397.76
393.2
387.89
384.2
380.92
379.2
375.94
373.19
370.3
369.19
367.66
367.19
366.09
365.19
362.32
359.19
354.98
351.18
346.14
341.18
335.34
330.17
324.36
319.17
313.67
309.16
303.8
298.15
291.81
287.15
282.58
277.14
269.26
262.14
256.21
251.13
244.15
237.12
230.85
226.12
220.59
215.11
209.65
205.11
199.75
194.1
187.57
181.09
174.12
168.09
162.68
158.08
152.69
147.08
141.13
136.07
130.91
126.07
120.37
115.06
109.12
104.05
98.715
95.049
90.89
87.045
81.12
76.039
70.87
68.035
65.398
66.034
69.465
80.041
98.209
128.07
166.72
214.11
268.13
333.17
406.29
483.25
555.36
622.32
681.92
734.38
776.65
812.42
841.75
865.45
880.77
891.46
898.45
903.47
904.69
905.47
905.23
903.47
896.46
887.46
877.41
868.45
857.33
846.44
834.7
824.43
812.19
800.41
787
774.4
759.21
744.38
728.28
714.37
699.6
686.35
671.97
659.34
644.97
630.33
612.09
594.31
576.56
562.29
546.72
530.27
511.66
497.26
485.53
476.25
465.22
457.24
451.76
449.23
444.63
441.23
438.89
439.23
437.87
437.23
436.94
439.23
440.29
441.23
440.68
441.23
440.88
441.23
440.21
439.23
436.31
433.22
428.53
424.22
419.39
416.22
412.67
409.21
403.99
399.21
393.61
388.2
381.74
377.2
373.73
371.19
366.13
360.19
353.79
349.18
343.86
338.17
331.58
327.17
323.84
321.17
316.16
310.16
303.16
297.15
290.8
285.15
279.2
274.14
268.41
263.14
257.55
253.13
247.45
241.12
233.14
227.12
221.64
217.11
209.59
202.1
194.81
191.1
186.28
181.09
175.61
177.09
183.25
193.1
204.93
229.12
268.84
323.17
382.59
447.23
515.15
586.3
653.77
717.37
773.38
821.42
857.83
887.46
911.94
933.48
947.42
955.49
959.16
963.5
965.6
964.5
958.58
953.49
948.8
943.49
932.93
921.48
910.03
900.47
888.05
875.45
861.37
848.44
833.69
821.42
809.52
798.41
782.75
766.4
749.22
734.38
716.95
698.36
676.44
655.34
633.01
612.32
590.48
570.29
549.23
530.27
511.3
495.26
479.22
465.24
451.13
440.23
429.88
421.22
411.66
405.21
400.77
399.21
396.1
393.2
389.9
389.2
388.63
389.2
388.84
389.2
387.72
385.2
380.35
376.19
371.91
368.19
362.65
357.18
351.56
347.18
341.52
335.17
327.55
321.17
315.16
310.16
304.38
299.15
293.71
289.15
283.71
278.14
271.43
265.14
258.61
253.13
247.41
242.13
236.22
231.12
225.95
221.11
215.12
209.11
202.98
198.1
193.43
189.1
183.5
177.09
169.66
163.08
157.03
152.08
147.02
143.07
138.96
135.07
129.38
124.06
118.36
114.06
108.4
103.05
96.543
92.048
88.071
87.045
86.712
90.047
96.754
112.06
136.31
173.09
220.17
279.14
346.46
421.22
496.12
568.29
633.57
694.36
748.16
794.41
829.53
857.44
880.05
900.47
914.91
923.48
926.26
928.48
929.4
928.48
922.68
915.47
907.19
899.47
889.63
880.46
870.08
859.44
845.71
833.43
821.14
809.42
793.67
778.4
763.3
750.39
734.45
718.37
701.23
686.35
669.43
652.34
632.92
615.32
597.54
582.3
565.89
550.28
533.59
520.27
507.81
497.26
485.37
476.25
468.4
463.24
457.16
453.23
449.79
448.23
445.56
445.23
446.22
449.23
449.69
449.23
447.45
447.23
446.14
445.23
442.63
440.23
436.26
432.22
426.53
421.22
415.51
411.21
406
400.21
392.4
385.2
377.84
371.19
363.61
357.18
350.95
345.18
337.36
329.17
320.57
313.16
305.07
297.15
288.62
281.15
273.68
267.14
260.07
253.13
245.05
237.12
228.76
221.11
212.93
205.11
196.92
190.1
183.36
177.09
168.76
160.08
150.84
144.07
137.35
131.07
122.78
116.06
109.92
106.05
101.57
100.05
102.09
112.06
128.75
155.08
189.64
235.12
289.49
353.18
419.6
485.25
545.6
603.31
656.11
702.36
737.56
765.4
788.12
808.42
822.36
830.43
833.48
836.43
838.34
838.43
833.58
826.43
817.87
810.42
801.63
792.41
781.09
770.4
759.07
749.39
737.95
725.38
709.35
694.36
679.51
666.34
650.58
634.33
615.93
598.31
578.84
560.29
540.83
523.27
505.19
489.25
473.2
459.24
444.75
432.22
419.52
409.21
399.51
393.2
387.5
383.2
377.43
373.19
369.47
368.19
366.24
365.19
363.92
365.19
366.72
369.19
370.36
372.19
372.77
373.19
372.37
373.19
373.74
373.19
369.03
365.19
363.22
364.19
363.52
361.19
357.82
357.18
357.15
356.18
351.99
348.18
345.73
345.18
342.74
339.18
335.28
334.17
333.81
333.17
329.93
326.17
321.77
318.16
313.56
309.16
303.45
298.15
291.9
287.15
281.86
277.14
269.6
262.14
254.69
251.13
246.66
241.12
233.99
233.12
236.57
243.13
251.37
273.14
311.42
363.19
417.73
477.25
541.79
610.32
673.2
730.38
780.84
826.43
862.43
891.46
913.77
932.48
944.23
951.49
955.08
959.5
961.53
960.5
954.64
949.49
944.66
939.49
929.11
917.47
905.64
896.46
885.69
875.45
863.61
852.44
838.51
825.43
811.33
798.41
782.49
766.4
747.82
729.38
707.71
686.35
663.8
643.33
621.4
600.31
577.95
558.29
539.03
522.27
504.63
489.25
474.94
465.24
456.98
451.23
444.72
440.23
435.72
433.22
429.94
428.22
426.05
425.22
422.99
421.22
418.18
416.22
413.92
413.21
411.5
409.21
404.48
400.21
395.8
392.2
386.77
381.2
375.34
371.19
366.15
360.19
352.16
345.18
338.96
334.17
328.46
323.17
317.67
313.16
307.71
302.16
295.45
289.15
282.52
277.14
271.31
265.14
256.85
249.13
241.95
237.12
231.25
225.12
217.13
211.11
205.25
201.1
195.21
190.1
183.64
179.09
175.21
177.09
184.64
202.1
227.82
266.14
316.63
381.2
451.5
523.27
592.59
664.34
733.75
794.41
838.64
873.45
903.84
932.48
953.11
967.5
976.74
984.51
987.97
989.51
988.54
987.51
984.05
980.51
974.59
967.5
956.92
947.49
938.41
931.48
921.98
912.47
901.13
891.46
879.69
868.45
855.43
844.44
831.55
818.42
801.89
786.41
769.34
752.39
731.26
710.37
689.21
671.35
651.52
631.33
610.01
594.31
581.57
571.3
558.25
547.28
538.5
534.28
529
524.27
518.72
516.27
514.14
514.27
513.62
514.27
513.62
514.27
513.89
514.27
512.94
512.26
509.94
507.26
502.08
497.26
491.73
487.25
481.45
476.25
470.31
465.24
458.39
451.23
443.19
437.23
431.19
425.22
417.48
411.21
405.43
400.21
392.59
385.2
378.25
373.19
366.89
360.19
352.27
345.18
337.22
330.17
323.42
319.17
314.39
309.16
301.16
294.15
286.98
281.15
272.82
265.14
257.46
253.13
247.68
242.13
235.03
233.12
237.18
251.13
272.5
305.16
347.45
401.21
461.25
527.27
593.34
658.34
716.96
770.4
815.03
852.44
881.74
908.47
930.69
947.49
955.12
959.5
962.87
967.5
968.54
967.5
963.86
960.5
954.34
947.49
938.72
931.48
923.06
915.47
905.63
896.46
885.35
875.45
863.76
853.44
841.9
832.43
821.28
810.42
796.32
782.4
765.63
748.39
727.23
706.37
684.7
666.34
647.88
631.33
613.55
598.31
583.59
572.3
560.8
551.29
541.16
534.28
529.1
528.27
527.17
526.27
523.17
522.27
521.24
520.27
515.82
512.26
509.63
509.26
506.62
503.26
498.59
495.26
490.4
485.25
478.64
473.24
466.85
460.24
451.95
445.23
438.93
433.22
424.68
415.21
405.09
397.21
389.66
383.2
375.91
369.19
361.13
353.18
344.73
338.17
331.7
325.17
316.72
309.16
302.51
297.15
289.74
281.15
271.97
265.14
258.99
253.13
245.07
237.12
229.65
225.12
219.73
213.11
203.87
197.1
190.99
185.1
175.73
168.09
162.35
160.08
157.59
160.08
169.53
190.1
218.88
259.13
310.14
373.19
441.28
511.26
577.09
639.33
695.31
746.39
788.19
821.42
846.39
869.45
889.16
903.47
908.1
908.47
907.72
908.47
906.71
903.47
897.71
891.46
882.94
875.45
867.41
859.44
848.15
837.43
826.24
816.42
804.59
794.41
783.37
772.4
758.09
745.39
732.26
718.37
698.1
676.35
654.51
636.33
616.96
598.31
578.86
562.29
545.4
530.27
514.43
501.26
488.95
480.25
471.54
464.24
456.65
453.23
451.8
452.23
450.33
449.23
448.27
449.23
448.9
449.23
448.33
447.23
443.83
441.23
438.26
435.23
429.55
424.22
418.71
413.21
405.06
397.21
390.01
384.2
376.76
369.19
361.01
353.18
343.58
334.17
324.9
317.16
309.13
302.16
295.31
289.15
281.38
273.14
264.38
257.13
249.95
243.13
235.58
229.12
222.92
217.11
210.06
203.11
195.9
189.1
181.44
174.09
166.7
160.08
153.4
148.08
143.04
138.07
131.04
124.06
117.11
112.06
106.57
102.05
96.305
91.047
84.605
80.041
75.042
71.037
67.57
71.037
81.47
100.05
125.34
164.08
216.86
282.15
352.05
425.22
496.44
563.29
622.83
680.35
733.95
778.4
806.73
825.43
841.14
857.44
868.84
875.45
878.18
880.46
879.94
877.45
872.34
867.45
860.88
853.44
842.95
832.43
820.75
810.42
799.03
789.41
778.72
768.4
755.07
742.38
728.61
716.37
702.25
689.36
675.29
662.34
646.65
631.33
615.26
602.31
588.27
574.3
559.01
548.28
539.08
530.27
518.07
509.26
504.34
503.26
499.77
497.26
495.81
497.26
497.33
499.26
502.33
507.26
508.88
509.26
508.39
509.26
509.08
509.26
507.57
505.26
500.24
495.26
489.36
484.25
478.15
473.24
467.47
461.24
452.68
445.23
438.53
433.22
426.18
419.22
411.74
405.21
397.1
389.2
381.24
375.19
368.4
361.19
352.43
345.18
338.88
334.17
328.05
321.17
312.78
305.16
297.24
290.15
282.91
277.14
271.21
265.14
257.42
250.13
243.06
237.12
230.75
225.12
219.06
213.11
205.67
199.1
193.14
189.1
183.44
177.09
169.05
163.08
157.12
152.08
144.96
139.07
133.42
131.07
130.37
136.07
149.2
174.09
207.64
251.13
303.67
369.19
442.01
516.27
584.02
647.33
704.46
754.39
792.81
824.43
850.62
872.45
886.12
895.46
901.97
907.47
908.56
907.47
903.98
899.47
891.55
883.46
875
867.45
857.12
846.44
834.62
824.43
812.36
800.41
786.61
774.4
761
748.39
733.31
718.37
700.5
682.35
662.14
644.33
626.58
610.32
591.73
574.3
556.4
540.28
522.18
505.26
488.96
477.25
466.97
459.24
451
445.23
439.96
437.23
434.21
433.22
432.29
433.22
432.98
433.22
432.45
433.22
433.2
433.22
431.09
429.22
426.47
424.22
420.28
416.22
410.73
405.21
397.99
391.2
384.67
380.2
375.12
369.19
360.94
353.18
345.62
339.18
331.81
325.17
318.64
313.16
306.35
299.15
291.32
285.15
279.37
274.14
267.58
261.14
254.51
249.13
243.53
238.12
231.57
225.12
218.5
213.11
207.38
201.1
193.55
187.1
181.72
177.09
170.92
164.08
157.04
151.08
145.23
140.07
134.85
130.07
124.45
119.06
113.1
108.06
102.56
98.051
92.407
87.045
80.52
76.039
72.199
70.036
65.843
62.032
59.478
64.033
75.411
96.05
125.2
168.09
224.37
293.15
365.91
439.23
509.39
578.3
642.06
698.36
742.45
777.4
805.35
830.43
849.92
863.45
869.71
873.45
876.14
879.45
879.33
875.45
867.6
860.45
853.34
846.44
836.47
826.43
815.46
805.42
793.02
781.4
769.11
758.39
745.27
732.38
717.95
705.36
691.45
678.35
662.43
646.33
628.68
614.32
600.04
586.3
569.86
556.29
544.49
535.28
523.8
514.27
506.59
503.26
499.53
497.26
494.32
493.26
491.74
493.26
495.51
499.26
501.32
505.26
509.5
514.27
515.5
516.27
516.53
518.27
517.81
516.27
512.29
508.26
502.47
497.26
491.64
487.25
480.86
473.24
463.97
457.24
451.81
447.23
440.13
433.22
426.49
421.22
414.28
407.21
399.45
393.2
386.65
381.2
375.03
369.19
362.12
356.18
350.4
345.18
337.57
329.17
320.69
315.16
310.31
305.16
297.36
290.15
283.7
279.14
272.53
265.14
256.36
250.13
244.07
239.12
231.78
225.12
218.06
214.11
210.32
209.11
209.43
217.11
232.4
259.13
295.12
343.18
400.04
465.24
531.81
598.31
660.1
718.37
769.57
814.42
849.26
876.45
896.21
913.47
926.43
935.48
938.6
940.49
940.98
940.49
934.99
927.48
918.93
912.47
904.68
896.46
885.67
875.45
863.85
853.44
841.24
829.43
815.35
802.42
788.53
776.4
762.62
749.39
733.79
718.37
699.52
679.35
656.07
634.33
611.97
590.31
565.99
543.28
521.49
503.26
485.02
469.24
453.92
441.23
428.08
417.22
407.39
401.21
395.38
391.2
386.79
385.2
384.37
385.2
384.84
385.2
384.32
383.2
379.93
377.2
374.09
371.19
365.9
360.19
354.09
349.18
343.34
337.17
329.32
321.17
312.43
305.16
297.61
289.15
278.86
270.14
263.18
257.13
249.2
241.12
233.11
225.12
215.1
205.11
196.19
189.1
181.9
175.09
167.92
160.08
150.2
140.07
130.55
122.06
112.95
104.05
96.123
90.047
83.751
76.039
65.978
56.029
47.027
40.021
32.271
24.012
14.704
8.0041
3.7916
3.0016
1.5565
-4.0088e-16
-1.7511
-5.9036e-17
1.7189
2.001
1.6529
12.006
39.247
84.043
138.14
199.1
264.75
335.17
404.37
469.24
525.85
575.3
616.78
652.34
680.58
702.36
716.58
726.38
733.39
740.38
745
746.39
743.94
741.38
738.29
733.38
724.13
714.37
705.26
697.36
686.63
675.35
663.79
654.34
643.17
631.33
616.8
602.31
585.8
570.29
553.99
539.28
523.48
509.26
494.37
481.25
467.52
456.24
445.33
437.23
429.58
425.22
421.63
420.22
417.81
417.22
417.39
421.22
425.81
432.22
437.43
443.23
447.69
453.23
457.95
463.24
466.21
468.24
468.15
469.24
470.64
473.24
473.21
471.24
467.17
465.24
464.42
464.24
460.83
456.24
451.36
449.23
446.75
443.23
437.11
432.22
428.14
425.22
420.52
416.22
411.74
408.21
402.83
397.21
390.7
385.2
378.42
372.19
365.66
361.19
355.36
349.18
340.98
335.17
329.58
325.17
317.69
311.16
305.19
303.16
299.79
297.15
296.4
306.16
323.96
349.18
379.74
425.22
485.04
554.29
620.71
685.35
747.07
806.42
856.84
901.47
939.36
971.5
992.77
1007.5
1016.7
1023.5
1024.4
1023.5
1022.1
1023.5
1023.6
1023.5
1022.1
1023.5
1024.2
1023.5
1016.5
1007.5
996.64
988.51
979.38
971.5
961.05
951.49
940.51
932.48
922.63
911.47
895.11
879.45
862.14
844.44
822.25
802.42
784.36
769.4
750.78
732.38
713.61
698.36
682.09
668.35
655.56
647.33
639.45
634.33
628.94
626.32
623.44
623.32
622.48
622.32
619.12
616.32
612.7
611.32
608.76
606.31
600.92
595.31
588.14
582.3
574.71
566.29
555.39
546.28
537.8
530.27
519.9
509.26
497.97
488.25
477.41
467.24
455.93
445.23
433.84
425.22
417.98
412.21
404.51
397.21
389.63
383.2
375.61
369.19
362.74
357.18
349.86
343.18
335.76
329.17
320.57
313.16
305.94
301.16
294.31
287.15
278.53
273.14
267.41
262.14
256.06
257.13
265.24
281.15
301.36
333.17
377.75
435.23
497.09
562.29
625.12
684.35
736.82
788.41
836.11
875.45
899.86
917.47
933.35
949.49
958.79
963.5
965.4
968.5
968.99
968.5
965.82
963.5
958.25
952.49
945
939.49
933.04
927.48
919.2
911.47
902.31
895.46
887.22
879.45
868.24
857.44
845.47
836.43
825.81
814.42
798.12
781.4
762.41
744.38
724.19
706.37
688.92
674.35
658.34
644.33
630.99
622.32
614.82
610.32
605.21
602.31
599.03
598.31
596.84
596.31
593.45
591.31
588.04
586.3
582.87
579.3
572.89
566.29
557.9
550.28
541.05
532.28
522.88
516.27
510.35
505.26
497.49
489.25
479.75
471.24
461.69
453.23
444.53
437.23
428.92
421.22
412.67
405.21
396.89
389.2
380.69
373.19
364.95
357.18
348.61
341.18
333.13
325.17
316.23
309.16
302.9
297.15
289.06
281.15
273.87
269.14
263.39
257.13
248.63
241.12
232.64
225.12
216.22
209.11
201.39
195.1
188.16
185.1
184.98
191.1
202.74
226.12
261.16
309.16
364.69
428.22
495.29
564.29
628.17
686.35
735.39
777.4
811.27
841.44
866.66
887.46
899.97
907.47
911.22
915.47
918.04
919.48
916.89
912.47
905.49
899.47
892.83
887.46
880.86
875.45
867.85
859.44
847.99
838.43
829.1
821.42
810.76
800.41
788.72
778.4
764.79
750.39
733.56
718.37
700.77
682.35
660.95
642.33
624.97
610.32
593.45
578.3
565.37
559.29
554.87
551.29
545.3
542.28
540.93
542.28
542.2
544.28
546.74
550.28
550.7
551.29
551.01
551.29
548.69
546.28
542.85
539.28
532.58
526.27
519.95
514.27
505.69
497.26
489.53
484.25
477.37
469.24
458.77
449.23
440.11
433.22
425.52
417.22
407.2
399.21
392.07
385.2
375.26
365.19
355.93
349.18
341.47
333.17
324.06
317.16
310.97
305.16
297.28
289.15
280.62
273.14
265
257.13
248.64
241.12
234.16
229.12
223.64
217.11
208.37
201.1
194.72
189.1
180.87
173.09
165.31
159.08
150.99
144.07
137.71
134.07
129.39
126.07
123.88
128.07
139.32
163.08
199.01
249.13
309.06
377.2
445.71
512.26
574.97
638.33
697.46
746.39
779.5
804.42
826.16
846.44
859.52
867.45
872.08
876.45
877.37
876.45
873.74
871.45
866.34
859.44
850.19
842.44
834.24
826.43
815.76
805.42
794.1
784.41
772.95
762.39
750.84
741.38
730.63
720.37
707.27
694.36
679.65
666.34
650.82
634.33
613.84
594.31
576
562.29
547.76
532.28
514.41
501.26
492.8
489.25
484.19
479.25
474.29
473.24
472.5
472.24
469.96
469.24
468.56
469.24
468.67
469.24
468.68
467.24
462.38
457.24
451.16
445.23
437.82
432.22
427.11
421.22
411.3
401.21
392.35
385.2
375.71
365.19
354.25
345.18
336.41
329.17
321.57
313.16
302.03
291.15
281.22
273.14
264.75
257.13
249.24
241.12
231.35
222.11
213.4
205.11
195.15
185.1
175.76
168.09
160.16
152.08
143.45
135.07
125.81
116.06
105.68
96.05
87.042
79.041
70.944
63.033
55.142
48.025
40.499
32.017
22.439
14.007
7.6797
4.0021
1.2508
-1.5287e-16
-0.68477
-2.2905e-16
-0.13509
-1.8494e-16
-0.58016
-2.5379e-16
-0.19894
-1.8539e-16
-0.69812
-2.546e-16
0.17171
-1.7801e-16
-2.2008
-2.4457e-16
14.675
52.027
111.08
185.1
262.04
337.17
407.53
473.24
529.85
576.3
612.49
643.33
669.31
690.36
703.84
712.37
717.66
722.37
725.14
726.38
724.55
720.37
713.46
706.37
698.62
690.36
679.41
668.35
657.04
647.33
636.52
626.32
614.75
603.31
589.02
574.3
557.81
542.28
524.98
508.26
490.81
476.25
462.05
449.23
434.21
420.22
407.22
399.21
393
389.2
385.34
385.2
386.9
391.2
394.87
401.21
409.05
419.22
427.41
435.23
441.73
449.23
454.94
460.24
463.89
468.24
471.06
473.24
473.15
473.24
472.26
471.24
468.16
465.24
461.86
459.24
454.32
448.23
441.26
437.23
434.19
431.22
425.47
420.22
415.8
413.21
408.69
403.21
396.68
392.2
388.11
385.2
381.7
379.2
375.48
371.19
365.35
361.19
357.82
355.18
349.95
344.18
337.81
333.17
327.16
321.17
313.47
307.16
299.65
293.15
285.12
279.14
273.56
271.14
267.54
265.14
264.63
274.14
292.14
319.17
352.97
401.21
462.07
531.27
598.27
664.34
727.33
786.41
834.86
876.45
911.92
943.49
966.3
983.51
995.4
1005.5
1011.5
1016.5
1019
1019.5
1014.7
1008.5
1001.7
997.52
992.35
987.51
979.68
971.5
960.94
952.49
943.46
935.48
924.16
913.47
901.81
892.46
880.41
867.45
850.34
833.43
814.26
796.41
776.61
758.39
738.87
721.37
702.19
684.35
665.57
650.34
635.77
624.32
613.1
606.31
601.03
598.31
593.57
590.31
587.25
587.3
586.38
586.3
584.69
584.3
581.92
579.3
574.38
570.29
564.48
558.29
549.7
542.28
534.28
526.27
515.39
505.26
495.99
489.25
481.25
473.24
464.39
457.24
449.17
441.23
432.19
425.22
418.78
413.21
405.36
397.21
388.41
381.2
373.15
365.19
356.29
349.18
342.67
337.17
329.66
321.17
311.93
305.16
299.18
293.15
284.92
277.14
269.71
263.14
255.56
249.13
242.9
237.12
229.5
223.12
217.43
213.11
205.87
198.1
190
185.1
179.21
173.09
165.95
163.08
161.19
160.08
160.15
173.09
202.2
246.13
295.92
353.18
417.61
489.25
559.75
627.32
688.12
742.38
786.11
822.43
851.57
876.45
894.59
908.47
917.22
923.48
925.92
927.48
926.57
924.48
919.67
915.47
909.96
903.47
893.48
884.46
875.45
867.45
856.44
846.44
836.48
828.43
817.36
806.42
794.48
784.41
770.56
754.39
734.92
718.37
701.83
685.35
664.39
644.33
625.3
610.32
594.18
579.3
564.78
555.29
547.38
542.28
536.77
534.28
531.91
531.27
529.43
530.27
531.79
535.28
537.09
540.28
543
546.28
546.43
546.28
544.72
543.28
538.93
534.28
528.41
523.27
517.01
512.26
506.98
501.26
492.84
485.25
477.41
469.24
458.36
449.23
442.32
437.23
428.93
419.22
409.06
401.21
392.96
385.2
376.68
369.19
360.88
353.18
344.8
337.17
328.79
321.17
312.91
305.16
296.64
289.15
281.67
275.14
267.97
261.14
253.21
245.13
236.37
229.12
222.74
217.11
209.87
202.1
194.53
189.1
183.55
177.09
168.8
162.08
156.25
151.08
143.38
136.07
129.05
124.06
117.4
111.06
104.29
100.05
95.037
91.047
88.395
94.049
109.01
136.07
173.01
223.12
284.24
355.18
428.38
501.26
568.54
630.33
684.62
734.38
776.68
810.42
833.11
850.44
864.69
877.45
884.57
887.46
886.68
885.46
881.98
877.45
870.52
863.45
854.46
845.44
834.55
824.43
812.94
802.42
790.62
780.4
768.46
756.39
742.07
730.38
718.98
708.37
694.07
680.35
666.34
654.34
640.08
626.32
610.45
594.31
575.2
558.29
542.77
530.27
516.6
505.26
495.38
489.25
483.1
479.25
475.43
473.24
469.96
469.24
469.97
473.24
474.8
476.25
476.26
477.25
476.79
476.25
472.91
468.24
461.65
457.24
453.94
451.23
445.04
437.23
428.38
421.22
413.31
405.21
396.16
389.2
382.95
377.2
369.26
361.19
352.66
345.18
336.88
329.17
320.87
313.16
305.13
299.15
294.04
289.15
281.58
273.14
264.46
257.13
249.14
241.12
232.8
226.12
220.2
215.11
208.59
201.1
192.84
186.1
179.83
173.09
164.35
156.08
149.81
146.08
141.6
135.07
126.86
120.06
114.85
110.06
103.41
96.05
89.107
84.043
79.032
74.038
68.05
63.033
57.391
52.027
45.412
40.021
33.578
27.014
19.471
16.008
15.566
18.009
20.977
31.016
51.032
84.043
127.67
185.1
253.98
331.17
408.76
485.25
556.07
619.32
672.69
721.37
764.45
798.41
818.28
830.43
840.87
852.44
860.07
863.45
862.77
860.45
854.52
846.44
836.2
826.43
815.61
805.42
794.27
784.41
773.34
762.39
748.51
734.38
718.78
705.36
691.41
678.35
662.46
646.33
628.1
611.32
593.78
578.3
561.99
547.28
531.75
518.27
503.48
489.25
474.47
464.24
455.71
448.23
438.74
433.22
431.32
432.22
430.3
429.22
429.65
433.22
435.89
440.23
445.32
451.23
453.18
453.23
452.07
452.23
450.43
447.23
441.84
437.23
432.04
427.22
421.23
416.22
410.77
405.21
397.31
389.2
380.68
373.19
364.85
357.18
349.52
343.18
336.12
329.17
321.01
313.16
304.7
297.15
289.06
281.15
272.43
265.14
258.68
253.13
245.69
237.12
228.02
221.11
215.12
209.11
201.09
193.1
186.07
181.09
175.93
170.09
162.89
156.08
149.62
144.07
138.14
132.07
125.34
119.06
113.08
108.06
103
98.051
92.431
87.045
81.247
76.039
70.778
67.035
63.019
59.031
53.058
48.025
43.75
42.022
38.721
34.018
27.173
24.012
25.369
34.018
48.798
74.038
109.21
156.08
212.86
282.15
358.81
437.23
509.83
578.3
641.32
697.36
741.47
777.4
807.71
834.43
853.03
864.45
870.34
875.45
878.51
879.45
876.53
872.45
866.49
859.44
849.12
838.43
827.14
817.42
806.46
796.41
785.08
774.4
761.25
748.39
733.31
718.37
701.26
686.35
671.59
658.34
642.18
626.32
609.32
594.31
578
563.29
547.78
534.28
520.25
509.26
498.9
491.25
483.79
480.25
477.84
477.25
475.33
476.25
478.12
481.25
482.16
485.25
489.69
495.26
496.75
497.26
497.84
501.26
503.57
505.26
504.45
503.26
500
497.26
493.91
491.25
486.3
480.25
472.16
465.24
459.07
455.24
450.32
444.23
435.85
429.22
423.7
419.22
412.32
405.21
398.11
393.2
388.03
383.2
376.52
369.19
360.39
353.18
346.7
341.18
333.95
327.17
321.14
317.16
311.91
305.16
296.47
289.15
282.74
277.14
269.73
262.14
255.29
251.13
246.83
241.12
233.12
226.12
220.28
215.11
208.15
201.1
194.7
190.1
184.73
179.09
172.77
168.09
162.45
156.08
147.33
140.07
133.18
128.07
122.02
118.06
113.74
110.06
105.67
108.06
119.7
143.07
173.42
213.11
262.5
325.17
396.45
473.24
547.05
615.32
675.14
730.38
779.09
820.42
850.61
873.45
890.17
903.47
911.28
916.47
919.26
921.48
919.92
915.47
907.57
899.47
889.87
880.46
869.44
859.44
848.07
836.43
821.38
806.42
790.99
778.4
764.52
750.39
733.59
718.37
702.24
686.35
666.99
648.34
629.84
614.32
596.86
578.3
556.47
536.28
516.91
501.26
486.07
473.24
459.8
448.23
436.92
429.22
422.31
417.22
411.62
409.21
407.82
407.21
403.71
401.21
400.47
403.21
404.68
405.21
404.32
405.21
405.1
403.21
397.58
392.2
387.79
385.2
380.76
375.19
368.76
364.19
359.2
353.18
344.83
337.17
329.86
323.17
315.5
309.16
303.24
297.15
288.82
281.15
274.64
269.14
261.73
254.13
247.05
241.12
233.57
225.12
216.35
209.11
201.99
195.1
187.71
181.09
174.52
168.09
160.36
152.08
143.5
136.07
128.98
122.06
114.67
108.06
101.98
96.05
88.563
80.041
71.309
64.033
57.736
52.027
45.799
40.021
34.495
30.016
24.918
20.01
14.306
10.005
6.0578
4.0021
1.4303
-3.3474e-16
-1.2959
-1.8792e-16
0.4444
-3.3059e-16
-1.6273
4.0021
21.822
56.029
102.43
160.08
226.03
301.16
380.37
460.24
534.49
602.31
660.66
710.37
750.47
784.41
811.49
832.43
845.8
855.44
862.25
867.45
868.59
867.45
864.01
859.44
851.32
841.44
830.16
820.42
809.64
798.41
784.75
772.4
759.85
748.39
733.75
718.37
701.28
686.35
670.28
654.34
635.63
618.32
601.03
586.3
570.04
554.29
537.01
522.27
507.88
496.26
484.38
475.25
466.67
461.24
455.73
452.23
448.36
447.23
446.77
449.23
451.71
456.24
460.6
467.24
473.7
481.25
486.84
492.25
495.92
500.26
503.01
505.26
504.9
504.26
501.92
499.26
494.22
489.25
483.87
480.25
476.11
472.24
466.59
461.24
455.43
451.23
446.07
440.23
432.12
425.22
419.26
415.21
409.79
404.21
397.86
393.2
388.17
383.2
376.14
369.19
362.14
357.18
352.19
347.18
340.09
333.17
326.33
321.17
315.33
309.16
301.6
295.15
289.42
285.15
279.83
274.14
267.82
263.14
258.39
253.13
245.44
238.12
231.47
227.12
222
217.11
210.91
206.11
200.22
195.1
188.89
185.1
181.08
178.09
173.68
173.09
176.87
189.1
208.07
238.12
278.4
331.17
392.13
461.24
532.58
604.31
670.92
733.38
787.95
834.43
869.43
897.46
920.05
940.49
954.78
963.5
966.32
968.5
969.19
968.5
962.86
955.49
947.03
940.49
932.61
924.48
913.73
903.47
891.76
881.46
869.33
857.44
843.15
830.43
816.87
804.42
789.18
774.4
757.93
742.38
723.73
704.36
681.91
660.34
637.95
618.32
598.23
579.3
558.36
539.28
520.57
505.26
490.63
479.25
467.61
457.24
446.65
441.23
439.28
440.23
438.62
437.23
435.97
437.23
437.17
437.23
436.36
437.23
437.25
437.23
434.67
431.22
425.58
420.22
414.18
409.21
403.82
399.21
392.82
385.2
376.1
369.19
363.22
357.18
348.72
341.18
334.72
329.17
321.54
314.16
307.25
301.16
293.07
285.15
278.19
273.14
266.66
259.13
251.09
245.13
239.36
233.12
225.44
219.11
213.91
209.11
201.95
194.1
187.23
183.09
178.88
173.09
165.19
158.08
152.12
147.08
141.35
136.07
131
126.07
120.12
115.06
111.09
108.06
103.29
98.051
92.112
87.045
80.991
76.039
70.572
66.034
60.808
58.03
54.992
52.027
48.363
51.026
60.685
78.04
100.83
136.07
185.81
249.13
317
388.2
461.62
538.28
610.61
674.35
725.58
768.4
803.89
834.43
857.05
873.45
884.75
895.46
903.46
907.47
905.34
901.47
896.65
891.46
882.28
871.45
859.49
849.44
838.51
828.43
817
806.42
793.36
780.4
765.88
753.39
739.71
726.38
710.04
694.36
677.51
662.34
645.63
630.33
613.89
599.31
584.33
572.3
559.36
546.28
530.64
518.27
508.23
501.26
492.47
485.25
478.82
475.25
470.49
467.24
464.63
465.24
465.54
467.24
468.69
472.24
474.75
477.25
477.81
479.25
479.47
479.25
476.17
473.24
470.07
468.24
464.59
460.24
454.24
449.23
443.79
439.23
433.53
428.22
422.15
417.22
411.3
405.21
397.88
392.2
386.64
381.2
373.93
368.19
363.71
360.19
353.51
345.18
336.34
330.17
324.58
319.17
311.97
305.16
298.73
294.15
288.99
283.15
275.66
269.14
263.2
258.13
251.71
245.13
238.41
233.12
227.65
222.11
215.42
209.11
202.7
197.1
191.22
186.1
180.47
175.09
168.95
164.08
158.86
154.08
147.88
143.07
137.53
132.07
124.44
119.06
115.25
114.06
111.5
112.06
119
138.07
164.56
197.1
235.64
289.15
356.85
433.22
507.17
578.3
644.93
706.37
756.75
798.41
832.15
860.45
880.56
895.46
905.35
912.47
915.4
917.47
917.61
915.47
908.11
899.47
890.7
883.46
873.84
863.45
851.34
840.43
828.04
816.42
803.14
790.41
775.15
760.39
744.46
730.38
714.53
698.36
679.03
660.34
640.83
623.32
604.44
586.3
566.55
548.28
529.01
511.26
492.97
477.25
461.43
447.23
432.32
420.22
409.26
401.21
393.25
388.2
384.47
383.2
380.28
377.2
373.63
373.19
373.2
373.19
370.72
369.19
368.18
368.19
365.96
363.19
359.74
357.18
352.99
348.18
342.81
339.18
334.87
329.17
321.11
314.16
308.3
303.16
296.12
289.15
282.63
277.14
270.27
263.14
255.76
249.13
241.54
234.12
226.92
221.11
215.17
209.11
201.49
193.1
184.25
177.09
170.72
164.08
155.86
148.08
141.24
135.07
127.73
120.06
112.15
104.05
94.82
86.045
78.442
72.037
65.127
58.03
50.895
44.023
36.286
28.014
19.527
12.006
5.8337
2.001
0.23067
-1.46e-16
-0.13426
-3.6749e-17
-0.1569
-2.6199e-16
-0.37731
-3.1388e-17
-0.098984
-3.7177e-16
-0.69045
2.0772e-17
0.179
-4.6355e-16
-1.2548
8.8808e-17
1.1567
-5.2255e-16
-3.8117
1.3994e-16
18.084
52.027
96.298
151.08
214.83
285.15
354.21
419.22
476.67
526.27
566.78
602.31
633.04
658.34
675.57
688.36
698.28
706.37
710.84
714.37
716.8
717.37
714.06
710.37
707.34
704.36
697.34
688.36
678.65
670.35
659.85
648.34
635.46
624.32
611.81
598.31
581.93
566.29
549.29
531.27
509.63
489.25
471.12
457.24
442.7
428.22
413.07
401.21
390.13
380.2
368.73
359.19
350.78
345.18
339.31
335.17
331.45
330.17
328.91
329.17
328.77
329.17
329.02
331.17
333.94
337.17
337.8
338.17
338.62
341.18
343.27
345.18
345.17
345.18
344.57
345.18
345.26
345.18
343.07
341.18
339.92
341.18
341.91
341.18
337.73
335.17
333.6
333.17
331.08
329.17
327.54
327.17
325.11
322.17
318.55
317.16
316.74
317.16
315.91
314.16
311.21
309.16
306.6
305.16
303.04
302.16
299.74
297.15
291.6
286.15
279.41
275.14
270.95
269.14
266.22
265.14
265.28
273.14
289.14
317.16
354.3
403.21
460.8
528.27
599.96
674.35
743.46
806.42
861.31
913.47
958.19
991.51
1007.9
1015.5
1019.2
1023.5
1024
1023.5
1022.3
1023.5
1023.3
1023.5
1022.6
1023.5
1023
1023.5
1022.8
1023.5
1020.9
1015.5
1004.4
993.51
981.9
972.5
960.03
947.49
932.9
920.48
906.02
891.46
873.23
855.44
835.48
816.42
794.56
773.4
750.58
730.38
710.19
693.36
675.93
660.34
643.66
630.33
617.78
608.31
598.02
590.31
582.9
578.3
572.51
568.29
564.05
563.29
562.38
562.29
559.89
558.29
555.24
552.29
546.79
542.28
537.94
535.28
529.77
522.27
512.51
505.26
498.96
493.26
484.47
475.25
465.42
457.24
448.56
441.23
433.23
425.22
414.9
405.21
395.83
388.2
379.66
372.19
365.5
361.19
355.78
349.18
340.48
333.17
326.67
321.17
313.71
306.16
299.24
295.15
290.81
285.15
277.09
270.14
264.17
259.13
252.13
245.13
238.19
233.12
226.44
219.11
210.61
205.11
199.56
194.1
186.82
183.09
180.22
177.09
171.15
171.09
178.82
195.1
216.07
249.13
296.12
356.18
420.43
489.25
559.87
630.33
692.69
748.39
797.28
841.44
876.22
903.47
923.31
939.49
949.57
955.49
957.27
959.5
960.6
960.5
955.72
949.49
941.93
935.48
926.72
917.47
906.26
896.46
885.41
875.45
863.83
853.44
841.16
829.43
815.33
802.42
788.5
776.4
761.88
746.39
726.6
706.37
684.01
663.34
642.03
623.32
604.02
586.3
567.2
550.28
533.19
518.27
502.38
489.25
478.02
472.24
468.35
467.24
465.37
465.24
464.42
465.24
465.58
468.24
470.5
473.24
473.82
475.25
476.06
477.25
475.54
473.24
470.06
468.24
464.74
460.24
453.96
449.23
444.35
439.23
431.78
425.22
418.97
413.21
405.09
397.21
389.76
384.2
378.18
373.19
367.48
361.19
352.63
345.18
338.71
333.17
325.54
318.16
311.73
307.16
300.84
293.15
284.56
278.14
272.52
267.14
260.02
253.13
246.57
241.12
234.45
227.12
219.26
213.11
207.19
201.1
192.96
185.1
177.78
173.09
167.82
162.08
154.24
148.08
141.66
136.07
129.45
126.07
123.02
120.06
116.06
120.06
134.3
159.08
189.51
231.12
285.75
353.18
424.08
496.26
566.56
635.33
696.87
750.39
792.67
826.43
852.86
877.45
897.76
911.47
915.53
916.47
917.45
919.48
917.16
911.47
903.11
895.46
886.08
876.45
865.29
855.44
844.23
833.43
820.72
809.42
797.26
786.41
773.23
760.39
746.02
733.38
718.46
702.36
682.6
664.34
646.31
630.33
612.03
594.31
575.44
558.29
539.84
523.27
506.74
493.26
480.73
472.24
464
456.24
446.71
441.23
439.16
440.23
438.73
437.23
435.84
437.23
437.87
439.23
439.72
441.23
441.11
441.23
440.36
440.23
438.18
435.23
430.05
425.22
419.79
415.21
409.53
404.21
398.23
393.2
387.2
381.2
374.11
368.19
362.34
357.18
350.3
343.18
335.97
331.17
326.52
321.17
313.12
305.16
297.53
291.15
283.88
277.14
270.62
265.14
258.39
251.13
243.34
237.12
231.37
226.12
219.65
213.11
206.47
201.1
195.45
189.1
180.99
173.09
165.87
160.08
154.11
148.08
141.37
135.07
128.98
124.06
119.07
114.06
108.12
103.05
97.593
92.048
84.587
78.04
71.745
67.035
60.976
56.029
51.656
50.026
47.034
44.023
42.775
52.027
73.011
106.05
147.02
199.1
261.38
333.17
407.92
484.25
556.96
623.32
678.75
726.38
766.53
800.41
825.57
845.44
860.48
871.45
875.42
875.45
873.57
872.45
869.1
863.45
854.53
845.44
835.03
824.43
811.31
798.41
784.63
772.4
758.71
745.39
729.71
714.37
697.42
682.35
666.68
652.34
636.44
622.32
607.74
594.31
578.24
562.29
545.21
530.27
514.37
499.26
482.98
469.24
456.03
445.23
434.62
427.22
420.05
413.21
404.05
397.21
392.67
391.2
388.17
385.2
381.96
381.2
380.53
381.2
381.08
381.2
379.25
377.2
374.23
372.19
369.39
367.19
364.11
361.19
356.47
351.18
344.67
339.18
333.75
329.17
323.57
318.16
312.19
307.16
301.83
297.15
291.64
286.15
279.48
273.14
266.59
261.14
255.41
250.13
244.25
239.12
233.86
229.12
223.55
218.11
212.24
207.11
201.87
197.1
191.4
185.1
177.74
171.09
165.03
160.08
154.97
150.08
144.62
139.07
133.03
128.07
124.46
122.06
117.92
111.06
102.43
96.05
92.402
90.047
85.228
79.041
72.439
68.035
63.165
58.03
51.463
47.024
42.957
40.021
36.433
36.019
36.663
39.02
43.65
60.031
90.454
134.07
184.98
246.13
316.46
393.2
467.95
540.28
607.52
668.35
718.69
762.39
799.82
830.43
850.18
863.45
873.61
883.46
889.29
891.46
889.42
885.46
878.56
871.45
863.95
857.44
848.05
836.43
822.2
810.42
799.23
788.41
773.49
758.39
743.01
730.38
716.33
702.36
685.17
667.35
647.3
630.33
615
602.31
586.69
570.29
552.62
538.28
524.1
511.26
497.54
487.25
477.71
469.24
458.98
452.23
448.28
447.23
443.93
441.23
438.39
437.23
434.91
435.23
437.29
441.23
442.43
443.23
443.52
445.23
445.21
445.23
444.37
444.23
442
439.23
435.44
433.22
430.41
427.22
421.66
416.22
410.23
405.21
399.53
395.2
390.89
387.2
381.99
377.2
371.91
367.19
361.29
356.18
350.7
345.18
337.51
330.17
323.58
319.17
314.23
309.16
303.16
298.15
292.7
287.15
279.98
273.14
266.74
262.14
257.02
251.13
243.66
237.12
231.24
226.12
219.69
213.11
206.48
201.1
195.45
190.1
184.16
179.09
173.39
168.09
161.59
156.08
150.26
146.08
140.77
136.07
130.18
126.07
121.35
118.06
114.61
116.06
123.65
142.07
168.92
206.11
252.99
313.16
380.72
451.23
520.22
592.31
663.41
726.38
772.88
809.42
841.54
871.45
892.89
907.47
916.93
924.48
927.26
927.48
925.51
923.48
918.37
911.47
901.91
892.46
881.55
871.45
859.83
848.44
834.64
821.42
807.01
794.41
780.81
768.4
753.6
738.38
720.05
702.36
683.5
666.34
648.08
631.33
612.77
594.31
573.78
555.29
536.4
518.27
498.23
481.25
466.57
455.24
442.58
431.22
420.56
413.21
405.59
399.21
392.49
388.2
383.92
381.2
378.19
377.2
375.86
375.19
373.46
373.19
372.44
371.19
367.11
363.19
359.59
357.18
352.95
348.18
342.95
339.18
334.59
329.17
321.57
314.16
307.44
303.16
298.71
293.15
285.31
278.14
271.5
265.14
256.94
249.13
242.59
238.12
233
227.12
220.02
213.11
205.5
198.1
190.87
185.1
179.4
173.09
164.82
156.08
147.54
140.07
132.24
124.06
115.52
108.06
101.31
95.049
87.862
80.041
71.745
64.033
56.168
48.025
39.518
32.017
25.089
18.009
10.262
4.0021
0.55146
-1.4369e-16
-0.035564
-1.3708e-16
-0.43217
-1.3541e-16
-0.07896
-2.6568e-16
-0.61993
-7.1581e-17
0.033025
-3.8203e-16
-0.97968
1.2783e-17
0.62972
-4.6445e-16
-2.5526
8.7149e-17
10.842
32.017
62.478
107.06
165.39
233.12
300.55
365.19
425.09
480.25
527.44
568.29
602.26
630.33
651.74
670.35
685.86
697.36
702.72
706.37
710.3
714.37
714.59
712.37
709.08
706.37
701.24
694.36
685.72
678.35
670.38
662.34
651.57
640.33
627.7
616.32
603.53
590.31
574.26
558.29
540.69
523.27
503.75
485.25
466.84
451.23
436.33
424.22
412.1
401.21
389.49
380.2
371.5
364.19
355.55
349.18
344.89
344.18
342.75
341.18
338.26
337.17
336.39
337.17
337.51
339.18
340.12
341.18
340.65
341.18
342.04
344.18
344.82
345.18
344.64
345.18
345.02
345.18
344.62
345.18
344.97
344.18
341.02
338.17
336.3
337.17
337.66
337.17
334.91
334.17
333.83
333.17
329.91
327.17
325.44
325.17
323.24
321.17
319.23
319.17
318.26
317.16
314.71
313.16
310.12
307.16
303.17
302.16
301.4
301.16
297.45
294.15
289.63
286.15
281.28
281.15
286.62
301.16
320.92
349.18
385.15
433.22
491.14
560.29
633.1
705.36
769.99
830.43
885.73
936.48
974.81
1000.5
1012.9
1019.5
1021.6
1023.5
1023.2
1023.5
1022.7
1023.5
1023.1
1023.5
1022.6
1023.5
1023.1
1023.5
1022.3
1023.5
1023.8
1023.5
1016.8
1007.5
995.29
985.51
973.75
961.5
945.58
931.48
916.91
903.47
885.3
865.45
842.73
822.43
801.19
781.4
759.95
741.38
722.82
706.37
687.63
670.35
652.59
638.33
624.53
614.32
604.13
596.31
587.98
583.3
579.66
578.3
574.74
572.3
569.91
570.29
568.82
566.29
560.63
556.29
552.57
551.29
547.74
542.28
533.88
527.27
520.78
514.27
505.04
497.26
490.59
485.25
477.3
469.24
460.8
453.23
443.28
433.22
423.18
415.21
406.18
397.21
387.99
381.2
373.78
365.19
354.17
345.18
338.27
333.17
326.12
319.17
313.03
309.16
303.85
297.15
289.11
283.15
277.97
273.14
265.74
258.13
251.01
247.13
242.66
237.12
228.64
222.11
216.12
211.11
203.28
197.1
192.31
191.1
189.41
191.1
197.07
213.11
238.56
277.14
325.65
384.2
448.05
518.27
589.25
658.34
719.84
776.4
825.75
867.45
897.12
919.48
937
953.49
964.85
971.5
972.52
972.5
970.93
969.5
965.14
959.5
951.17
943.49
934.89
927.48
917.69
907.47
895.24
885.46
874.95
864.45
850.53
838.43
826.71
816.42
801.98
786.41
768.18
750.39
729.55
709.37
688.06
668.35
646.58
626.32
605.88
588.3
570.21
554.29
537.47
522.27
506.75
495.26
484.87
476.25
466.56
461.24
459.41
461.24
461
461.24
461.77
465.24
467.45
469.24
468.84
469.24
468.71
469.24
468.7
468.24
464.93
460.24
453.74
449.23
445.68
443.23
438.33
432.22
424.36
417.22
409.56
403.21
396.98
392.2
386.68
381.2
374.11
367.19
359.56
353.18
346.7
341.18
334.94
329.17
322.21
315.16
307.39
301.16
295.11
289.15
281.22
273.14
264.74
257.13
249.02
242.13
236.08
231.12
224.63
217.11
208.88
202.1
195.66
189.1
180.96
173.09
166.43
162.08
157.35
151.08
142.87
136.07
130.6
126.07
119.26
112.06
104.79
100.05
94.883
90.047
83.785
79.041
73.229
68.035
63.123
64.033
69.393
80.041
95.389
124.06
168.75
229.12
296.27
368.19
442.09
518.27
590.39
656.34
712.61
761.39
801.4
834.43
858.33
875.45
886.66
896.46
903.56
907.47
905.61
901.47
896.12
891.46
884.3
875.45
864.11
853.44
841.4
829.43
815.37
802.42
788.15
774.4
758.81
745.39
731.6
718.37
701.97
686.35
669.94
654.34
635.78
618.32
601.31
587.3
572.21
558.29
543.55
530.27
514.74
499.26
482.77
469.24
456.25
445.23
433.55
424.22
415.23
408.21
401.02
397.21
395.44
396.2
395.02
393.2
390.19
389.2
388.54
389.2
388.43
387.2
383.97
381.2
377.87
375.19
371.15
367.19
362.11
357.18
350.96
345.18
339.07
334.17
329.24
325.17
319.67
313.16
305.28
299.15
294.03
289.15
281.77
274.14
267.43
263.14
258.43
253.13
246.96
242.13
237.05
231.12
223.42
217.11
212.82
210.11
205.5
199.1
191.52
185.1
179.22
174.09
168.51
163.08
157.28
152.08
146.89
142.07
136.6
131.07
125.23
120.06
114.88
110.06
104.5
99.051
93.063
88.046
82.911
79.041
74.716
71.037
65.5
60.031
54.093
51.026
48.232
46.024
42.564
44.023
53.569
75.039
103.59
139.07
182.51
241.12
312.16
389.2
462.13
531.27
596.46
658.34
711.51
756.39
792.54
822.43
843.98
859.44
869.44
877.45
882.47
885.46
884.06
879.45
871.39
863.45
854.82
846.44
836.12
826.43
815.48
804.42
790.55
777.4
763.43
750.39
734.85
720.37
705.81
693.36
678.21
662.34
645.13
631.33
617.17
602.31
583.49
566.29
550.74
538.28
523.41
508.26
492.8
481.25
470.15
460.24
449.28
441.23
434.28
429.22
422.01
415.21
409.06
407.21
406.12
405.21
402.23
401.21
400.9
401.21
398.92
397.21
395.99
396.2
394.67
393.2
391.1
389.2
384.85
380.2
375.49
372.19
367.28
361.19
353.57
347.18
340.94
335.17
327.95
321.17
314.83
310.16
304.34
297.15
288.31
281.15
275.22
270.14
263.55
257.13
250.83
245.13
237.8
230.12
222.67
217.11
211.45
205.11
197.03
189.1
181.44
175.09
169.13
164.08
158.5
152.08
143.95
136.07
129.16
124.06
119.02
114.06
108.31
103.05
97.189
92.048
86.474
82.042
76.475
71.037
64.401
60.031
56.519
55.028
52.539
52.027
53.222
60.031
72.084
94.049
126.04
171.09
226.65
293.15
365.07
440.23
514.03
587.3
655.16
714.37
760.28
797.41
828.51
856.44
877.25
891.46
899.37
905.47
909.21
911.47
910.21
907.47
902.09
895.46
885.96
876.45
865.68
855.44
843.66
833.43
821.85
809.42
793.17
778.4
764.4
752.39
737.34
722.37
705.95
690.36
672.05
655.34
639.3
626.32
611.98
598.31
582.24
566.29
549.18
536.28
524.87
514.27
500.23
488.25
478.58
472.24
464.02
457.24
452.45
452.23
451.1
449.23
445.66
445.23
446.27
449.23
450.53
452.23
452.57
453.23
452.47
453.23
453.54
453.23
449.3
445.23
441.65
440.23
437.68
435.23
431.91
429.22
424.53
419.22
412.82
408.21
404.12
401.21
396.57
391.2
384.68
380.2
376.44
373.19
367.51
361.19
354.05
348.18
342.15
337.17
331.55
326.17
319.98
315.16
310.31
305.16
297.6
290.15
283.56
279.14
274.25
269.14
263.15
258.13
252.64
247.13
239.92
233.12
226.46
222.11
216.92
211.11
203.05
197.1
191.31
186.1
178.94
175.09
173.06
173.09
172.47
178.09
190.34
210.11
235.02
273.14
325.33
389.2
455.8
526.27
597.66
666.34
723.9
773.4
816.82
856.44
887.37
911.47
928.63
941.49
948.18
952.49
954.43
955.49
952.7
948.49
942.18
935.48
925.74
915.47
903.63
892.46
878.88
865.45
850.86
838.43
824.56
810.42
793.49
778.4
763.5
750.39
734.58
718.37
699.37
680.35
658.85
638.33
616.21
594.31
570.14
548.28
527.57
509.26
488.6
468.24
448.4
433.22
418.86
405.21
390.3
379.2
370.81
365.19
358.24
353.18
349.73
349.18
347.78
347.18
345.99
345.18
342.09
339.18
336.08
334.17
331.33
329.17
326.09
322.17
316.06
311.16
307.68
305.16
300.24
294.15
287.26
281.15
274.67
269.14
263.34
257.13
249.5
243.13
237.98
233.12
225.62
217.11
209.14
203.11
196.56
189.1
180.84
174.09
168.4
163.08
156.1
148.08
139.62
132.07
124.28
116.06
107.37
100.05
93.884
88.046
80.566
72.037
63.438
56.029
48.446
40.021
31.15
24.012
18.146
12.006
4.9606
4.8474e-17
-1.2836
-2.5564e-16
0.36435
5.4372e-18
-0.55983
-3.3128e-16
-0.14783
-2.9959e-17
-0.38809
-3.4722e-16
-0.41351
-7.1232e-17
-0.22193
-3.1232e-16
-0.67429
-1.2142e-16
0.80661
4.0021
12.185
34.018
72.931
128.07
190.35
255.13
320.15
387.2
450.83
505.26
546.25
579.3
608.46
635.33
655.73
670.35
680.49
689.36
695.76
700.36
702.17
702.36
699.95
696.36
691.07
685.35
677.94
670.35
661.3
652.34
641.65
631.33
620.15
610.32
599.08
587.3
572.75
558.29
542.29
526.27
507.6
489.25
470.82
455.24
439.57
425.22
410.94
400.21
390.33
381.2
370.13
361.19
353.92
349.18
343.13
338.17
334.14
333.17
331.86
331.17
330.07
331.17
332.08
333.17
332.63
333.17
333.73
335.17
335.56
337.17
338.95
341.18
341.26
341.18
340.69
341.18
340.79
341.18
341.16
341.18
339.18
337.17
334.77
333.17
330.98
330.17
329.54
329.17
326.99
325.17
323.34
322.17
319.45
317.16
315.31
315.16
314.21
313.16
310.94
309.16
306.01
303.16
299.61
298.15
296.91
297.15
295.17
293.15
290.08
290.15
289.74
289.15
285.15
283.15
283.26
289.15
298.59
317.16
346.03
389.2
441.14
501.26
566.12
638.33
711.11
780.4
840.27
895.46
943.95
983.51
1006.2
1016.5
1019
1021.5
1022.4
1023.5
1022.8
1023.5
1023.1
1023.5
1022.7
1023.5
1023.1
1023.5
1022.3
1023.5
1023.8
1023.5
1017.4
1009.5
998.65
988.51
975.47
963.5
949.38
935.48
918.49
903.47
887.51
871.45
850.32
829.43
808.2
789.41
767.67
746.39
724.5
706.37
687.9
671.35
653.51
638.33
623.48
612.32
600.92
591.31
580.87
574.3
569.37
567.29
563.05
559.29
555.1
554.29
553.2
552.29
548.14
544.28
540.09
538.28
535.17
531.27
524.48
518.27
511.43
505.26
497.09
489.25
480.68
473.24
464.81
457.24
448.87
441.23
432.6
425.22
417.25
409.21
398.89
389.2
380.14
373.19
365.3
357.18
347.7
339.18
330.5
323.17
315.58
309.16
302.86
298.15
292.86
287.15
279.69
273.14
267.05
262.14
255.66
249.13
242.1
237.12
231.51
226.12
218.88
213.11
206.63
201.1
194.24
190.1
186.62
185.1
182.67
185.1
194.09
214.11
242.22
281.15
329.34
389.2
455.94
528.27
599.28
667.35
727.91
782.4
827.09
863.45
892.04
919.48
943.1
959.5
964.37
965.5
967.38
971.5
971.26
967.5
961.03
955.49
947.83
939.49
929.04
919.48
908.09
897.46
885.8
876.45
865.89
855.44
841.65
828.43
814.11
801.41
786.12
770.4
751.64
733.38
713
693.36
671.43
650.34
628.01
608.31
588.7
571.3
552.2
534.28
516.53
503.26
490.72
479.25
466.27
457.24
450.76
447.23
442.64
441.23
442.02
445.23
445.94
447.23
448.87
452.23
453.02
453.23
452.55
453.23
452.35
451.23
448.31
445.23
440.15
435.23
429.38
424.22
418.19
413.21
407.89
403.21
397.36
392.2
386.52
381.2
374.09
367.19
360.56
356.18
351.2
345.18
337.01
330.17
324.27
319.17
312.1
305.16
298.76
294.15
288.8
283.15
276.16
269.14
261.21
254.13
247.21
241.12
234.62
229.12
223.59
218.11
211.28
205.11
198.98
193.1
185.07
177.09
169.04
163.08
156.88
152.08
146.04
140.07
132.37
127.07
122.56
120.06
117.45
120.06
127.99
144.07
167.78
205.11
254.21
313.16
377.04
449.23
525.39
598.31
658.02
708.37
753.61
796.41
830.35
855.44
872.85
887.46
897.46
903.47
904.3
903.47
900.44
896.46
889.14
880.46
869.74
859.44
847.64
836.43
823.97
812.42
799.07
786.41
772.56
760.39
746.77
733.38
717.46
702.36
685.86
670.35
653.39
638.33
622.33
606.31
586.78
567.29
546.61
527.27
506.93
489.25
472.34
457.24
440.37
425.22
411.42
401.21
390.65
381.2
371.62
365.19
359.9
357.18
354.4
353.18
351.53
351.18
349.86
349.18
348.16
349.18
349.62
349.18
346.45
345.18
344.7
344.18
340.21
335.17
329.71
325.17
319.7
315.16
310.94
307.16
301.8
297.15
293.27
290.15
284.95
279.14
273.41
269.14
263.96
258.13
251.67
247.13
243.77
241.12
236.41
230.12
222.77
217.11
212.7
209.11
204.06
198.1
191.25
185.1
178.95
173.09
166.5
160.08
153.28
147.08
140.95
136.07
130.92
126.07
120.11
115.06
109.32
104.05
97.001
91.047
85.736
83.043
78.167
72.037
66.817
71.037
82.491
98.051
116.02
148.08
198.37
263.14
330.6
400.21
471.1
542.28
607.24
667.35
720.92
766.4
799.72
826.43
849.23
868.45
879.21
884.46
886.44
887.46
884.76
880.46
874.36
867.45
857.19
846.44
834.95
824.43
812.06
800.41
787.42
774.4
758.64
744.38
730.23
717.37
701.54
686.35
671.38
659.34
645.28
630.33
613.07
598.31
583.76
570.29
554.12
538.28
521.22
505.26
487.57
471.24
454.95
441.23
427.65
417.22
408.52
403.21
397.43
392.2
385.76
381.2
377.38
376.19
374.57
373.19
370.41
369.19
368.22
368.19
366.55
365.19
363.1
361.19
356.78
351.18
344.44
339.18
333.97
329.17
323.31
318.16
312.66
307.16
300.04
293.15
286.54
281.15
274.55
267.14
259.16
253.13
247.48
241.12
232.7
225.12
218.77
213.11
205.47
197.1
188.71
181.09
172.62
164.08
155.6
148.08
140.9
135.07
129.76
124.06
116.39
108.06
99.762
92.048
83.876
76.039
68.659
62.032
55.092
48.025
40.225
32.017
23.293
16.008
10.103
6.0031
2.0953
-1.6822e-16
-0.95516
-2.2255e-16
-0.0074077
-2.368e-16
-0.78243
-1.8213e-16
0.091812
-2.9489e-16
-1.4523
-1.1095e-16
5.7615
20.01
44.177
83.043
135.22
198.1
264.77
333.17
399.18
461.24
516.38
566.29
608.75
642.33
665.68
684.35
700.41
713.37
719.68
722.37
723.86
725.38
723.88
720.37
715.46
710.37
702.69
693.36
682.07
671.35
660.16
650.34
639.25
627.32
612.47
598.31
583.9
570.29
553.74
536.28
517.03
499.26
481.22
465.24
448.69
433.22
417.18
404.21
392.13
381.2
368
356.18
345.78
339.18
333.12
329.17
325.23
323.17
321.39
323.17
326.97
333.17
338.3
344.18
349.4
355.18
359.6
365.19
370.38
375.19
377.44
380.2
382.8
385.2
385.02
385.2
385.32
385.2
382.66
381.2
380.72
380.2
376.23
372.19
369.64
369.19
366.98
364.19
361.07
359.19
356.14
353.18
349.75
347.18
343.77
341.18
338.7
337.17
334.1
330.17
324.46
319.17
313.54
309.16
303.64
298.15
291.57
287.15
282.24
277.14
268.94
262.14
255.62
251.13
244.89
241.12
239.16
242.13
246.93
258.13
275.94
305.16
343.87
395.2
455.16
523.27
593.58
666.34
735.21
798.41
851.92
900.47
941.97
975.5
996.21
1009.5
1017.5
1023.5
1024.2
1023.5
1022.2
1023.5
1023.4
1023.5
1022.6
1023.5
1021.9
1017.5
1007.4
996.52
984.78
975.5
964.08
952.49
938.15
925.48
911.66
899.47
885.15
871.45
854.37
836.43
814.9
794.41
772.67
752.39
729.97
709.37
688.52
670.35
650.64
632.33
613.53
598.31
583.32
570.29
555.93
544.28
534.08
528.27
522.65
518.27
512.21
508.26
505.22
505.26
503.81
501.26
495.86
492.25
489.24
487.25
482.4
477.25
471.53
467.24
460.81
453.23
444.12
437.23
430.97
425.22
416.63
407.21
397.1
389.2
381.69
375.19
367.72
361.19
354.51
349.18
343.35
338.17
332.22
327.17
321.78
317.16
311.33
305.16
297.65
291.15
285.36
281.15
275.68
269.14
261.23
255.13
249.89
245.13
237.71
230.12
222.99
219.11
214.55
209.11
200.75
194.1
187.78
183.09
176.81
173.09
171.23
174.09
179.61
193.1
215.05
249.13
292.91
349.18
413.96
485.25
556.09
626.32
691.08
749.39
798.22
842.44
880.61
911.47
930.61
943.49
952.88
961.5
965.64
967.5
966.57
964.5
958.47
951.49
943.25
935.48
924.68
913.47
901.58
892.46
882.16
871.45
857.49
844.44
830.27
817.42
802.88
790.41
777.22
764.4
747.32
729.38
709.31
690.36
668.77
647.33
624.48
604.31
584.18
566.29
547.4
530.27
512.53
497.26
481.9
469.24
457.03
448.23
440.24
435.23
430.68
429.22
428.2
429.22
429.71
432.22
434.43
437.23
437.37
437.23
436.3
437.23
437.34
437.23
434.78
432.22
428.24
424.22
418.49
413.21
407.63
403.21
397.7
392.2
385.96
381.2
376.21
371.19
364.13
357.18
350.29
345.18
339.68
334.17
327.33
321.17
314.75
309.16
302.91
297.15
290.29
283.15
275.3
269.14
263.32
257.13
248.83
241.12
234.56
229.12
221.88
214.11
207.23
203.11
198.91
193.1
185.12
178.09
172.34
167.09
159.86
152.08
145.09
140.07
134.28
127.07
118.55
112.06
106.72
102.05
95.051
88.046
80.92
76.039
70.553
66.034
61.011
58.03
54.24
52.027
52.371
62.032
80.865
110.06
147.22
197.1
259.49
333.17
408.88
483.25
553.6
622.32
684.84
738.38
779.66
813.42
840.92
863.45
877.99
887.46
893.13
897.46
897.87
895.46
889.87
883.46
874.45
864.45
852.78
842.44
831.36
820.42
806.76
793.41
779.1
766.4
752.04
738.38
723.21
709.37
693.69
678.35
660.77
644.33
627.19
612.32
596.72
582.3
565.93
550.28
533.36
518.27
502.75
489.25
475.28
463.24
450.54
439.23
427.06
417.22
408.54
403.21
397.57
392.2
385.36
381.2
379.43
381.2
381.81
381.2
378.36
377.2
376.45
376.19
373.66
371.19
368.06
365.19
360.47
356.18
351.84
348.18
342.76
337.17
331.16
326.17
320.41
315.16
309.72
305.16
299.63
294.15
288.12
283.15
277.92
273.14
267.69
263.14
258.74
255.13
250.37
245.13
239.1
234.12
228.86
223.12
215.81
209.11
203.09
198.1
192.44
187.1
181.81
177.09
171.57
166.09
160.38
155.08
149.34
144.07
138.91
134.07
128.54
123.06
117.39
112.06
106.59
102.05
97.88
94.049
89.06
84.043
78.575
74.038
68.496
63.033
56.636
52.027
47.184
43.022
37.847
35.018
32.53
32.017
34.453
47.024
67.993
95.049
126.64
173.09
237.09
313.16
388.06
460.24
530.02
598.31
659.14
712.37
756.49
792.41
818.25
838.43
854.35
867.45
875.25
880.46
883.05
883.46
878.79
871.45
861.96
852.44
841.08
830.43
819.41
809.42
797.31
785.41
771.74
758.39
742.78
728.38
712.99
698.36
681.44
666.34
651.71
639.33
624.78
610.32
593.85
578.3
561.34
546.28
530.61
516.27
501.15
489.25
477.91
467.24
453.92
443.23
435.9
433.22
428.9
423.22
415.97
412.21
409.97
409.21
406.61
405.21
404.27
405.21
404.95
405.21
404.7
405.21
404.83
405.21
403.89
401.21
396.01
392.2
389.4
387.2
382.23
377.2
373.13
371.19
366.99
360.19
351.38
345.18
341.07
338.17
332.99
327.17
321.28
317.16
312.12
306.16
298.81
293.15
288.62
285.15
280.03
274.14
267.21
261.14
254.87
249.13
242.81
237.12
231.21
226.12
221.18
217.11
211.8
205.11
197.2
191.1
186.19
181.09
173.85
167.09
162.22
159.08
154.27
148.08
141.93
138.07
133.61
127.07
118.22
112.06
108.42
106.05
100.55
95.049
90.259
88.046
83.876
79.041
73.205
71.037
72.023
80.041
94.84
120.06
153.74
198.1
251.8
317.16
389.11
464.24
536.4
606.31
670.29
726.38
770.34
806.42
836.6
863.45
883.86
899.47
909.41
915.47
916.41
915.47
912.18
907.47
899.49
891.46
882.34
872.45
859.07
846.44
834.51
824.43
811.24
797.41
782.61
770.4
756.64
742.38
725.44
710.37
695.34
682.35
667.85
654.34
638.68
622.32
602.16
582.3
562.03
544.28
525.88
509.26
492.29
477.25
461.3
447.23
433.64
423.22
413.16
405.21
397.35
392.2
387.42
384.2
379.98
377.2
374.35
373.19
371.52
371.19
370.14
369.19
366.4
364.19
361.46
359.19
355.68
353.18
350.39
347.18
341.26
335.17
329.42
325.17
319.82
314.16
307.97
303.16
298.12
293.15
287.02
281.15
274.28
267.14
259.34
253.13
247.27
241.12
233.48
227.12
222
217.11
209.76
202.1
195.72
191.1
184.96
177.09
168.57
162.08
156.64
151.08
143.7
136.07
129.23
124.06
118.29
111.06
102.67
96.05
90.87
86.045
79.119
72.037
65.149
60.031
54.443
50.026
45.44
42.022
36.783
32.017
27.635
27.014
27.325
30.016
35.678
52.027
80.854
123.06
172.69
230.12
294.82
369.19
447.04
523.27
590.98
651.34
703.9
750.39
787.39
816.42
838.8
859.44
876.22
887.46
891.07
892.46
893.74
895.46
893.09
887.46
878.62
869.45
858.55
848.44
837.29
826.43
813.28
801.41
789.07
777.4
762.13
746.39
729.3
714.37
698.01
682.35
665.29
650.34
634.11
618.32
600.87
586.3
571.89
558.29
542.09
528.27
516.24
507.26
495.98
485.25
475.69
471.24
466.48
460.24
450.88
445.23
443.15
444.23
442.77
441.23
439.83
441.23
441.9
443.23
443.68
445.23
445.14
445.23
444.51
445.23
444.58
443.23
439.77
437.23
434.14
431.22
426.61
423.22
420
417.22
412.31
408.21
404.98
403.21
398.88
393.2
387.11
384.2
381.93
379.2
373.8
369.19
365.53
363.19
358.37
352.18
345.37
341.18
337.64
334.17
328.6
323.17
317.64
313.16
307.64
302.16
296.09
291.15
285.91
281.15
275.38
270.14
264.15
259.13
253.55
249.13
243.41
238.12
231.63
227.12
221.83
217.11
210.69
207.11
204.75
205.11
204.83
209.11
219.72
242.13
273.86
317.16
369.75
433.22
500.9
570.29
637.1
704.36
767.41
822.43
863.26
895.46
922.68
948.49
967.41
979.51
984.69
988.51
990.37
991.51
988.67
983.51
974.73
965.5
954.52
944.49
933.35
923.48
911.85
900.47
886.55
873.45
859.03
846.44
832.76
820.42
805.54
790.41
773.23
758.39
742.12
724.37
701.87
680.35
658.89
638.33
614.31
591.31
568.79
548.28
525.7
505.26
486.9
472.24
456.01
440.23
424.74
413.21
402.19
392.2
380.75
371.19
362.62
357.18
351.74
347.18
341.73
338.17
335.02
333.17
330
327.17
323.93
322.17
319.84
317.16
312.02
306.16
299.78
295.15
290.44
285.15
277.78
271.14
266.06
263.14
259.05
253.13
244.96
237.12
229.66
223.12
215.93
209.11
202.82
198.1
192.54
185.1
175.82
168.09
162.02
156.08
148.08
140.07
133.44
128.07
121.46
114.06
106.68
100.05
92.491
84.043
75.35
68.035
61.468
55.028
47.669
40.021
32.035
24.012
15.58
8.0041
2.4562
-5.8535e-17
-0.43326
-4.3107e-17
0.044064
-1.4114e-16
-0.28417
-5.9033e-17
-0.076728
-2.607e-16
-0.47526
-2.3459e-17
-0.0071881
-3.7575e-16
-0.78099
4.786e-17
0.33414
-4.6402e-16
-1.4547
1.1722e-16
2.1848
3.0016
3.4688
16.008
48.529
100.05
159.35
221.11
282.64
344.18
401.39
453.23
497.74
536.28
568.04
595.31
617.24
634.33
645.06
652.34
657.65
663.34
667.61
670.35
670.59
670.35
669.12
667.35
663.2
658.34
652.2
646.33
638.57
630.33
620.19
610.32
598.85
587.3
573.18
558.29
541.62
526.27
509.74
492.25
471.59
452.23
434.75
421.22
408.02
396.2
383.67
372.19
359.75
349.18
339.66
333.17
326.93
322.17
316.92
313.16
309.31
307.16
304.45
302.16
298.8
297.15
296.32
297.15
297.03
297.15
296.63
297.15
296.98
297.15
296.64
297.15
297.13
297.15
295.88
295.15
294.02
293.15
290.95
289.15
287.48
287.15
286.2
285.15
282.96
281.15
278.73
277.14
276.11
277.14
277.81
277.14
273.8
271.14
269.51
269.14
267.08
265.14
263.19
263.14
262.03
261.14
258.59
257.13
254.46
253.13
250.76
250.13
248.46
249.13
251.83
261.14
272.81
287.15
304.83
337.17
385.8
448.23
514.33
584.3
655.06
726.38
793.37
859.44
919.73
968.5
996.92
1011.5
1018.3
1023.5
1024.1
1023.5
1022.3
1023.5
1023.3
1023.5
1022.7
1023.5
1023
1023.5
1022.7
1023.5
1022.8
1023.5
1022.8
1023.5
1021.9
1020.5
1014.8
1007.5
995.55
983.51
968.99
955.49
939.24
923.48
905.03
887.46
867.72
849.44
829.1
809.42
787.09
766.4
744.97
726.38
707.61
692.36
676.71
662.34
645.78
632.33
620.91
614.32
607.49
602.31
595.84
591.31
586.06
583.3
580.09
578.3
574.66
572.3
569.22
567.29
562.9
558.29
552.29
548.28
543.96
540.28
533.76
526.27
517
509.26
501.03
493.26
484.21
477.25
470.92
465.24
456.57
447.23
437.28
429.22
420.78
413.21
404.8
397.21
388.75
381.2
372.69
364.19
354.13
345.18
336.6
329.17
320.18
311.16
301.93
295.15
289.31
285.15
279.6
274.14
267.61
263.14
258.01
253.13
245.47
239.12
233.5
231.12
226.53
221.11
215.68
218.11
226.05
239.12
256.56
289.15
338
399.21
461.75
527.27
595.62
666.34
729.9
785.41
832.04
873.45
906.04
931.48
949.45
964.5
974.43
980.51
981.79
983.51
984.53
984.51
979.54
973.5
966.39
959.5
948.69
937.48
925.78
916.47
905.51
895.46
883.93
873.45
860.69
849.44
837.33
826.43
812.47
798.41
781.47
764.4
744.57
726.38
707.18
688.36
665.88
644.33
623.42
606.31
588.13
570.29
551.07
535.28
520.74
509.26
497.67
489.25
481.6
476.25
469.74
465.24
461.12
459.24
455.88
453.23
450.04
449.23
448.43
449.23
449.05
449.23
447.28
445.23
442.05
440.23
437.73
435.23
430.33
425.22
419.49
415.21
409.99
404.21
396.31
389.2
383.01
379.2
374.37
368.19
359.88
353.18
347.68
343.18
336.43
329.17
322.05
317.16
311.93
306.16
299.02
293.15
287.32
281.15
272.91
265.14
257.76
251.13
243.59
237.12
231.35
226.12
219.42
213.11
207
201.1
193.32
186.1
179.79
175.09
168.06
160.08
151.5
146.08
140.65
135.07
126.67
120.06
115.17
114.06
112.71
114.06
119.6
136.07
162.73
201.1
248.3
307.16
374.79
449.23
521.87
590.31
652.02
710.37
762.28
806.42
839.09
864.45
884.23
901.47
912.98
919.48
920.34
919.48
916.65
913.47
907.39
899.47
888.4
877.45
866.05
856.44
845.49
834.43
820.98
808.42
794.58
781.4
765.67
750.39
733.65
718.37
701.67
686.35
669.89
654.34
635.74
616.32
594.9
576.3
558.47
542.28
523.28
504.26
484.89
469.24
454.37
441.23
427.05
415.21
404.3
396.2
387.81
381.2
375.09
372.19
369.96
369.19
367.01
365.19
362.41
361.19
360.27
361.19
361.33
361.19
358.82
356.18
352.22
348.18
342.55
337.17
331.3
326.17
320.32
315.16
309.79
305.16
299.59
294.15
288.16
283.15
277.92
273.14
267.5
262.14
256.25
251.13
245.83
241.12
235.4
229.12
221.67
215.11
209.44
205.11
199.91
194.1
187.84
183.09
178.52
173.09
165.72
159.08
154.27
151.08
146.46
140.07
132.56
126.07
120.28
115.06
109.42
104.05
98.789
94.049
88.663
83.043
76.994
72.037
66.925
62.032
55.929
51.026
46.662
44.023
39.517
34.018
27.062
23.012
20.308
20.01
21.306
30.016
46.448
72.037
105.31
152.08
212.66
285.15
360.77
437.23
511.26
582.3
644.84
698.36
741.26
776.4
803.73
826.43
843.59
856.44
864.04
869.45
871.82
871.45
866.63
860.45
852.78
844.44
833.28
822.43
811.49
801.41
788.28
774.4
759.31
746.39
732.77
720.37
706.48
693.36
677.85
662.34
644.67
628.32
611.29
596.31
580.55
566.29
550.41
535.28
519.06
505.26
490.95
477.25
461.75
449.23
439.2
433.22
426.71
421.22
415.39
412.21
408.95
407.21
405.12
405.21
404.89
405.21
404.26
405.21
406.67
409.21
409.41
409.21
408.34
409.21
409.36
409.21
406.77
404.21
401.03
399.21
396.49
393.2
387.86
383.2
378.71
375.19
370.19
365.19
359.88
356.18
352.15
348.18
342.59
337.17
331.21
326.17
320.46
315.16
309.41
305.16
301.3
298.15
293.22
287.15
279.62
273.14
267.14
262.14
256.41
251.13
245.73
241.12
235.74
230.12
223.45
217.11
210.65
205.11
199.48
194.1
187.69
181.09
174.14
168.09
162.01
156.08
149.31
143.07
137.08
132.07
126.1
120.06
113.02
107.06
100.78
96.05
90.881
87.045
82.496
79.041
73.414
68.035
64.904
71.037
83.026
98.051
115.65
148.08
198.74
263.14
330.03
400.21
473.05
546.28
611.89
671.35
724.4
770.4
804.29
830.43
852.38
872.45
885.29
891.46
893.06
895.46
896.94
896.46
891.5
885.46
878.43
871.45
860.96
849.44
837.43
828.43
818.17
806.42
790.79
776.4
762.13
749.39
733.79
718.37
702.15
688.36
673.18
658.34
641.58
626.32
609.85
594.31
577.36
562.29
546.23
530.27
511.32
493.26
475.55
461.24
447.66
437.23
427.64
420.22
411.61
404.21
397.13
393.2
389.67
387.2
382.99
379.2
375
373.19
371.99
372.19
370.94
369.19
365.29
361.19
356.12
352.18
347.98
344.18
338.75
333.17
327.05
322.17
316.79
311.16
303.9
297.15
290.9
286.15
280.26
273.14
264.43
257.13
251.06
246.13
239.8
233.12
226.34
221.11
215.73
210.11
203.33
197.1
190.86
185.1
178.98
174.09
169.84
166.09
161.15
156.08
150.81
146.08
140.55
135.07
129.15
124.06
118.88
115.06
110.93
107.06
101.18
96.05
91.806
91.047
89.398
86.045
79.393
76.039
77.489
86.045
98.482
118.06
144.5
181.09
227.04
286.15
354.52
428.22
499.88
570.29
636.58
697.36
748.41
793.41
832.01
863.45
883.15
895.46
904.2
913.47
919.93
923.48
922.76
920.48
915.45
909.47
900.81
891.46
880.03
869.45
858.17
848.44
837.23
826.43
813.25
800.41
785.22
770.4
753.64
738.38
721.88
706.37
689.21
674.35
659.57
646.33
629.83
612.32
592.63
575.3
557.92
542.28
525.05
509.26
493.29
480.25
467.44
457.24
447.55
441.23
435.3
431.22
426.78
425.22
424.17
424.22
422.23
421.22
420.31
421.22
420.91
421.22
420.82
421.22
419.48
417.22
414.2
413.21
411.42
408.21
402.1
397.21
393.62
391.2
386.18
380.2
373.8
369.19
364.1
359.19
353.32
348.18
342.37
337.17
331.34
326.17
320.29
315.16
309.76
305.16
299.4
293.15
285.59
279.14
273.48
269.14
263.51
257.13
249.5
243.13
237.32
233.12
227.75
222.11
214.87
209.11
202.73
197.1
190.27
186.1
181.96
178.09
171.48
168.09
169.22
178.09
191.44
213.11
243.1
285.15
336.66
399.21
467.34
538.28
605.61
670.35
728.82
780.4
821.65
857.44
888.41
915.47
933.42
944.49
950.74
957.5
962.07
963.5
958.9
952.49
945.17
939.49
931.94
923.48
912.17
901.47
889.94
880.46
869.81
859.44
845.87
832.43
817.74
805.42
791.79
778.4
762.09
746.39
728.2
709.37
687.22
666.34
644.49
623.32
600.14
580.3
562.23
546.28
527.26
509.26
492.59
480.25
467.73
457.24
447.89
443.23
439.47
437.23
433.98
433.22
432.66
433.22
432.26
433.22
434.69
437.23
437.29
437.23
436.1
435.23
432.09
429.22
425.96
423.22
418.03
412.21
405.86
401.21
396.09
391.2
385.25
380.2
374.59
369.19
362.18
355.18
347.58
341.18
334.68
329.17
323.09
317.16
309.45
301.16
292.2
285.15
278.85
273.14
266.03
259.13
251.93
245.13
236.91
229.12
221.39
215.11
207.91
201.1
193.08
186.1
178.6
173.09
166.57
160.08
151.81
146.08
141.01
138.07
136.54
144.07
161.78
190.1
223.5
265.14
315.62
377.2
444.12
514.27
581.06
642.33
693.79
738.38
775.35
806.42
829.83
849.44
864.52
875.45
879.66
881.46
882.48
884.46
883.34
879.45
871.82
863.45
853.52
844.44
833.68
822.43
809
797.41
785.44
773.4
757.61
742.38
727.4
714.37
697.79
679.35
659.05
642.33
626.17
610.32
590.99
572.3
552.89
534.28
513.04
493.26
474.56
459.24
443.4
429.22
415.29
404.21
393.34
385.2
377.98
373.19
367.59
363.19
358.83
357.18
356.22
357.18
357.13
357.18
356.28
357.18
357.57
357.18
354.5
353.18
352.41
351.18
346.36
341.18
336.9
334.17
329.24
323.17
316.93
313.16
309.71
306.16
300.71
295.15
289.43
285.15
280.09
274.14
266.75
261.14
256.78
253.13
247.79
243.13
239.64
238.12
235.72
233.12
229.39
226.12
221.6
218.11
214.6
213.11
211.29
211.11
209.87
209.11
206.37
205.11
204.08
206.11
209.1
217.11
230.34
253.13
283.29
323.17
371.53
431.22
496.28
562.29
622.42
679.35
732.28
781.4
820.44
850.44
872.29
891.46
906.26
917.47
923.25
927.48
929.2
929.48
925.8
921.48
916.18
911.47
903.89
895.46
885.35
876.45
865.8
855.44
843.57
833.43
821.65
809.42
793.68
778.4
761.89
746.39
728.02
709.37
687.92
666.34
641.92
618.32
593.5
570.29
546.43
526.27
508
493.26
477.78
464.24
450.98
441.23
432.68
428.22
424.73
423.22
420.8
421.22
423.02
427.22
429.62
432.22
433.97
437.23
439.2
441.23
441.31
441.23
439.16
437.23
434.25
432.22
429.5
427.22
422.82
417.22
409.84
404.21
399.62
396.2
390.84
385.2
379.34
375.19
370.02
364.19
357.4
353.18
350.1
347.18
341.32
335.17
329.27
325.17
319.73
314.16
307.13
301.16
294.27
289.15
283.22
278.14
270.98
265.14
258.3
253.13
247.83
247.13
248.34
253.13
260.84
281.15
316.6
368.19
426.8
491.25
558.47
630.33
699.89
764.4
817.89
863.45
901.15
935.48
962.74
983.51
996.33
1007.5
1016.5
1023.5
1024.4
1023.5
1022.1
1023.5
1023.6
1023.5
1020.3
1016.5
1010.1
1005.5
1000.2
995.51
987.05
979.51
970.86
963.5
952.88
943.49
933.39
925.48
914.75
904.47
891.75
879.45
862.82
845.44
825.63
808.42
790.43
774.4
756.46
740.38
723.68
710.37
696.88
686.35
676.43
671.35
666.77
663.34
657.38
654.34
652.8
654.34
653.85
654.34
653.81
654.34
651.55
648.34
643.55
640.33
635.21
630.33
624
619.32
613.11
606.31
596.17
586.3
576.15
568.29
559.2
550.28
540.66
534.28
528.28
522.27
513.19
505.26
498.25
493.26
486.17
479.25
472.39
468.24
462.99
457.24
449.42
443.23
436.13
429.22
420.01
413.21
407.22
403.21
396.11
389.2
381.58
377.2
372.01
368.19
363.46
363.19
367.18
381.2
404.03
439.23
482.7
535.28
591.25
650.34
705.72
757.39
802.42
845.44
883.21
915.47
937.81
955.49
969.04
981.51
989.19
995.51
999.44
1003.5
1004
1003.5
1000.9
999.52
996.21
993.51
988.88
985.51
980.08
975.5
969.07
964.5
957.89
951.49
942.25
935.48
928.64
923.48
914.35
904.47
891.5
879.45
864.62
850.44
833.36
816.42
796.42
778.4
760.55
746.39
731.86
720.37
709.33
702.36
695.87
692.36
687.69
684.35
679.76
678.35
677.38
678.35
676.71
675.35
672.22
670.35
666.63
663.34
657.2
650.34
641.21
634.33
627.88
622.32
613.27
603.31
591.99
582.3
571.16
560.29
548.6
539.28
529.16
518.27
504.49
492.25
480.93
471.24
459.69
449.23
439.54
432.22
423.89
416.22
408.09
401.21
392.98
385.2
376.7
369.19
360.75
353.18
345.12
338.17
330.81
325.17
319.05
313.16
304.9
297.15
288.52
281.15
272.29
265.14
258.04
253.13
246.1
239.12
231.62
229.12
230.07
237.12
249.51
274.14
311.14
361.19
416.84
477.25
538.98
603.31
663.83
718.37
762.86
801.41
833.29
860.45
880.04
895.46
905.77
913.47
917.25
921.48
924.9
927.48
925.19
921.48
916.73
913.47
908.28
903.47
897.15
891.46
883.12
875.45
866.65
859.44
850.35
842.44
832.97
824.43
813.24
802.42
788.7
774.4
756.78
740.38
722.93
706.37
686.79
668.35
649.84
634.33
617.61
602.31
586.84
575.3
564.53
556.29
547.67
542.28
537.83
536.28
534.23
534.28
533.79
534.28
532.2
530.27
527.68
527.27
525.35
522.27
516.26
511.26
505.76
500.26
492.23
485.25
478.75
473.24
465.29
457.24
448.78
441.23
431.42
421.22
410.88
403.21
395.88
389.2
381.03
373.19
364.67
357.18
348.96
341.18
332.59
325.17
317.68
311.16
303.94
297.15
289.21
281.15
272.33
265.14
258.75
253.13
245.81
238.12
230.61
225.12
219.52
213.11
204.87
197.1
189.79
183.09
175.36
168.09
162.05
158.08
153.45
147.08
138.93
132.07
126.55
122.06
116.38
111.06
105.36
100.05
92.768
86.045
79.526
75.039
69.355
64.033
57.987
54.028
49.916
48.025
49.028
60.031
83.66
123.06
173.38
233.12
299.17
373.19
449.71
523.27
585.77
638.33
682.49
722.37
755.34
781.4
799.43
813.42
823.24
830.43
833.83
836.43
837.26
836.43
831.79
826.43
820.27
814.42
806.18
798.41
790.08
782.4
771.81
761.39
750.08
740.38
728.85
718.37
707.1
697.36
685
672.35
658.01
646.33
634.29
623.32
610.41
599.31
586.99
574.3
558.16
544.28
532.9
526.27
519.48
514.27
508.52
505.26
502.89
505.26
509.36
514.27
515.06
515.27
515.39
518.27
520.21
522.27
522.33
522.27
519.51
516.27
511.93
509.26
505.69
501.26
493.49
485.25
476.48
469.24
461.1
453.23
444.56
437.23
429.25
421.22
411.12
401.21
391.25
383.2
374.45
365.19
354.39
345.18
336.8
329.17
319.37
309.16
299.11
291.15
282.61
273.14
262.28
253.13
244.97
237.12
227.49
218.11
209.26
201.1
191.36
181.09
170.92
162.08
153.01
144.07
135.36
128.07
120.57
112.06
101.85
92.048
83.368
76.039
68.196
60.031
51.582
44.023
35.875
28.014
20.228
15.008
10.841
8.0041
3.6339
-5.2445e-16
-2.1524
1.3159e-16
1.3593
-7.1043e-16
-3.2225
3.1552e-16
8.3813
19.01
33.598
68.035
128.14
205.11
281.63
355.18
427.28
497.26
556.97
606.31
646.72
680.35
704.49
722.37
736.57
749.39
757.16
760.39
760.63
762.39
764.44
765.4
763.02
760.39
757.61
754.39
747.09
738.38
729.21
722.37
714.45
706.37
695.84
685.35
672.68
660.34
645.73
630.33
611.02
591.31
571.04
554.29
537.79
522.27
504.73
489.25
474.7
463.24
451.16
441.23
432.47
428.22
424.85
423.22
420.74
421.22
423.1
428.22
433.5
441.23
448.84
457.24
463.17
469.24
474.28
480.25
484.59
489.25
492.33
495.26
496.05
497.26
497.33
497.26
494.92
493.26
491.71
491.25
488.52
485.25
481.78
481.25
480.71
479.25
474.18
469.24
465.35
464.24
461.4
456.24
447.97
441.23
435.61
431.22
424.43
417.22
409.93
405.21
400.18
395.2
388.82
384.2
378.88
373.19
364.43
357.18
350.79
347.18
341.81
337.17
331.04
326.17
319.51
315.16
311.72
313.16
318.52
334.17
359.28
396.2
441.28
497.26
558.52
622.32
682.46
742.38
798.04
846.44
881.39
909.47
933.3
955.49
971.04
983.51
992.65
1000.5
1003.4
1005.5
1006.4
1007.5
1004.6
1001.5
998.07
996.52
992.1
987.51
980.87
975.5
967.85
961.5
953.72
947.49
938.84
931.48
922.67
915.47
905.35
895.46
883.37
873.45
861.62
849.44
832.26
814.42
794.59
777.4
759.09
742.38
724.47
710.37
698.04
690.36
682.42
676.35
669.5
666.34
664.02
664.34
662.8
662.34
661.06
662.34
662.25
662.34
660.08
659.34
657.26
654.34
646.68
638.33
629.76
624.32
617.82
610.32
599.21
588.3
576.88
567.29
556.51
546.28
535.23
526.27
516.73
507.26
495.54
485.25
475.94
469.24
461.31
453.23
444.06
437.23
430.83
425.22
417.29
409.21
400.43
393.2
385.13
377.2
368.28
361.19
354.7
349.18
341.59
333.17
324.02
317.16
311
305.16
297.11
289.15
281.12
275.14
269.31
265.14
259.48
253.13
244.2
237.12
230.44
225.12
217.18
210.11
203.1
199.1
195.47
197.1
205.83
227.12
257.39
297.15
344.83
405.21
473.17
543.28
607.41
668.35
724.42
774.4
812.84
844.44
870.49
892.46
906.07
915.47
922.12
928.48
931.25
933.48
934.57
935.48
932.47
928.48
922.81
917.47
909.74
903.47
896.95
891.46
882.99
875.45
867.01
859.44
848.49
838.43
828.21
820.42
809.79
798.41
784.06
770.4
753.65
736.38
716.34
698.36
680.21
664.34
646.61
630.33
614.12
602.31
591.24
582.3
572.43
566.29
562.29
562.29
561.59
562.29
562.13
564.29
566.24
570.29
572.61
574.3
573.4
574.3
574.71
574.3
569.35
564.29
559.54
556.29
549.91
542.28
533.63
527.27
520.6
514.27
505.75
497.26
488.17
481.25
473.68
465.24
454.24
445.23
438.22
433.22
425.71
417.22
408.14
401.21
393.49
385.2
375.33
367.19
359.76
353.18
344.45
335.17
325.32
317.16
308.91
301.16
292.62
285.15
277.69
271.14
263.97
257.13
249.2
241.12
232.38
225.12
218.71
213.11
205.86
198.1
190.43
185.1
179.55
173.09
164.03
156.08
148.81
143.07
135.25
128.07
121.48
118.06
113.16
107.06
99.13
96.05
98.963
111.06
130.56
162.08
206.28
265.14
331.87
403.21
474.6
547.28
615.3
674.35
719.86
757.39
789.08
816.42
835.82
850.44
861.04
869.45
873.24
875.45
876.01
875.45
870.59
864.45
858.04
853.44
846.65
838.43
827.48
817.42
806.35
796.41
784.82
774.4
763.05
753.39
741.68
729.38
713.65
698.36
681.89
667.35
651.9
638.33
623.76
610.32
594.37
578.3
560.08
543.28
525.39
509.26
494.08
484.25
475.92
468.24
458.61
453.23
451.45
452.23
450.14
449.23
450.04
453.23
453.48
453.23
453.35
456.24
457.44
457.24
454.61
452.23
447.58
441.23
432.44
425.22
419.4
415.21
408.86
401.21
392.41
385.2
377.47
369.19
359.38
351.18
343.83
337.17
328.92
321.17
313.21
305.16
294.93
285.15
276.25
269.14
261.69
255.13
248.41
241.12
231.19
221.11
212.11
205.11
197.37
189.1
180.62
174.09
168.47
163.08
155.94
148.08
140.27
134.07
127.67
120.06
111.11
104.05
100.07
98.051
94.025
87.045
78.638
72.037
66.992
62.032
56.072
51.026
47.275
44.023
39.102
34.018
29.32
26.013
21.283
16.008
9.9566
6.0031
2.2531
-3.8503e-16
-1.6292
-3.9636e-17
0.92389
-5.2945e-16
-2.5224
3.0016
20.666
52.027
93.864
150.08
219.69
299.15
379.18
457.24
528.62
591.31
643.23
690.36
732.64
766.4
785.94
797.41
807.18
818.42
826.2
830.43
831.6
832.43
831.26
829.43
826.03
822.43
816.58
810.42
802.43
794.41
784.13
774.4
763.45
753.39
741.21
729.38
715.61
702.36
686.46
670.35
652.06
635.33
617.92
602.31
585.52
570.29
553.78
538.28
520.87
505.26
490.46
480.25
471.11
464.24
456.89
453.23
451.46
453.23
454.97
459.24
463.48
469.24
474
481.25
488.88
497.26
502.89
509.26
515.81
523.27
526.89
528.27
528.11
530.27
531.68
531.27
526.27
520.27
513.85
509.26
503.96
499.26
493.57
488.25
480.85
473.24
465.11
459.24
453.54
448.23
440.72
433.22
425.34
419.22
412.3
405.21
396.52
389.2
382.43
377.2
370.76
364.19
356.36
349.18
341.05
333.17
324.47
317.16
310.37
305.16
299.51
294.15
287.55
281.15
274.46
269.14
263.37
257.13
249.45
243.13
237.81
233.12
225.61
217.11
208.54
203.11
197.97
193.1
185.44
178.09
170.92
167.09
162.06
156.08
149.05
148.08
150.37
154.08
158.68
177.09
213.5
265.14
321.69
385.2
455.36
530.27
600.61
666.34
725.22
776.4
815.11
846.44
872.67
895.46
910.08
919.48
925.47
931.48
934.41
935.48
933.96
932.48
928.68
923.48
914.78
905.47
894.43
884.46
873.31
863.45
852.07
841.44
828.87
817.42
803.99
790.41
773.88
758.39
741.43
724.37
703.37
682.35
660.05
639.33
616.9
596.31
575.92
558.29
539.59
522.27
504.33
489.25
475.13
465.24
456.83
451.23
444.87
440.23
435.49
433.22
431.01
431.22
431.53
433.22
433.16
433.22
432.36
433.22
433.44
433.22
429.73
425.22
419.8
416.22
412.39
408.21
401.16
393.2
384.48
377.2
369.3
361.19
352.18
345.18
339.11
333.17
324.21
314.16
304.37
297.15
289.72
281.15
270.78
262.14
255.19
249.13
240.72
231.12
221.27
213.11
205.1
197.1
188.02
179.09
170.37
163.08
155.92
148.08
138.21
128.07
118.46
110.06
101.22
92.048
82.513
74.038
66.537
60.031
52.635
44.023
35.014
28.014
22.064
15.008
6.308
1.181e-16
-1.5528
-2.0758e-16
0.64336
1.1212e-16
-0.49535
-1.7272e-16
0.22071
8.7119e-17
-0.22582
-1.7696e-16
-0.0069166
3.4121e-18
-0.18415
-2.6009e-16
-0.31102
-2.7446e-17
-0.13053
-3.5322e-16
-0.61788
2.1609e-17
0.11565
-4.6026e-16
-1.1213
1.2433e-16
0.91695
-5.7448e-16
-3.1412
2.1443e-16
13.661
40.021
78.744
136.07
210.73
294.15
372.19
441.23
500.7
552.29
594.27
630.33
661.15
686.35
702.32
712.37
720.01
728.38
734.63
738.38
739.48
740.38
739.83
737.38
732
726.38
720.15
713.37
703.36
692.36
679.63
666.34
649.72
632.33
613.51
595.31
574.84
554.29
532.41
511.26
487.58
463.24
438.14
417.22
398.79
383.2
367.01
353.18
340.17
329.17
317.62
309.16
302.53
298.15
292.56
289.15
287.69
289.15
289.66
291.15
293.03
297.15
301.27
307.16
312.79
318.16
321.26
325.17
329.23
333.17
334.27
335.17
335.93
337.17
337.05
338.17
339.84
341.18
339.29
337.17
336.13
337.17
337.2
337.17
336.82
337.17
335.58
333.17
330.49
330.17
329.95
329.17
326.57
325.17
323.97
322.17
317.43
313.16
310.8
311.16
310.52
309.16
306.71
305.16
302.27
299.15
294.53
291.15
287.27
285.15
282.31
281.15
279.1
278.14
274.06
269.14
263.4
263.14
265.53
271.14
279.47
301.16
338.9
392.2
451.03
515.27
583.79
658.34
729.38
792.41
843.42
888.46
926.87
959.5
982.23
999.52
1011.5
1020.5
1023.2
1023.5
1022.4
1023.5
1023.4
1023.5
1022.5
1023.5
1022.7
1020.5
1014
1007.5
999.32
991.51
980.15
969.5
957.87
948.49
937.29
927.48
915.48
903.47
887.85
873.45
857.82
842.44
821.94
800.41
777.3
757.39
736.97
718.37
697.7
678.35
658.54
643.33
629.51
618.32
605.82
596.31
587.31
580.3
571.62
566.29
563.41
564.29
563.19
562.29
560.84
562.29
562.57
562.29
558.97
556.29
552.85
550.28
544.91
538.28
529.44
522.27
515.25
509.26
501.05
492.25
481.45
471.24
460.82
453.23
447.11
443.23
438.01
432.22
424.4
417.22
409.5
403.21
396.88
392.2
386.76
381.2
373.86
367.19
360.03
353.18
344.73
337.17
330.6
326.17
320.42
313.16
304.2
297.15
291.07
285.15
276.97
269.14
262.26
257.13
251.46
246.13
239.94
233.12
224.52
217.11
210.62
205.11
197.66
191.1
185.15
181.09
174.77
168.09
160.36
155.08
149.14
144.07
138.17
136.07
136.9
144.07
156.9
181.09
216.63
266.14
326.09
397.21
473.21
550.28
621.02
686.35
744.44
796.41
838.04
871.45
897.13
919.48
936.32
948.49
954.8
959.5
961.53
961.5
957.43
953.49
948.94
943.49
933.05
921.48
909.69
900.47
889.7
879.45
867.77
857.44
845.07
833.43
819.75
806.42
790.07
774.4
757.54
742.38
724.59
706.37
685.81
667.35
647.42
627.32
604.82
586.3
570.57
558.29
544.03
531.27
518.84
509.26
499.05
492.25
487.76
487.25
485.73
485.25
484.7
487.25
489.37
492.25
493.88
497.26
499.49
501.26
500.59
501.26
501.56
501.26
496.96
492.25
487.55
484.25
478.85
473.24
467.35
463.24
457.98
452.23
444.53
437.23
429.46
423.22
416.29
409.21
400.47
393.2
387.14
383.2
378.05
372.19
364.5
357.18
348.99
341.18
332.53
325.17
318.36
313.16
307.31
301.16
293.19
285.15
276.62
269.14
261.08
253.13
245.01
239.12
234.21
229.12
221.4
213.11
205.3
199.1
192.34
185.1
177.09
170.09
163.89
159.08
153.93
148.08
140.87
134.07
127.15
120.06
111.56
104.05
97.895
94.049
88.936
83.043
76.133
72.037
67.66
62.032
53.47
48.025
44.991
44.023
43.391
51.026
68.107
94.049
126.24
173.09
235.94
310.16
385.56
463.24
541.22
614.32
673.27
721.37
762.36
798.41
825.38
846.44
863.35
877.45
885.06
888.46
888.65
887.46
882.64
876.45
868.66
860.45
849.45
838.43
827.14
817.42
805.64
793.41
779.22
766.4
752.21
738.38
722.03
706.37
689.53
674.35
657.81
642.33
625.52
610.32
593.88
578.3
560.83
544.28
526.22
509.26
491.73
477.25
463.35
451.23
438.04
427.22
417.2
409.21
399.84
392.2
386.16
384.2
382.46
381.2
378.41
377.2
376.34
377.2
376.99
377.2
376.62
377.2
376.53
375.19
371.86
369.19
366.17
363.19
357.92
352.18
346.01
341.18
335.76
330.17
323.34
317.16
310.79
305.16
298.94
293.15
286.3
279.14
271.33
265.14
259.3
253.13
244.88
237.12
230.49
225.12
218.06
210.11
202.42
197.1
191.83
185.1
176.17
168.09
161.29
155.08
147.43
140.07
134.18
130.07
125.19
119.06
111.58
104.05
96.517
90.047
84.284
79.041
73.366
68.035
62.935
58.03
52.505
47.024
41.477
36.019
30.422
26.013
22.089
18.009
12.47
8.0041
4.6367
3.0016
0.7581
-7.9842e-17
-0.53845
-3.9863e-16
-0.69834
-1.4012e-16
0.16638
-3.3465e-16
-2.3466
-2.2296e-16
12.268
40.021
79.856
131.07
191.89
265.14
346.02
429.22
507.03
579.3
643.39
698.36
741.51
777.4
807.7
833.43
851.26
863.45
870.77
875.45
876.63
877.45
877.4
875.45
867.88
857.44
845.99
836.43
825.67
814.42
800.98
788.41
774.59
761.39
745.79
730.38
713.45
698.36
682.14
666.34
647.83
630.33
612.82
598.31
582.49
566.29
547.27
530.27
514.2
501.26
487.48
475.25
462.81
453.23
443.32
435.23
427.57
424.22
422.05
421.22
418.81
419.22
421.7
427.22
431.68
437.23
442.61
449.23
453.57
457.24
459.1
461.24
461.29
461.24
460.51
461.24
460.15
457.24
451.81
448.23
445.62
443.23
437.98
433.22
429.5
427.22
422.3
416.22
409.63
405.21
400.28
395.2
388.89
384.2
380.1
377.2
372.62
367.19
359.91
353.18
346.4
341.18
335.6
330.17
323.36
317.16
310.74
305.16
299.09
294.15
288.82
283.15
275.76
269.14
263.11
258.13
252.31
247.13
242.05
237.12
229.95
222.11
215.14
211.11
207.05
201.1
192.87
186.1
180.72
175.09
167.04
160.08
155.91
154.08
149.59
143.07
135.99
132.07
127.71
122.06
113.74
108.06
103.57
100.05
94.489
92.048
91.996
95.049
100.02
116.06
146.1
190.1
241.31
302.16
371.89
449.23
525.85
600.31
668.6
729.38
778.1
818.42
851.54
879.45
898.6
911.47
919.68
927.48
932.8
935.48
932.89
927.48
919.33
911.47
902.35
893.46
882.7
872.45
860.96
850.44
837.67
824.43
808.64
794.41
779.75
766.4
750.32
734.38
717.21
702.36
686.36
670.35
650.87
631.33
610.31
591.31
571.89
554.29
535
516.27
496.87
481.25
466.66
453.23
437.57
424.22
412.97
405.21
396.52
389.2
382.89
380.2
377.44
375.19
371.42
369.19
367.8
369.19
369.75
369.19
366.29
365.19
364.8
364.19
360.26
356.18
352.37
349.18
343.69
338.17
333.32
330.17
325.89
321.17
315.24
309.16
301.72
295.15
289.48
285.15
279.51
273.14
265.8
259.13
252.04
245.13
237.34
230.12
223.58
219.11
214.66
209.11
201.2
193.1
185.02
177.09
168.15
160.08
153.49
148.08
140.94
132.07
122.9
116.06
110.36
104.05
95.878
88.046
81.547
76.039
69.401
62.032
54.683
48.025
40.526
32.017
23.204
16.008
10.405
6.0031
2.2091
-1.5766e-16
-0.76192
-2.6348e-17
0.20277
-3.8204e-16
-0.82526
1.2601e-16
0.35619
-6.6054e-16
-1.4163
3.6842e-16
1.1483
-9.3296e-16
-2.8177
5.9931e-16
3.6689
-1.118e-15
-9.0433
7.3043e-16
40.616
104.05
169.22
233.12
300.66
373.19
441.77
504.26
559.37
606.31
641.63
670.35
695.72
718.37
734.08
745.39
754.31
762.39
766.87
769.4
770.86
772.4
770.95
766.4
758.47
750.39
741.35
732.38
721.4
710.37
696.94
682.35
665.43
650.34
634.87
618.32
597
575.3
553.21
532.28
509.48
489.25
471.56
457.24
441.08
425.22
409.62
397.21
384.06
371.19
357.51
347.18
338.7
333.17
327.33
323.17
319.37
318.16
316.99
317.16
316.86
318.16
319.15
321.17
322.52
325.17
327.41
330.17
331.44
333.17
334.56
337.17
339.11
341.18
341.42
341.18
340.13
341.18
343.05
345.18
344.6
343.18
341.35
341.18
340.87
341.18
340.8
341.18
340.97
341.18
340.19
339.18
337.46
337.17
337.12
337.17
334.45
330.17
325.02
322.17
319.83
317.16
311.58
306.16
301.09
298.15
293.7
289.15
282.83
278.14
273.08
270.14
265.53
261.14
255.45
254.13
255.62
262.14
272.25
293.15
324.96
369.19
421.21
484.25
554.83
630.33
701.44
768.4
829.03
885.46
932.66
971.5
998.42
1015.5
1021.7
1023.5
1022.8
1023.5
1022.9
1023.5
1023.1
1023.5
1022.6
1023.5
1023.4
1023.5
1021.9
1023.5
1024.7
1023.5
1013.7
1001.5
989.04
980.51
968.98
955.49
938.53
924.48
910.42
897.46
880.61
863.45
843.63
824.43
802.38
781.4
759
738.38
716.41
697.36
678.53
662.34
644.97
630.33
615.72
603.31
589.62
579.3
570.86
566.29
560.58
556.29
552.02
551.29
550.34
550.28
547.9
546.28
543.89
543.28
541.06
538.28
532.79
528.27
523.6
520.27
514.93
509.26
501.86
495.26
487.8
481.25
473.21
465.24
456.29
449.23
441.59
433.22
422.25
413.21
406.69
403.21
398.1
392.2
385.63
381.2
375.86
369.19
360.19
353.18
348.2
345.18
340.19
334.17
327.05
321.17
314.9
309.16
302.79
297.15
290.27
283.15
275.22
269.14
262.95
257.13
249.39
243.13
237.27
233.12
225.98
218.11
210.07
207.11
204.47
201.1
196.2
199.1
209.47
226.12
246.35
281.15
333.83
401.21
470.38
540.28
609.54
678.35
739.29
793.41
840.12
881.46
912.58
935.48
951.06
964.5
973.94
980.51
982.44
983.51
982.47
980.51
975.07
969.5
962.61
955.49
944.6
933.48
921.77
912.47
901.63
891.46
879.67
869.45
857.24
845.44
831.23
818.42
804.62
792.41
777.18
760.39
739.23
718.37
696.13
675.35
652.83
632.33
611.91
594.31
575.67
558.29
539.6
523.27
507.84
497.26
488.69
483.25
476.85
472.24
467.58
465.24
461.97
460.24
458.63
460.24
462.24
465.24
465.53
465.24
464.01
465.24
465.89
465.24
460.65
456.24
452.72
451.23
447.28
441.23
433.21
427.22
421.68
416.22
408.37
401.21
395.08
391.2
386.14
380.2
372.38
365.19
357.7
351.18
343.88
337.17
330.33
325.17
319.52
313.16
304.69
297.15
290.6
285.15
277.62
269.14
260.72
255.13
250.39
245.13
237.27
229.12
221.39
215.11
208.26
201.1
193.16
186.1
179.76
175.09
170
164.08
156.47
150.08
144.27
139.07
131.47
124.06
116.89
112.06
105.68
99.051
91.718
88.046
85.087
83.043
80.811
86.045
101.01
128.07
163.38
210.11
268.07
338.17
413.09
489.25
560.96
628.32
688.1
741.38
785.66
822.43
850.06
871.45
886.3
897.46
903.88
907.47
906.94
904.47
899.3
893.46
885.04
875.45
863.81
853.44
842.71
832.43
819.35
806.42
792.54
780.4
766.7
753.39
737.76
722.37
704.72
688.36
671.9
658.34
644.05
630.33
614.08
598.31
580.7
563.29
542.8
522.27
501.35
484.25
467.78
452.23
435.15
421.22
409.37
400.21
389.79
381.2
373.78
369.19
364.2
361.19
359.1
359.19
357.98
357.18
356.24
357.18
356.76
355.18
351.55
349.18
346.78
344.18
339.33
335.17
331.74
329.17
324.26
318.16
311.17
305.16
298.78
293.15
287.39
282.15
275.64
269.14
262.51
257.13
251.29
245.13
237.73
231.12
225.38
221.11
215.76
209.11
201.28
195.1
190.05
185.1
177.88
170.09
163.36
159.08
154.46
148.08
140.23
134.07
129.02
123.06
114.91
108.06
104.29
102.05
97.5
91.047
84.748
80.041
75.293
70.036
64.339
59.031
53.488
48.025
42.566
38.02
33.712
30.016
25.21
20.01
14.034
10.005
6.4689
4.0021
0.83925
-7.5633e-17
-0.33096
-4.7971e-16
-1.2972
-3.691e-18
3.7682
12.006
25.003
51.026
93.181
152.08
220.84
297.15
375.45
453.23
526.75
598.31
663.88
718.37
756.69
785.41
810.11
833.43
850.95
863.45
871.28
876.45
877.42
876.45
873.09
867.45
857.15
845.44
833.75
824.43
813.87
802.42
788.17
774.4
759.42
745.39
729.56
714.37
697.11
680.35
662.31
646.33
628.74
610.32
589.15
571.3
555.67
542.28
525.55
509.26
494.18
483.25
470.51
456.24
440.21
429.22
421.78
417.22
410.31
404.21
398.84
397.21
396.57
399.21
402.61
407.21
409.68
413.21
417.58
424.22
428.93
432.22
432.72
433.22
432.7
433.22
433.08
433.22
431.38
429.22
426.08
424.22
421.82
419.22
414.28
409.21
403.86
400.21
396.15
392.2
386.57
381.2
375.5
371.19
365.92
360.19
353.48
349.18
346.08
343.18
337.37
331.17
325.32
321.17
315.92
310.16
303.29
297.15
290.68
285.15
279.42
274.14
267.61
261.14
254.5
249.13
243.3
237.12
229.68
223.12
217.45
213.11
207.64
201.1
193.47
187.1
181.65
177.09
171.63
166.09
160.2
155.08
149.36
144.07
138.46
134.07
128.7
123.06
115.18
108.06
101.46
98.051
94.069
90.047
84.957
84.043
85.505
90.047
97.3
116.06
148.13
193.1
244.79
306.16
377.04
456.24
533.92
606.31
669.71
726.38
774.79
817.42
852.16
879.45
896.89
908.47
916.39
924.48
929.83
931.48
927.16
920.48
912.21
904.47
894.36
883.46
871.39
861.45
850.14
837.43
821.08
806.42
792.52
780.4
765.37
750.39
733.9
718.37
700.58
684.35
668.36
654.34
637.01
618.32
597.83
580.3
562.12
543.28
521.13
501.26
483.49
469.24
453.97
440.23
427.19
417.22
406.53
397.21
388.67
384.2
380.38
377.2
372.26
369.19
367.15
367.19
365.94
365.19
364.31
365.19
364.7
363.19
359.67
357.18
354.59
352.18
347.97
344.18
340.37
337.17
332.06
326.17
319.24
313.16
306.77
301.16
295.28
290.15
284.38
279.14
273.72
269.14
263.5
257.13
249.53
243.13
237.61
233.12
227.6
222.11
216.39
211.11
204.47
197.1
189.02
182.09
176
171.09
165.68
160.08
154.39
150.08
145.42
139.07
130.74
124.06
120.32
118.06
113.54
107.06
100.58
96.05
91.686
86.045
78.743
72.037
67.05
64.033
61.186
58.03
53.989
50.026
45.111
40.021
34.265
30.016
25.788
22.011
16.473
12.006
8.2447
7.0036
5.0713
4.0021
3.3664
8.0041
18.908
40.021
69.687
110.06
160.86
225.12
297.35
373.19
448.34
526.27
602.79
670.35
720.41
758.39
791.07
822.43
846.85
863.45
873.26
881.46
887.68
892.46
893.34
891.46
886.04
879.45
870.39
860.45
848.73
838.43
827.43
816.42
