646.33
725.33
631.33
581.25
623.32
647.69
618.32
600.02
619.32
632.45
622.32
614.01
618.32
617.48
607.31
598.64
596.31
593.16
586.3
575.95
564.29
552.37
543.28
533.29
522.27
508.39
495.26
482.3
471.24
459.69
449.23
437.99
427.22
414.88
403.21
391.4
381.2
370.43
360.19
348.88
338.17
326.92
317.16
307.54
299.15
289.85
281.15
271.06
261.14
249.56
239.12
228.04
218.11
206.9
197.1
186
175.09
162.62
154.08
149.55
152.08
159.91
178.09
206.11
245.13
289.96
341.18
395.01
451.23
505.17
558.29
607.84
654.34
694.26
730.38
761.6
789.41
810.34
826.43
836.84
844.44
847.75
849.44
848.24
846.44
842.86
840.43
836.67
832.43
825.99
822.43
820.67
821.42
819.7
818.42
815.88
814.42
809.57
804.42
796.97
790.41
780.52
770.4
758.5
749.39
739.44
730.38
719.04
710.37
703.2
700.36
696.85
694.36
690.77
690.36
689.77
690.36
689.18
690.36
690.71
690.36
685.27
680.35
675.44
672.35
665.9
658.34
649.23
642.33
634.33
626.32
615.92
606.31
595.69
586.3
575.93
567.29
558.28
550.28
540.18
530.27
519.55
511.26
503.43
497.26
489.08
480.25
469.48
461.24
454.2
449.23
441.28
432.22
421.29
413.21
404.92
397.21
386.45
377.2
368.73
364.19
359.35
357.18
357.88
368.19
386.32
413.21
444.11
481.25
520.82
563.29
604.71
648.34
690.63
730.38
761.71
788.41
811.18
833.43
850.51
863.45
870.67
876.45
879.25
881.46
880.64
879.45
875.82
872.45
867.51
864.45
861.03
859.44
856.54
855.44
853.34
852.44
849.06
846.44
841.43
836.43
828.05
820.42
810.97
802.42
791.45
782.4
772.76
764.4
752.86
742.38
732.82
728.38
724.13
720.37
714.15
710.37
707.04
705.36
701.1
697.36
691.96
686.35
676.59
666.34
655.54
647.33
637.37
626.32
612.29
599.31
585.54
572.3
556.82
542.28
527.48
514.27
499.96
487.25
475.06
465.24
454.73
445.23
435.36
427.22
418.17
409.21
398.42
388.2
377.72
369.19
360.64
353.18
344.82
337.17
327.85
318.16
306.74
297.15
288.21
281.15
271.89
262.14
250.67
241.12
230.72
221.11
210.81
205.11
203.57
209.11
220.07
241.12
271.01
310.16
353.19
401.21
451.49
504.26
553.87
600.31
641.02
678.35
710.16
738.38
760.48
778.4
791.21
802.42
809.77
813.42
811.41
808.42
804.96
802.42
797.44
792.41
786.38
781.4
774.92
770.4
766.59
765.4
762.64
760.39
755.58
750.39
741.95
734.38
725.21
716.37
704.49
694.36
684.82
678.35
670.56
664.34
657.89
654.34
650.28
648.34
646.13
646.33
645.68
646.33
645.64
646.33
645.83
646.33
644.6
642.33
636.97
631.33
623.38
615.32
604.74
594.31
582.59
572.3
561.25
551.29
540.27
530.27
518.98
508.26
496.72
487.25
477.83
469.24
458.85
449.23
439.45
431.22
421.87
413.21
404.35
397.21
388.73
379.2
367.46
357.18
348.15
341.18
333.15
325.17
316.47
309.16
300.98
293.15
284.31
277.14
269.15
261.14
250.66
241.12
231.08
222.11
210.94
201.1
193.09
191.1
191.9
197.1
207.08
229.12
262.55
306.16
352.95
403.21
453.94
505.26
552.75
598.31
640.02
678.35
709.01
734.38
754.83
773.4
786.48
794.41
796.66
798.41
799.52
800.41
797.27
792.41
786.34
782.4
777.48
772.4
765.64
761.39
757.34
754.39
749.18
745.39
740.19
734.38
724.07
714.37
704.66
697.36
688
680.35
673.45
670.35
666.39
663.34
658.53
655.34
651.47
650.34
649.4
650.34
648.85
647.33
645.04
646.33
647.65
648.34
644.52
640.33
635.1
630.33
622.35
614.32
605.66
598.31
588.56
578.3
566.58
556.29
545.23
535.28
524.36
514.27
502.88
492.25
480.18
468.24
455.38
445.23
436.2
428.22
417.82
407.21
395.73
385.2
374.13
365.19
356.92
349.18
339.16
329.17
318.78
309.16
298.62
290.15
282.98
277.14
268.52
259.13
249.08
241.12
231.53
221.11
208.8
199.1
189.73
181.09
170.62
164.08
163.05
171.09
185.46
209.11
240.57
281.15
326.22
376.19
427.47
480.25
530.27
578.3
621.23
660.34
693.97
725.38
752.4
774.4
787.32
794.41
797.91
802.42
805.48
806.42
802.37
796.41
788.76
782.4
775.56
770.4
764.74
760.39
754.4
749.39
743.15
738.38
731.95
726.38
718.34
710.37
699.79
690.36
679.07
668.35
655.98
647.33
640.85
638.33
635.42
635.33
636.24
640.33
643.08
646.33
647.77
650.34
651.12
652.34
651.28
650.34
647.08
644.33
640.07
636.33
629.87
622.32
611.97
602.31
592.14
583.3
572.78
562.29
550.5
540.28
529.45
519.27
507.64
497.26
486.34
476.25
464.93
455.24
445.73
437.23
426.68
416.22
405.13
395.2
383.95
373.19
362.74
355.18
348.13
341.18
331.42
321.17
310.85
303.16
294.66
285.15
273.59
265.14
258.57
253.13
243.85
234.12
224.36
217.11
207.74
198.1
189
187.1
191.79
205.11
224.95
255.13
293.14
338.17
384.51
433.22
481.87
531.27
577.59
622.32
662.6
698.36
725.95
748.39
765.69
780.4
790.47
798.41
802.97
805.42
803.61
800.41
795.26
790.41
784.49
780.4
775.32
769.4
760.54
754.39
750.36
748.39
742.12
734.38
725.21
718.37
708.7
697.36
683.1
672.35
663.58
658.34
652.18
648.34
644.65
643.33
640.32
638.33
635.31
634.33
632.92
634.33
635.77
638.33
638.14
638.33
637.72
638.33
635.52
630.33
621.9
615.32
609.32
604.31
595.96
586.3
574.68
564.29
553.21
543.28
532.38
522.27
510.81
500.26
489.13
479.25
468.03
457.24
446.01
437.23
428.32
419.22
407.66
397.21
387.77
380.2
370.93
361.19
350.47
341.18
331.58
323.17
314.41
307.16
299.54
293.15
285.26
277.14
266.95
258.13
249.05
241.12
230.87
221.11
211.2
205.11
200.83
201.1
204.9
217.11
237.03
267.14
304.21
349.18
397.11
447.23
496.09
546.28
594.15
638.33
675.27
709.37
739.67
765.4
782.17
794.41
803.85
812.42
816.24
817.42
816.07
814.42
809.76
804.42
798.07
793.41
787.55
782.4
776.6
773.4
769.42
765.4
757.79
750.39
741.39
733.38
722.61
712.37
700.52
690.36
679.03
670.35
661.93
656.34
650.11
646.33
642.23
640.33
638.36
640.33
643
646.33
646.05
646.33
646.48
648.34
647.54
646.33
642.9
639.33
632.81
626.32
618.31
610.32
599.31
588.3
576.82
567.29
556.66
546.28
534.59
524.27
513.35
503.26
491.8
481.25
470.12
460.24
449.4
439.23
427.86
417.22
405.96
396.2
385.71
375.19
363.26
353.18
344.34
337.17
328.04
318.16
306.94
297.15
286.7
277.14
266.7
258.13
249.08
241.12
231.54
223.12
213.63
205.11
195.28
189.1
188.26
198.1
215.7
241.12
271.07
309.16
353.85
405.21
456.61
507.26
554.86
602.31
646.14
685.35
716.1
741.38
761.17
778.4
791.4
802.42
809.44
813.42
812.53
810.42
807.22
804.42
798.28
790.41
780.93
774.4
768.75
764.4
757.27
750.39
742.94
738.38
732.31
725.38
714.51
704.36
692.89
682.35
669.65
659.34
649.73
643.33
636.9
634.33
633.12
634.33
633.55
634.33
635.34
638.33
638.48
638.33
637.63
640.33
642.15
642.33
637.27
631.33
624.78
620.32
613.9
606.31
595.89
586.3
576.23
567.29
556.66
546.28
534.64
524.27
513.24
503.26
491.96
481.25
469.8
460.24
450.41
441.23
430.57
421.22
412.01
404.21
395.56
388.2
380.57
373.19
363.25
353.18
342.7
334.17
325.08
317.16
308.46
301.16
292.74
285.15
275.21
265.14
254.21
247.13
240.55
234.12
226.06
225.12
234.21
255.13
281.42
314.16
351.96
397.21
445.6
497.26
547.11
594.31
635.39
674.35
710.48
744.38
771.18
792.41
807.17
818.42
824.78
829.43
831.42
832.43
830.03
826.43
820.43
814.42
807.05
801.41
795.51
790.41
782.92
776.4
769.78
765.4
758.5
750.39
739.12
729.38
718.6
708.37
695.07
682.35
667.98
654.34
639.03
627.32
618.55
614.32
609.09
604.31
598.7
596.31
594.52
594.31
591.6
588.3
583.33
580.3
576.1
570.29
559.65
548.28
536.72
527.27
516.48
505.26
492.06
479.25
465.34
452.23
438.41
425.22
410.27
395.2
380.12
368.19
356.9
345.18
331.28
319.17
308.47
298.15
285.22
273.14
263.16
255.13
245.09
234.12
222.96
213.11
202.68
193.1
183.46
174.09
162.81
152.08
141.26
131.07
118.96
107.06
93.729
80.041
65.283
54.028
45.047
38.02
32.212
36.019
53.173
83.043
117.36
155.08
196.78
245.13
295.14
343.18
385.19
423.22
457.49
489.25
515.43
536.28
552.63
568.29
581.67
590.31
591.95
590.31
587.58
584.3
578.06
570.29
561.93
554.29
545.06
535.28
524.44
514.27
502.17
489.25
474.37
460.24
444.73
429.22
412.18
397.21
383.01
371.19
359.83
353.18
351.47
356.18
362.21
369.19
375.72
385.2
394.99
404.21
409.84
415.21
420.07
425.22
427.66
429.22
428.86
427.22
422.37
417.22
411.93
407.21
400.47
393.2
385.09
377.2
367.86
359.19
351.33
345.18
337.65
329.17
320.3
314.16
308.41
301.16
290.59
281.15
274
269.14
262.36
255.13
247.4
241.12
233.09
225.12
216.22
209.11
200.75
193.1
184.45
178.09
171.49
167.09
163.84
168.09
181.72
209.11
245.33
289.15
337.16
393.2
453.72
516.27
574.61
631.33
684.57
734.38
776.52
814.42
846.75
873.45
890.74
903.47
912.97
921.48
925.89
929.48
931.25
931.48
926.4
920.48
914.96
912.47
908.09
903.47
897.23
893.46
888.84
885.46
879.83
875.45
869.33
864.45
856.59
848.44
836.89
826.43
814.71
805.42
794.92
786.41
776.93
770.4
763.96
760.39
755.65
752.39
748.09
746.39
743.41
740.38
734.1
729.38
724.86
722.37
716.66
709.37
698.58
688.36
676.71
666.34
654.52
643.33
629.73
616.32
601.95
590.31
578.74
568.29
556.59
547.28
538.41
530.27
519.11
508.26
497.56
489.25
479.3
469.24
457.7
448.23
438.15
429.22
418.57
409.21
398.27
388.2
376.52
367.19
357.47
349.18
339.21
333.17
332.11
341.18
356.99
381.2
410.41
447.23
487.62
532.28
576.59
622.32
665.91
708.37
745.02
777.4
803.32
826.43
844.92
861.45
873.51
883.46
888.64
891.46
890.47
889.46
886.81
884.46
879.57
875.45
870.84
868.45
864.39
860.45
854.31
850.44
846.72
845.44
841.7
837.43
829.58
822.43
813.62
806.42
797.01
788.41
778.18
770.4
761.53
753.39
742.76
734.38
726.76
722.37
716.76
712.37
707.11
704.36
700.86
698.36
693.35
688.36
680.97
674.35
666.11
658.34
647.63
636.33
623.23
612.32
601.11
590.31
576.64
563.29
549.17
536.28
521.97
509.26
497.61
489.25
480.34
471.24
459.73
449.23
438.3
429.22
419.37
411.21
401.87
393.2
382.19
372.19
361.03
351.18
339.28
329.17
320.37
317.16
316
319.17
326.44
345.18
374.16
412.21
451.21
492.25
534.82
582.3
628.59
671.35
706.38
738.38
767.2
794.41
814.69
829.43
838.88
848.44
855.5
859.44
857.08
853.44
849.7
848.44
845.6
842.44
837.06
832.43
826.16
821.42
816.54
814.42
811.17
808.42
802.74
797.41
789.71
782.4
771.86
761.39
749.41
740.38
730.91
722.37
711.32
702.36
694.21
689.36
683.34
678.35
672.17
668.35
664.55
663.34
660.91
658.34
652.6
647.33
640.7
634.33
624.55
614.32
603.1
594.31
584.71
575.3
564.08
554.29
543.23
531.27
516.63
504.26
493.76
485.25
474.54
464.24
453.93
445.23
434.78
425.22
415.7
408.21
398.74
389.2
378.21
369.19
358.88
349.18
338.22
330.17
321.58
313.16
302.88
298.15
300.05
311.16
327.7
353.18
385.02
423.22
463.17
508.26
555.37
602.31
642.67
680.35
715.89
750.39
777.47
798.41
813.34
826.43
834.95
840.43
841.64
842.44
841.5
840.43
836.58
832.43
826.8
822.43
816.86
812.42
807.25
804.42
800.92
798.41
793.36
788.41
780.55
772.4
761.16
750.39
737.33
724.37
708.59
694.36
680.47
670.35
660.87
654.34
646.98
640.33
631.92
626.32
622.04
620.32
616.39
612.32
606.62
602.31
596.52
591.31
584.44
578.3
570.33
562.29
551.56
540.28
527.42
516.27
504.67
493.26
479.96
468.24
457.13
447.23
435.8
425.22
414.14
403.21
390.32
379.2
369.38
361.19
350.32
339.18
327.56
318.16
307.46
297.15
285.45
275.14
263.03
251.13
238.11
229.12
223.81
225.12
229.95
241.12
258.05
285.15
320.43
364.19
410.21
457.24
501.76
546.28
587.83
626.32
658.72
688.36
713.58
734.38
747.4
756.39
762.02
766.4
767.02
766.4
763.71
760.39
754.54
749.39
743.75
738.38
730.78
725.38
721.72
720.37
715.89
710.37
702.78
696.36
687.74
679.35
668.61
658.34
646.23
636.33
626.84
620.32
613.81
610.32
606.8
604.31
599.5
596.31
593.85
594.31
593.82
594.31
593.75
594.31
592.69
590.31
584.64
578.3
570.39
564.29
557.56
550.28
539.43
528.27
516.84
507.26
496.39
485.25
472.37
460.24
447.57
436.23
424.26
413.21
401.77
392.2
382.42
373.19
362.43
353.18
344.32
337.17
327.9
318.16
306.76
297.15
286.17
275.14
262.74
254.13
246.87
241.12
234.77
235.12
242.96
259.13
279.58
309.16
347.16
392.2
437.06
483.25
529.04
574.3
614.13
651.34
684.51
713.37
733.84
750.39
764.19
776.4
782.39
784.41
783.32
782.4
779.54
776.4
771.09
765.4
758.44
754.39
751.16
748.39
742.33
737.38
732.96
730.38
724.66
718.37
709.54
700.36
687.17
674.35
662.12
654.34
646.17
638.33
628.68
622.32
617.44
615.32
611.91
610.32
609.07
610.32
610.04
610.32
609.52
610.32
608.93
606.31
600.45
595.31
589.52
584.3
575.92
566.29
554.63
544.28
533.36
523.27
511.82
501.26
490.11
480.25
469.45
459.24
447.78
437.23
426.32
417.22
407.78
399.21
389.5
381.2
372.3
364.19
354.22
345.18
334.9
325.17
313.36
303.16
293.04
285.15
276.1
269.14
263.2
262.14
264.58
275.14
293.15
321.17
355.02
395.2
437.62
483.25
528.58
574.3
615.19
651.34
682.12
713.37
742.49
766.4
779.96
788.41
793.91
798.41
798.71
798.41
797.59
796.41
790.28
782.4
774.67
770.4
765.47
760.39
753.81
749.39
744
738.38
729.8
722.37
713.64
704.36
690.98
678.35
665.81
655.34
642.82
631.33
618.67
606.31
591.6
580.3
573.29
572.3
571.3
570.29
566.79
563.29
557.52
552.29
546.44
542.28
536.64
530.27
520.92
511.26
500.16
489.25
475.84
461.24
444.62
429.22
414.36
401.21
387.19
373.19
358.13
344.18
330.2
317.16
303.31
290.15
277.17
266.14
255.38
245.13
233.72
223.12
212.24
202.1
191.02
181.09
170.27
159.08
146.13
135.07
123.87
112.06
97.959
87.045
78.475
71.037
63.143
64.033
78.024
104.05
133.91
168.09
207.42
253.13
300.06
347.18
391.48
432.22
466.63
497.26
523.81
546.28
562.44
575.3
585.85
594.31
597.43
596.31
592.34
588.3
583.51
578.3
570.92
562.29
552.15
543.28
534.59
526.27
515.23
503.26
489.51
476.25
460.79
445.23
429.47
417.22
404.66
391.2
376.61
369.19
369.52
375.19
378.95
383.2
388.75
397.21
404.6
413.21
422.39
432.22
437.94
441.23
442.8
445.23
445.33
443.23
438.11
433.22
428
423.22
416.54
409.21
400.78
393.2
385.07
377.2
368.09
359.19
349.61
341.18
332.94
326.17
319.17
313.16
306.6
301.16
294.93
289.15
281.2
273.14
263.94
257.13
250.75
246.13
239.5
233.12
225.76
221.11
216.59
215.11
217.48
231.12
255.18
289.15
327.28
372.19
422.74
479.25
534.22
586.3
633.12
678.35
719.37
756.39
785.81
810.42
829.3
845.44
857.28
867.45
873.24
875.45
872.55
869.45
866.32
864.45
859.88
855.44
851.01
849.44
845.95
841.44
834.42
830.43
826.94
824.43
817.65
810.42
801.58
794.41
784.13
773.4
761.02
752.39
744.39
738.38
730.43
724.37
717.93
713.37
706.95
702.36
698.23
697.36
695.03
692.36
686.81
682.35
676.59
671.35
663.33
655.34
644.94
634.33
621.43
610.32
599.77
591.31
580.84
570.29
558.44
548.28
537.35
527.27
515.77
505.26
494.19
485.25
476.4
469.24
460.98
453.23
443.15
433.22
422.56
415.21
408.07
401.21
390.53
380.2
369.52
361.19
350.74
341.18
332.53
330.17
330.63
335.17
342.79
361.19
389.73
427.22
465.03
504.26
544.69
590.31
635.74
679.35
716.26
749.39
777.22
802.42
821.69
837.43
848.69
859.44
866.85
871.45
870.73
869.45
867.61
867.45
865.33
863.45
859.88
857.44
853.79
852.44
850.76
850.44
847.54
845.44
841.34
837.43
829.8
822.43
813.26
805.42
795.2
786.41
777.07
770.4
762.06
754.39
745.08
738.38
731.41
726.38
720.4
717.37
714.36
712.37
707.18
702.36
696.58
692.36
685.61
678.35
668.26
658.34
646.58
636.33
625.38
615.32
602.78
590.31
576.34
563.29
548.45
534.28
520
509.26
499.85
492.25
482.74
473.24
462.44
453.23
443.72
436.23
427.9
420.22
410.33
401.21
390.38
380.2
368.44
359.19
349.68
341.18
330.55
323.17
319.01
321.17
326.02
337.17
354.26
381.2
414.06
453.23
494.27
538.28
580.71
622.32
660.24
697.36
730.03
758.39
779.63
798.41
813.51
825.43
830.72
834.43
837.76
842.44
843
840.43
834.62
830.43
826.45
824.43
820.99
818.42
815.02
814.42
813.32
812.42
807.34
801.41
793.2
786.41
777.63
769.4
759.09
750.39
740.06
730.38
718.76
709.37
699.3
690.36
680.29
674.35
670.12
667.35
661.21
656.34
652.29
650.34
645.13
639.33
632.18
626.32
618.21
610.32
600.98
592.31
581.45
571.3
560.31
550.28
538.67
528.27
517.38
507.26
495.6
485.25
474.29
463.24
450.17
439.23
429.62
421.22
410.66
401.21
392.62
385.2
375.14
365.19
355.63
348.18
338.85
329.17
318.29
309.16
298.85
289.15
278.45
270.14
261.34
253.13
242.83
235.12
230.49
233.12
241.03
257.13
279.69
311.16
348.37
392.2
438.04
485.25
529.18
571.3
609.65
646.33
678.25
706.37
728
745.39
757.24
766.4
771.39
774.4
774.15
773.4
770.82
768.4
764.69
762.39
759.29
756.39
751.52
748.39
745.04
742.38
736.93
732.38
726.77
721.37
712.02
702.36
690.89
680.35
668.14
659.34
653
650.34
645.14
639.33
632.96
631.33
630.65
630.33
626.66
624.32
622.41
622.32
619.93
618.32
616.53
616.32
613.1
608.31
600.89
594.31
586.27
578.3
568.43
559.29
548.72
538.28
526.42
516.27
505.81
495.26
481.88
469.24
457.52
448.23
437.77
427.22
415.56
405.21
394.52
385.2
375.64
367.19
357.84
349.18
339.74
331.17
321.66
313.16
304.36
297.15
288.45
279.14
267.67
258.13
248.99
241.12
230.89
221.11
210.54
202.1
194.56
193.1
198.27
213.11
234.16
263.14
298.26
341.18
386.52
433.22
478.9
527.27
574.79
618.32
651.92
679.35
702.82
725.38
742.52
754.39
760.31
764.4
765.87
766.4
764.39
762.39
759.17
756.39
751.96
748.39
744.45
742.38
739.12
736.38
731.82
728.38
723.25
718.37
710.19
701.36
689.78
679.35
667.91
658.34
647.7
639.33
631.62
628.32
626.26
626.32
624.03
622.32
620.87
624.32
629.09
634.33
635.01
634.33
631.99
631.33
629
626.32
620.82
615.32
608.3
602.31
594.62
586.3
575.11
564.29
553
543.28
532.46
522.27
510.85
500.26
488.87
479.25
469.68
461.24
450.85
440.23
428.7
419.22
409.8
401.21
391.47
383.2
375.42
369.19
361.37
353.18
343.54
335.17
325.92
317.16
306.67
297.15
286.59
277.14
266.63
258.13
249.18
241.12
230.91
223.12
219.61
226.12
239.87
261.14
287.19
322.17
363.86
411.21
458.03
505.26
550.7
595.31
634.77
670.35
700.22
726.38
746.04
761.39
771.82
780.4
784.87
786.41
783.99
781.4
777.57
773.4
767.02
762.39
758.65
756.39
751.88
748.39
744.72
742.38
737.3
732.38
725.41
718.37
708.01
698.36
687
675.35
660.34
648.34
640.22
638.33
636.15
634.33
631.31
631.33
630.77
630.33
627.54
627.32
628.12
630.33
628.85
626.32
622.4
620.32
616.58
612.32
605.31
598.31
589.28
580.3
569.47
559.29
548.18
538.28
527.15
516.27
503.79
492.25
480.1
469.24
458.16
449.23
440.13
431.22
420.03
409.21
398.09
388.2
377.23
367.19
357.31
349.18
340.1
331.17
321.3
313.16
304.79
297.15
287.74
279.14
269.67
261.14
250.76
241.12
230.39
221.11
211.44
205.11
200.66
201.1
206.08
221.11
244.8
277.14
313.81
357.18
404.1
453.23
499.97
547.28
592.79
634.33
666.19
692.36
715.17
737.38
754.35
766.4
772.64
776.4
776.79
776.4
773.81
770.4
764.77
760.39
756
752.39
746.78
742.38
737.11
732.38
726.57
724.37
721.11
714.37
701.83
693.36
688.4
682.35
666.73
650.34
639.34
636.33
632.25
628.32
625.16
626.32
626.31
626.32
625.16
626.32
626.22
626.32
624.57
624.32
623.13
622.32
618.58
614.32
608.05
602.31
594.46
586.3
576.07
566.29
555
544.28
532.86
523.27
512.61
501.26
487.74
476.25
465.56
455.24
441.91
429.22
417.85
409.21
399.85
391.2
382.01
373.19
362.41
352.18
342.09
333.17
322.81
313.16
304.02
297.15
289.29
281.15
270.9
261.14
249.83
239.12
227.45
218.11
208.92
201.1
191.36
183.09
176.91
178.09
185.35
201.1
224.11
258.13
299.73
347.18
395.13
445.23
494.44
542.28
585.43
627.32
665.59
698.36
721.58
740.38
756.19
769.4
775.62
778.4
779.64
781.4
779.86
776.4
770.99
766.4
760.76
756.39
751.75
748.39
743.13
738.38
732.63
728.38
721.78
714.37
703.9
694.36
683.03
671.35
656.23
642.33
628.81
618.32
607.36
599.31
593.02
591.31
590.14
590.31
588.14
586.3
584.26
586.3
588.9
590.31
585.7
579.3
572.53
568.29
562.11
554.29
543.7
534.28
524.64
515.27
502.76
489.25
475.32
464.24
452.94
440.23
424.12
409.21
396.69
387.2
376.01
363.19
349.03
337.17
326.03
315.16
302.71
291.15
279.96
269.14
256.21
243.13
231.18
222.11
212.59
201.1
187.03
174.09
161.91
150.08
136.4
124.06
112.78
102.05
87.668
72.037
56.453
44.023
32.161
22.011
12.695
8.0041
9.0421
20.01
39.56
68.035
103.5
148.08
198.02
249.13
295.51
339.18
381.44
423.22
459.53
489.25
512.84
534.28
552.53
566.29
573.89
578.3
580.39
580.3
576.75
572.3
567.54
562.29
554.4
546.28
538.14
530.27
519.8
509.26
498.22
487.25
472.74
457.24
440.51
425.22
409.58
397.21
387.16
381.2
376.79
377.2
381.06
389.2
397.73
408.21
418.47
429.22
437.35
445.23
452.06
459.24
463.21
465.24
465.4
467.24
468.21
467.24
462.27
457.24
452.18
447.23
439.9
433.22
427.03
421.22
412.94
405.21
398.22
392.2
384.23
377.2
371.36
367.19
361.5
356.18
350.59
345.18
337.61
331.17
326.11
323.17
318.34
313.16
306.92
302.16
296.16
291.15
285.35
281.15
275.11
269.14
261.13
255.13
249.84
249.13
251.92
263.14
281.84
311.16
347.77
393.2
442.97
497.26
551.47
607.31
661.36
714.37
761.61
804.42
840.14
871.45
895.72
915.47
928.85
939.49
946.25
952.49
956.24
959.5
959.12
957.5
953.74
952.49
951.43
951.49
948.32
945.49
941.68
940.49
937.56
935.48
931.45
929.48
924.96
919.48
909.17
899.47
888.42
879.45
868.65
860.45
852.15
846.44
838.62
832.43
825.49
821.42
816.61
814.42
811.02
808.42
803.31
800.41
797.03
794.41
788.11
782.4
775.53
769.4
759.79
750.39
739.5
729.38
716.72
705.36
693.43
682.35
668.45
655.34
641.47
628.32
612.54
598.31
585.3
575.3
563.45
551.29
537.69
526.27
514.57
504.26
492.06
480.25
467.22
457.24
447.83
440.23
430.31
421.22
410.49
401.21
391.34
385.2
378.71
372.19
363.42
361.19
367.21
383.2
402.62
428.22
459.01
497.26
537.11
579.3
620.42
662.34
701.13
738.38
769.72
796.41
817.33
838.43
857.12
871.45
876.18
877.45
878.64
883.46
886.41
887.46
884.53
881.46
876.66
873.45
869.59
867.45
863.73
861.45
858.04
856.44
853.08
850.44
844.6
838.43
829.52
822.43
814.03
806.42
795.79
786.41
776.3
768.4
758.63
750.39
742.04
737.38
732.58
729.38
724.77
722.37
719.1
716.37
710.58
705.36
699.13
694.36
687.42
680.35
670.24
659.34
645.94
634.33
622.57
611.32
596.78
582.3
567.34
554.29
540.2
527.27
513.43
500.26
485.7
473.24
461.71
452.23
441.89
433.22
424.75
417.22
407.13
397.21
387.07
379.2
370.09
361.19
350.5
341.18
331.01
322.17
311.3
301.16
290.98
285.15
279.58
274.14
267.64
269.14
280.69
303.16
330.02
363.19
401.21
445.23
489.91
536.28
580.98
624.32
662.44
698.36
729.92
757.39
777.45
794.41
807.81
818.42
822.64
824.43
824.35
824.43
821.47
818.42
815
813.42
810.5
808.42
805.11
802.42
797.37
793.41
788.71
785.41
779.63
774.4
767.5
761.39
751.56
740.38
726.26
714.37
702.64
693.36
682.86
674.35
665.32
658.34
650.23
644.33
638.72
636.33
634.07
634.33
633.86
634.33
632.51
631.33
628.65
626.32
620.73
614.32
606.28
600.31
593.55
586.3
575.41
564.29
552.73
543.28
532.73
522.27
510.47
500.26
489.52
479.25
467.43
457.24
447.8
440.23
430.97
421.22
410.24
401.21
392.58
385.2
376.15
367.19
357.28
349.18
340.19
331.17
319.89
310.16
300.68
293.15
283.85
275.14
265.22
257.13
249
245.13
245.24
253.13
266.29
287.15
313.82
349.18
390.04
436.23
481.95
527.27
570.27
614.32
655.61
692.36
720.06
742.38
759.61
774.4
784.67
793.41
798.87
801.41
798.4
794.41
790.59
788.41
783.42
777.4
770.45
766.4
762.94
761.39
757.62
753.39
748.08
746.39
742.49
734.38
721.89
716.37
715.29
710.37
691.92
671.35
657.37
652.34
645.56
638.33
632.57
632.33
631.36
630.33
627.59
626.32
623.5
622.32
621.33
622.32
620.87
618.32
612.64
607.31
601.03
596.31
589.82
582.3
571.31
560.29
548.8
539.28
528.71
518.27
506.48
496.26
485.56
475.25
463.36
453.23
444.2
437.23
428.59
419.22
407.9
397.21
385.9
376.19
367.07
360.19
352.79
345.18
335.09
325.17
314.74
306.16
297.03
289.15
280.43
273.14
264.79
257.13
247.04
237.12
227.18
222.11
219.22
219.11
221.06
233.12
256.13
289.15
324.77
364.19
406.45
453.23
500.01
547.28
590.97
630.33
662.01
690.36
715.55
738.38
754.27
765.4
772.35
778.4
780.99
781.4
778.76
776.4
773.11
770.4
765.71
761.39
756.34
753.39
749.63
746.39
740.9
736.38
730.49
725.38
717.62
710.37
701.69
694.36
683.9
672.35
658.93
650.34
645.04
643.33
639.21
635.33
631.06
630.33
629.59
630.33
629.63
630.33
629.78
630.33
629.57
630.33
630.1
630.33
627.2
622.32
614.1
606.31
597.77
590.31
580.61
570.29
558.35
548.28
537.85
527.27
513.86
501.26
489.49
480.25
469.83
459.24
447.32
437.23
427.76
420.22
411.16
401.21
389.76
381.2
374.58
369.19
360.73
351.18
341.03
333.17
324.87
317.16
308.37
301.16
292.95
285.15
275.49
267.14
257.87
249.13
238.11
229.12
222.85
223.12
226.28
234.12
247.35
273.14
310
355.18
400.14
445.23
490.22
538.28
584.55
627.32
662.93
694.36
720.37
742.38
757.49
768.4
775.22
781.4
784.85
786.41
784.04
780.4
774.68
769.4
763.16
758.39
752.93
748.39
742.18
737.38
732.6
730.38
726.62
722.37
714.44
706.37
696.06
686.35
674.04
662.34
649.72
640.33
631.68
626.32
621.55
620.32
618.94
618.32
615.41
614.32
613.42
614.32
613.58
614.32
614.25
614.32
611.15
608.31
604.36
600.31
593.05
586.3
579.17
572.3
561.96
551.29
540.12
530.27
518.84
508.26
497.34
487.25
475.51
465.24
455.85
448.23
438.79
429.22
418.73
409.21
398.4
388.2
377.78
369.19
360.56
353.18
344.89
337.17
328.48
321.17
313.04
305.16
294.82
285.15
275.64
269.14
261.42
253.13
243.29
237.12
231.53
226.12
220.53
225.12
241.96
269.14
298.54
333.17
373.86
421.22
468.48
516.27
562.56
607.31
645.32
678.35
705.41
728.38
745.35
760.39
772.75
782.4
785.55
785.41
782.87
780.4
775.48
770.4
764.64
760.39
754.73
749.39
742.94
738.38
732.93
728.38
722.2
717.37
710.35
702.36
690.77
680.35
669.28
659.34
647.35
638.33
631.23
627.32
621.37
616.32
611.53
610.32
608.73
608.31
606.53
606.31
605.44
606.31
605.49
604.31
600.91
599.31
597.18
594.31
586.78
578.3
569.28
562.29
554.12
546.28
537.05
528.27
517.61
507.26
495.81
485.25
473.91
464.24
454.39
445.23
434.59
425.22
416.12
408.21
398.66
389.2
378.83
369.19
358.52
349.18
340.24
333.17
325.09
317.16
307.09
297.15
286.37
278.14
269.65
261.14
249.52
239.12
229.58
223.12
216.33
213.11
214.96
227.12
246.56
273.14
303.56
341.18
384.1
432.22
479.68
526.27
569.26
610.32
646.31
678.35
704.32
726.38
742.43
754.39
761.31
766.4
768.63
769.4
766.54
762.39
756.86
752.39
746.01
738.38
728.92
722.37
716.97
712.37
704.82
698.36
692.02
686.35
675.88
663.34
648.76
636.33
622.75
610.32
597.55
588.3
579.49
572.3
563.94
558.29
553.86
552.29
549.48
547.28
543.98
542.28
539.68
538.28
536.14
535.28
532.91
530.27
524.78
518.27
509.55
501.26
491.43
481.25
469.83
460.24
450.28
439.23
425.45
413.21
402.23
391.2
376.37
361.19
347.79
337.17
324.64
310.16
295.07
283.15
272.39
261.14
247.41
234.12
221.62
210.11
197.37
185.1
173.08
162.08
149.81
138.07
126.44
116.06
103.6
90.047
75.336
63.033
51.02
40.021
30.068
26.013
25.262
26.013
28.769
44.023
74.382
115.06
156.79
201.1
248.62
297.15
340.26
380.2
418.66
455.24
484.9
509.26
529.9
547.28
557.85
563.29
566.47
570.29
572.34
571.3
566.29
560.29
554.5
550.28
544.99
538.28
528.86
519.27
508.34
497.26
484.07
471.24
457.38
444.23
429.72
417.22
406.83
401.21
396.08
391.2
385.68
385.2
388.98
396.2
402.14
409.21
416.71
425.22
430.72
435.23
438.75
443.23
445.19
445.23
442.63
440.23
436.46
432.22
426.35
421.22
415.33
409.21
401.82
396.2
391.1
385.2
375.38
365.19
356.85
352.18
347.17
341.18
333.44
327.17
322.12
319.17
314.89
309.16
300.97
294.15
288.03
283.15
276.01
269.14
262.23
258.13
252.88
247.13
239.03
233.12
227.33
223.12
218.86
221.11
230.38
249.13
274.39
310.16
353.83
404.21
455.18
509.26
564.45
620.32
670.67
717.37
759.33
798.41
830.42
857.44
878.19
895.46
906.89
915.47
920.09
923.48
923.64
923.48
921.29
919.48
915.81
913.47
910.26
908.47
905.04
903.47
901.43
901.47
898.99
896.46
891.21
887.46
881.49
875.45
865.55
856.44
846.16
838.43
829.47
822.43
813.76
806.42
797.19
790.41
783.85
780.4
775.7
772.4
768.1
766.4
763.33
760.39
754.35
749.39
743.37
738.38
730.38
722.37
712.7
704.36
693.64
682.35
668.33
655.34
641.25
628.32
614.26
602.31
590.18
579.3
566.63
555.29
543.81
534.28
523.55
514.27
504.72
497.26
488.68
481.25
472.29
464.24
454.19
445.23
434.55
425.22
415.37
409.21
402.71
396.2
386.58
381.2
381.63
391.2
404.41
423.22
446.11
477.25
513.35
555.29
597.01
638.33
676.12
714.37
749.3
780.4
804.72
828.43
849.93
867.45
875.29
879.45
882.64
887.46
888.43
887.46
883.83
880.46
874.39
869.45
864.94
863.45
860.8
859.44
857.07
856.44
853.45
850.44
844.29
838.43
829.93
822.43
813.37
806.42
797.94
790.41
780.6
772.4
762.84
754.39
744.08
736.38
729.34
725.38
720.74
718.37
715.12
712.37
706.51
701.36
695.32
690.36
682.49
674.35
664.35
655.34
644.5
634.33
622.61
611.32
597.61
584.3
570.36
558.29
544.6
530.27
514.01
500.26
487.92
477.25
463.65
449.23
434.97
425.22
416.98
409.21
398.7
389.2
380.29
373.19
363.5
353.18
341.73
333.17
324.66
317.16
307
297.15
286.56
279.14
271.74
266.14
261.55
265.14
277.21
299.15
325.94
359.19
395.9
437.23
480.32
528.27
576.61
622.32
660.04
694.36
725.36
753.39
773.78
790.41
803.63
814.42
818.25
818.42
816.66
816.42
814.04
810.42
804.86
801.41
798.23
796.41
792.89
790.41
787.08
785.41
782.36
780.4
775.96
770.4
760.11
749.39
737.57
728.38
717.49
706.37
692.42
680.35
668.46
659.34
649.58
642.33
635.57
632.33
629.78
630.33
630.18
630.33
627.74
626.32
624.38
623.32
619.1
614.32
607.79
602.31
595.15
588.3
579.41
570.29
558.91
548.28
537.15
527.27
515.96
505.26
493.92
484.25
474.19
465.24
455.07
445.23
434.13
424.22
414.12
405.21
395.07
385.2
374.48
365.19
355.73
347.18
337.83
329.17
319.3
309.16
298.33
290.15
283.34
277.14
268.25
259.13
249.58
241.12
230.85
221.11
211.14
203.11
193.8
185.1
175.55
168.09
160.36
155.08
152.36
158.08
172.37
197.1
228.37
267.14
310.46
359.19
409.42
461.24
510.14
556.29
598.17
639.33
676.34
706.37
725
737.38
746.77
756.39
762.69
766.4
766.53
765.4
761.45
757.39
752.93
750.39
747.15
744.38
739.87
736.38
732.35
730.38
727.22
724.37
718.73
713.37
705.77
698.36
687.49
676.35
664.04
655.34
646.56
638.33
628.2
622.32
619.29
619.32
617.61
618.32
619.98
623.32
624.51
628.32
633.19
638.33
638.7
639.33
640.48
642.33
639.22
634.33
627.54
620.32
609.44
599.31
590.09
582.3
571.41
560.29
548.98
539.28
528.13
518.27
508.71
500.26
489.51
479.25
469.3
461.24
451.13
440.23
428.42
419.22
410.16
401.21
390.42
381.2
372.74
365.19
355.28
345.18
335.22
327.17
318.19
309.16
299.87
293.15
286.94
281.15
273.08
265.14
256.55
249.13
239.46
229.12
217.82
210.11
203.32
197.1
188.41
182.09
178.19
179.09
183.38
197.1
220.84
255.13
294.09
338.17
384.46
433.22
481.05
530.27
577.39
620.32
655.09
686.35
714.06
737.38
751.77
761.39
768.2
774.4
777.04
778.4
777.13
773.4
765.29
758.39
754.05
752.39
747.42
741.38
735.68
734.38
732.21
728.38
720.52
714.37
708.18
702.36
691.67
680.35
669.07
662.34
655.74
650.34
643.45
639.33
635.55
634.33
632.79
634.33
636.05
639.33
640.92
644.33
647.21
650.34
649.61
648.34
645.48
643.33
638.73
634.33
628.28
622.32
613.92
606.31
598.09
590.31
579.47
568.29
556.66
547.28
536.83
526.27
514.55
505.26
496.16
487.25
475.74
465.24
455.68
448.23
438.45
427.22
414.76
405.21
396.49
388.2
378.04
369.19
360.87
353.18
343.08
333.17
323.96
317.16
309.24
301.16
292.37
286.15
279.74
273.14
263.16
253.13
242.82
235.12
226.19
217.11
206.84
201.1
199.7
205.11
215.18
234.12
261.01
297.15
338.02
384.2
431.72
480.25
525.73
570.29
611.9
651.34
685.39
716.37
742.02
762.39
774.55
782.4
786.85
790.41
790.86
790.41
787.79
784.41
778.52
773.4
767.72
762.39
754.84
749.39
745.55
744.38
740.18
734.38
725.71
718.37
709.27
700.36
688.73
678.35
667.26
658.34
648.04
639.33
630.64
626.32
623.74
624.32
623.75
624.32
624.07
626.32
627.98
630.33
630.07
630.33
629.57
630.33
629.16
627.32
622.08
616.32
608.83
602.31
593.74
584.3
572.74
563.29
554.45
546.28
535.22
524.27
513.04
503.26
491.95
481.25
470.04
460.24
449.81
441.23
432.85
425.22
415.22
405.21
395.15
387.2
378.39
369.19
358.46
349.18
340.44
333.17
324.92
317.16
308.65
301.16
292.72
285.15
276.69
269.14
259.94
251.13
241.18
233.12
224.53
217.11
208.48
202.1
197.08
197.1
201.06
213.11
232.81
263.14
300.32
344.18
390.83
441.23
490.6
538.28
582.17
626.32
667.42
702.36
726.46
745.39
761.9
777.4
786.4
790.41
791.03
792.41
791.82
789.41
783.72
778.4
772.72
768.4
762.57
757.39
751.1
746.39
740.67
736.38
730.56
725.38
717.67
710.37
700.18
689.36
675.68
664.34
653.8
646.33
638.54
634.33
631.43
631.33
629.93
630.33
629.93
630.33
628.82
630.33
633.46
638.33
639.18
638.33
635.06
632.33
627.2
622.32
616.06
610.32
602.18
594.31
585.62
578.3
569.36
560.29
549.38
539.28
528.28
518.27
506.95
496.26
484.8
475.25
465.73
457.24
446.81
436.23
424.73
415.21
405.85
397.21
386.65
376.19
365.55
357.18
348.96
341.18
331.86
323.17
313.78
305.16
295.97
289.15
282.83
277.14
268.13
258.13
246.7
237.12
226.61
217.11
207.35
201.1
195.77
193.1
192.63
201.1
218.61
246.13
279.47
321.17
368.3
419.22
467.63
515.27
561.12
606.31
646.33
682.35
712.49
738.38
757.94
774.4
786.86
796.41
800.3
801.41
799.88
798.41
795.29
792.41
787.41
781.4
772.8
766.4
762.14
761.39
758.31
753.39
745.04
738.38
731.62
726.38
717.83
708.37
696.35
686.35
675.75
667.35
659.34
656.34
654.73
654.34
650.7
648.34
646.28
646.33
643.94
642.33
641.04
643.33
644.88
646.33
644.59
642.33
637.22
632.33
626.91
624.32
620.46
614.32
603.14
592.31
582.31
574.3
564.1
554.29
544.43
536.28
526
515.27
503.39
493.26
482.64
473.24
463.43
455.24
446.16
437.23
426.42
416.22
405.74
397.21
388.66
381.2
372.61
364.19
354.28
345.18
336.14
329.17
321.29
313.16
302.95
294.15
285.16
277.14
266.75
257.13
247.68
241.12
233.1
225.12
217.47
217.11
222.77
235.12
252.34
281.15
320.62
368.19
415.61
464.24
512.96
562.29
606.79
648.34
686.13
721.37
749.04
770.4
785.5
798.41
807
812.42
813.59
814.42
813.83
812.42
807.27
801.41
794.94
790.41
784.88
780.4
775.39
772.4
767.64
762.39
754.05
746.39
737.07
728.38
716.94
706.37
694.84
685.35
674.06
663.34
651.25
642.33
634.84
631.33
627.93
626.32
623.51
622.32
620.44
620.32
618.95
618.32
615.94
614.32
610.86
607.31
601.52
596.31
589.58
582.3
571.41
559.29
545.34
532.28
518.32
505.26
491.63
479.25
465.83
452.23
436.58
421.22
405.42
391.2
377.02
364.19
350.59
337.17
322.95
310.16
296.98
283.15
267.37
253.13
240.77
230.12
218.05
206.11
194.73
185.1
174.12
162.08
148.14
135.07
122.36
112.06
101.54
91.047
78.556
67.035
55.014
44.023
33.935
30.016
31.397
38.02
49.107
72.037
108.36
155.08
203.02
251.13
299.38
349.18
396.14
439.23
476.21
508.26
534.77
558.29
577.38
591.31
598.97
604.31
608.29
610.32
607.87
603.31
597.85
592.31
585.01
578.3
572.09
566.29
557.36
547.28
536.2
526.27
514.26
501.26
485.34
469.24
451.87
437.23
424.58
416.22
408.62
403.21
398.23
397.21
398.62
404.21
410.9
420.22
429.85
441.23
451.06
460.24
466.81
473.24
477.61
481.25
482.78
485.25
487.11
488.25
485.57
481.25
475.21
469.24
461.31
453.23
444.6
437.23
429.07
421.22
412.52
405.21
398.31
393.2
387.39
381.2
372.89
365.19
358.02
353.18
348.05
343.18
336.72
331.17
325.37
321.17
315.57
310.16
303.53
299.15
294.16
289.15
281.07
274.14
267.32
263.14
259.32
261.14
268.99
286.15
308.79
339.18
375.73
421.22
470.78
523.27
573.33
622.32
667.33
710.37
748.86
785.41
817.01
844.44
864.23
879.45
889.43
897.46
901.8
905.47
906.78
907.47
904.43
900.47
895.15
892.46
889.6
887.46
882.24
877.45
871.94
869.45
866.07
863.45
857.77
852.44
844.36
836.43
825.13
814.42
802.52
793.41
782.78
772.4
759.7
750.39
742.7
738.38
732.54
728.38
724.02
722.37
719.41
717.37
713.17
709.37
703.24
698.36
692.21
686.35
677.03
667.35
656.11
646.33
634.82
623.32
609.49
596.31
582.25
570.29
558.34
548.28
537.34
527.27
515.79
505.26
494
484.25
473.52
463.24
451.46
441.23
431.59
424.22
415.14
405.21
393.59
385.2
378.15
372.19
362.23
351.18
338.87
329.17
318.58
309.16
299.27
293.15
287.77
285.15
284.53
293.15
310.72
338.17
370.19
409.21
452.82
501.26
548.41
595.31
639.43
682.35
719.8
753.39
780.77
804.42
822.45
838.43
850.59
860.45
865.33
868.45
868.45
867.45
863.78
861.45
858.76
856.44
850.98
846.44
842.41
841.44
839.32
838.43
836.11
834.43
828.88
822.43
813.47
806.42
798.01
790.41
779.8
769.4
756.71
745.39
732.71
722.37
712.4
706.37
700.53
696.36
690.4
686.35
682.23
680.35
676.37
672.35
666.45
662.34
656.59
650.34
641.32
634.33
627.79
622.32
613.47
604.31
594.41
586.3
576.38
566.29
554.61
544.28
533.23
523.27
511.94
501.26
490.04
481.25
472.29
463.24
451.65
441.23
431.74
424.22
414.88
405.21
394.35
385.2
375.81
368.19
359.81
352.18
342.41
333.17
322.53
313.16
302.68
294.15
284.9
277.14
269.13
266.14
267.72
277.14
292.37
317.16
348.67
387.2
428.59
475.25
523.1
570.29
611.44
650.34
686.94
722.37
751.04
774.4
792.31
808.42
819.47
826.43
828.43
830.43
831.58
832.43
829.16
824.43
818.29
814.42
810.59
808.42
804.47
800.41
794.26
790.41
786.73
784.41
778.93
773.4
765.69
758.39
747.76
737.38
725.77
716.37
705.16
694.36
681.97
672.35
662.6
654.34
644.74
638.33
633.6
632.33
630.38
630.33
629.83
630.33
627.62
624.32
619.48
616.32
611.59
606.31
597.63
588.3
577.18
567.29
556.47
546.28
534.67
524.27
513.33
503.26
491.82
481.25
469.94
459.24
446.89
435.23
423.37
413.21
402.39
392.2
381.21
371.19
360.12
349.18
337.34
327.17
317.59
309.16
299.22
289.15
278.32
269.14
259.47
250.13
239.08
229.12
218.58
209.11
198.6
190.1
181.19
173.09
163.91
158.08
153.69
152.08
153.72
168.09
196.66
237.12
280.44
327.17
376.52
429.22
479.61
528.27
573.45
616.32
653.32
686.35
714.03
737.38
753.29
764.4
771.52
778.4
783.24
786.41
785.12
781.4
775.31
770.4
765.07
760.39
754.1
749.39
744.94
742.38
737.53
732.38
725.63
721.37
716.11
710.37
700.07
689.36
677.29
667.35
656.04
646.33
636.5
630.33
624.9
622.32
619.24
618.32
617.33
619.32
621.1
624.32
626.38
630.33
632.78
634.33
632.39
631.33
629.35
626.32
617.98
608.31
598.24
590.31
580.56
570.29
558.54
548.28
537.37
527.27
515.88
505.26
493.98
484.25
473.66
463.24
451.33
441.23
431.96
424.22
414.23
403.21
391.01
381.2
372.2
364.19
354.57
345.18
334.94
325.17
314.36
305.16
296.57
289.15
279.39
269.14
257.96
249.13
240.49
233.12
223.27
213.11
202.76
197.1
192.09
186.1
177.74
177.09
187.98
211.11
239.07
273.14
313.12
361.19
412.13
465.24
516.05
564.29
606.67
646.33
682.12
714.37
738.74
757.39
770.74
782.4
790.75
797.41
800.67
802.42
801.03
798.41
792.77
786.41
778.8
773.4
767.71
762.39
754.86
749.39
744.57
741.38
734.46
726.38
716.62
709.37
699.78
688.36
673.45
662.34
654.41
650.34
644.24
639.33
635
634.33
632.86
632.33
630.44
630.33
629.41
630.33
630.09
630.33
628.32
627.32
624.95
622.32
616.55
611.32
605.51
600.31
591.86
582.3
570.79
560.29
549.04
539.28
528.62
518.27
506.67
497.26
488.15
479.25
467.69
457.24
447.87
440.23
430.13
419.22
407.39
397.21
386.63
377.2
367.56
359.19
350.04
341.18
330.44
319.17
307.11
298.15
291
285.15
276.43
267.14
257.14
249.13
239.44
229.12
216.87
207.11
198.03
191.1
183.93
181.09
182.42
191.1
205.8
231.12
265.6
309.16
356.23
407.21
458.1
508.26
554.05
598.31
638.56
674.35
703.24
730.38
754.89
774.4
783.25
786.41
788.76
794.41
798.21
798.41
793.67
788.41
782.39
777.4
771.22
766.4
760.91
756.39
750.14
745.39
739.69
734.38
725.76
717.37
706.92
696.36
682.57
670.35
658.17
648.34
638.07
632.33
628.5
626.32
621.16
618.32
617.66
620.32
620.88
622.32
623.58
626.32
626.21
626.32
625.77
626.32
623.5
619.32
613.16
608.31
601.72
594.31
584.03
574.3
564.1
555.29
544.83
534.28
522.42
512.26
502.12
493.26
483.09
473.24
461.94
451.23
439.61
429.22
418.56
409.21
398.91
389.2
379.2
371.19
362.58
353.18
341.45
331.17
321.68
313.16
302.58
293.15
284.34
277.14
267.64
258.13
247.19
237.12
225.83
217.11
208.63
201.1
192.33
189.1
193.18
207.11
226.78
255.13
291.4
337.17
387.04
440.23
492
542.28
587.55
630.33
668.88
704.36
733.25
757.39
775.65
790.41
799.55
805.42
807.88
810.42
811.15
810.42
805.8
800.41
794.14
789.41
783.5
778.4
772.47
768.4
762.86
757.39
749.38
742.38
733.69
725.38
714.33
704.36
693.02
682.35
668.71
656.34
644.84
638.33
633.02
630.33
627.03
626.32
625.43
626.32
625.71
626.32
625.72
626.32
625.54
626.32
626.14
626.32
623.27
619.32
612.78
606.31
597.94
590.31
581.26
572.3
561.3
551.29
540.53
530.27
518.43
508.26
498.3
489.25
478.51
469.24
460.36
452.23
441.55
431.22
421.29
413.21
403.37
393.2
382.75
375.19
367.93
361.19
352.63
345.18
336.97
329.17
318.82
309.16
299.12
291.15
281.72
273.14
263.78
257.13
250.57
247.13
246.64
255.13
271.46
297.15
328.77
369.19
415.04
465.24
513.86
562.29
607.81
651.34
689.76
726.38
758.84
786.41
804.56
817.42
826.86
836.43
842.66
846.44
846.38
845.44
841.77
837.43
831.25
826.43
820.98
816.42
810.19
805.42
799.68
794.41
786.15
778.4
769.07
760.39
748.85
738.38
727.07
717.37
705.18
693.36
679.33
666.34
652.65
643.33
636.26
632.33
626.6
622.32
618.53
618.32
617.68
618.32
617.64
618.32
617.28
616.32
612.45
608.31
602.52
598.31
592.71
586.3
576.52
567.29
557.99
550.28
541.08
532.28
521.82
511.26
499.17
489.25
480.2
472.24
462.26
453.23
444.63
437.23
427.36
417.22
407.02
399.21
390.34
381.2
370.85
363.19
355.94
349.18
339.1
329.17
318.98
311.16
301.09
290.15
277.52
269.14
263.77
263.14
264.02
271.14
284.9
309.16
340.29
379.2
421.85
469.24
517.22
566.29
611.74
654.34
692.25
729.38
762.54
790.41
808.77
822.43
833.29
844.44
851.63
855.44
854.8
853.44
849.84
845.44
837.93
830.43
822.45
817.42
812.71
809.42
803.85
798.41
790.88
784.41
776.13
768.4
757.58
746.39
732.65
720.37
706.52
693.36
678.4
666.34
655.05
646.33
636.74
630.33
625.16
622.32
617.02
612.32
607.9
607.31
606.65
606.31
602.97
599.31
593.58
588.3
581.2
574.3
565.31
556.29
545.57
535.28
522.83
509.26
493.48
479.25
465.48
452.23
436.5
421.22
406.95
395.2
382.25
368.19
352.17
337.17
322.67
310.16
297.59
286.15
274.7
265.14
254.28
242.13
227.49
215.11
203.74
193.1
179.54
167.09
155.6
146.08
134.3
124.06
117.72
120.06
127.93
142.07
162.08
193.1
233.46
281.15
329.2
377.2
423.39
469.24
511.01
548.28
578.64
604.31
624.79
642.33
655.2
664.34
669.02
672.35
673.95
674.35
671.5
667.35
661.77
656.34
649.32
642.33
634.05
626.32
617.57
610.32
602.26
594.31
583.31
572.3
559.94
548.28
533.53
518.27
502.49
491.25
482
475.25
468.07
465.24
466.28
472.24
477.55
483.25
488.53
497.26
506.55
516.27
522.43
527.27
530.17
534.28
536.86
538.28
535.81
532.28
527.03
522.27
515.83
509.26
501.04
493.26
484.62
477.25
469.66
463.24
455.86
449.23
442.3
437.23
431.86
427.22
421.18
416.22
410.45
405.21
397.01
388.2
377.62
369.19
360.5
353.18
343.24
333.17
321.77
314.16
308.87
309.16
314.03
329.17
352.7
385.2
421.94
465.24
510.91
558.29
603.64
651.34
697.49
738.38
767.77
792.41
815.93
840.43
858.76
871.45
878.53
884.46
887.33
889.46
888.91
887.46
882.49
877.45
872.11
869.45
865.13
859.44
850.01
842.44
835.97
832.43
826.02
818.42
807.4
797.41
786.03
776.4
764.87
754.39
742.75
734.38
725.91
718.37
707.55
698.36
691.31
690.36
689.71
688.36
682.81
678.35
674.25
672.35
668.31
664.34
657.8
650.34
639.16
628.32
617.09
607.31
595.04
582.3
568.06
555.29
541.44
528.27
514.05
501.26
487.7
475.25
462.69
453.23
444.75
437.23
427.12
417.22
407.11
399.21
390.06
381.2
370.51
361.19
351.28
343.18
332.61
321.17
308.02
299.15
291.21
283.15
272.43
269.14
277.16
298.15
323.97
355.18
390.51
433.22
479.46
530.27
580.31
628.32
670.21
710.37
747.12
780.4
805.98
828.43
847.39
863.45
872.11
877.45
880.35
883.46
883.52
883.46
882.16
881.46
878.4
876.45
873.72
871.45
866.43
863.45
861.12
860.45
855.76
850.44
843.49
838.43
830.59
822.43
811.65
802.42
791.4
781.4
769.72
760.39
750.51
742.38
732.39
724.37
716.89
713.37
709.48
706.37
700.93
697.36
693.83
692.36
688.09
682.35
672.97
664.34
654.74
646.33
635.98
626.32
614.98
604.31
592.63
583.3
573.14
562.29
548.84
538.28
529.67
522.27
511.46
501.26
491.79
484.25
474.26
465.24
456.38
449.23
439.07
429.22
418.92
411.21
401.81
393.2
383.22
375.19
366.41
361.19
359.07
365.19
377.87
400.21
428.55
464.24
503.05
546.28
588.97
631.33
669.45
706.37
739.55
770.4
795.11
816.42
832.4
845.44
853.16
859.44
863.44
867.45
868.14
867.45
863.46
859.44
854.82
853.44
851.44
848.44
841.93
838.43
837
837.43
833.62
829.43
823.77
818.42
808.24
797.41
785.63
776.4
765.07
754.39
742.65
733.38
722.5
712.37
701.47
694.36
687.7
682.35
675.35
671.35
668.27
666.34
660.79
655.34
649.28
644.33
635.88
626.32
614.81
604.31
592.05
580.3
567.06
554.29
539.81
526.27
511.39
496.26
479.4
465.24
453.15
443.23
431.23
419.22
407.1
397.21
386.69
377.2
367.3
359.19
349.99
341.18
330.04
319.17
307.37
298.15
287.87
277.14
264.29
255.13
247.74
242.13
235.88
237.12
247.97
269.14
294
325.17
363
409.21
456.79
504.26
548.56
592.31
632.69
670.35
701.04
726.38
746.5
766.4
783.08
794.41
796.89
796.41
795.6
796.41
794.23
790.41
785.01
781.4
777.02
773.4
768.86
766.4
763.38
761.39
757.18
753.39
747.59
742.38
734.23
725.38
713.12
701.36
688.55
678.35
667.55
658.34
648.49
642.33
637.27
634.33
629.52
626.32
623.44
623.32
622.25
622.32
621.06
620.32
616.58
612.32
606.45
602.31
596.93
591.31
583.03
575.3
566.59
558.29
547.36
536.28
524.68
515.27
504.69
493.26
479.75
468.24
457.37
447.23
435.34
425.22
416.19
408.21
397.67
387.2
377.24
369.19
359.38
349.18
338.49
330.17
321.5
313.16
302.78
293.15
282.86
274.14
263.56
253.13
242.23
235.12
227.67
219.11
208.4
205.11
211.87
229.12
250.07
277.14
310.66
353.18
399.98
451.23
502.38
552.29
596.64
638.33
675.52
708.37
733.88
756.39
775.3
790.41
797.74
801.41
802.96
804.42
802.2
798.41
793.18
789.41
784.8
781.4
777.37
774.4
769.27
764.4
758.07
753.39
747.39
742.38
735.53
729.38
719.71
708.37
693.82
682.35
672.74
666.34
658.44
652.34
646.28
642.33
636.57
632.33
628.32
627.32
625.88
626.32
625.91
626.32
624.46
623.32
620.8
618.32
612.52
606.31
598.77
592.31
583.66
574.3
562.76
552.29
541.27
531.27
519.87
509.26
498.06
488.25
477.49
467.24
455.75
445.23
434.15
424.22
413.42
403.21
391.82
381.2
370.32
361.19
351.84
343.18
333.56
325.17
316.12
307.16
296.11
286.15
276.57
269.14
260.19
251.13
240.11
230.12
218.92
209.11
199.26
193.1
188.98
190.1
196.3
213.11
239.37
275.14
314.79
359.19
406.23
457.24
507.24
555.29
597.37
635.33
668.09
698.36
723.03
742.38
755.21
766.4
775.51
782.4
783.38
781.4
777.24
773.4
767.66
762.39
756.71
752.39
746.42
741.38
736.41
734.38
731.44
728.38
721.69
714.37
704.2
694.36
682.22
671.35
660.14
652.34
644.46
638.33
631.49
628.32
626.24
626.32
625.06
626.32
627.85
630.33
629.87
630.33
630.12
630.33
627.65
626.32
624.92
623.32
617.14
610.32
602.98
596.31
586.12
575.3
563.96
554.29
543.04
532.28
521.06
511.26
500.03
489.25
477.92
468.24
457.61
447.23
435.59
425.22
414.36
404.21
392.99
383.2
373.65
365.19
355.11
345.18
334.8
326.17
317.16
309.16
300.44
293.15
284.95
277.14
266.97
257.13
246.8
239.12
230.42
221.11
209.3
201.1
197.7
202.1
210.7
226.12
248.23
281.15
321.49
368.19
415.63
464.24
511.22
558.29
602.38
644.33
680.64
712.37
737.43
758.39
773.46
784.41
790.11
794.41
796.79
798.41
796.28
792.41
786.45
781.4
775.38
770.4
764.83
761.39
757.16
753.39
747.32
742.38
736.11
730.38
721.94
714.37
704.67
694.36
680.39
668.35
657.97
652.34
647.58
646.33
645.08
644.33
639.92
636.33
633.54
634.33
634.01
634.33
633.91
636.33
637.86
638.33
633.63
627.32
620.14
616.32
612.07
606.31
595.63
584.3
572.75
563.29
552.54
542.28
531.36
522.27
512.49
503.26
492.14
481.25
469.69
460.24
450.03
439.23
426.65
417.22
410.41
405.21
396.76
387.2
377.3
369.19
359.46
349.18
338.22
330.17
323
317.16
309.24
301.16
291.25
282.15
271.25
261.14
250.63
243.13
234.99
227.12
218.58
217.11
224.59
243.13
266.96
297.15
332.79
377.2
425.65
476.25
523.75
570.29
614.71
658.34
695.11
724.37
746.68
769.4
790.57
806.42
811.84
813.42
815.09
818.42
817.76
814.42
809.03
804.42
797.45
790.41
783.03
778.4
773.06
768.4
762.06
757.39
751.57
746.39
738.02
729.38
718.3
708.37
696.72
686.35
674.42
664.34
654.35
648.34
642.64
638.33
632.62
630.33
629.33
630.33
629.31
630.33
631.8
634.33
633.09
631.33
628.39
626.32
621.12
615.32
608.18
602.31
594.48
586.3
575.99
566.29
555.91
547.28
537.32
526.27
512.4
500.26
489.63
481.25
471.22
461.24
450.26
440.23
429.08
419.22
409.56
401.21
391.16
381.2
371.09
363.19
354.46
345.18
334.36
326.17
319.22
313.16
303.52
293.15
282.57
275.14
266.52
257.13
245.56
237.12
230.05
225.12
219.53
219.11
225.14
241.12
264.18
297.15
337.54
385.2
434.3
485.25
534.78
583.3
626.5
666.34
701.65
734.38
760.41
780.4
793.5
804.42
812.43
818.42
819.42
818.42
815.65
813.42
808.55
802.42
794.64
789.41
784.78
781.4
775.61
770.4
764.45
760.39
753.87
746.39
735.73
726.38
715.64
705.36
692.19
680.35
668.12
658.34
647.79
640.33
634.29
632.33
630.35
630.33
629.48
630.33
629.76
630.33
629.68
630.33
629.17
628.32
625.49
623.32
619.11
614.32
606.34
598.31
589.5
582.3
573.07
562.29
548.57
536.28
524.85
515.27
504.08
493.26
481.95
472.24
461.56
451.23
439.74
429.22
418.15
408.21
397.51
387.2
375.73
365.19
354.31
344.18
332.84
322.17
311.06
301.16
290.06
279.14
266.71
255.13
242.08
229.12
214.4
201.1
187.09
174.09
160.83
152.08
146.64
146.08
149.62
164.08
189.6
225.12
264.43
309.16
357.42
408.21
455.83
501.26
542.14
578.3
607.45
634.33
658.55
678.35
688.9
694.36
698.01
702.36
703.68
702.36
697.85
692.36
685.39
680.35
676.66
674.35
669.33
663.34
655.97
650.34
643.98
638.33
629.89
620.32
607.79
596.31
583.44
570.29
554.12
540.28
529.36
524.27
520.34
518.27
515.23
514.27
513.59
516.27
519.99
526.27
531.22
536.28
539.61
544.28
547.54
550.28
550.33
551.29
551.5
551.29
547.24
542.28
536.08
530.27
522.15
514.27
506.52
501.26
495.95
491.25
484.13
475.25
463.55
453.23
444.2
437.23
429.03
421.22
412.76
405.21
396.54
389.2
382.02
376.19
368.58
361.19
352.57
345.18
336.64
329.17
319.5
309.16
296.7
287.15
278.42
271.14
263.07
261.14
266.52
281.15
300.91
329.17
364.05
405.21
447.21
492.25
537.93
583.3
622.68
658.34
689.41
717.37
739.03
757.39
771.55
782.4
787.08
789.41
790.53
792.41
790.92
786.41
778.24
770.4
761.88
754.39
745.7
738.38
729.91
721.37
709.45
697.36
683.39
670.35
655.81
643.33
629.7
616.32
601.15
590.31
582.56
578.3
572.76
570.29
570.41
574.3
576.47
579.3
582.13
587.3
589.84
590.31
587.13
584.3
580.2
576.3
569.63
562.29
553
544.28
533.85
523.27
511.45
501.26
490.41
479.25
466.22
455.24
445.56
437.23
426.73
416.22
405.25
395.2
383.69
373.19
363.63
356.18
347.18
337.17
326.01
317.16
308.84
301.16
291.31
282.15
272.87
265.14
254.76
243.13
229.61
219.11
209.31
201.1
191.85
186.1
182.39
183.09
187.94
205.11
235.42
278.14
324.74
375.19
428.02
485.25
541.28
595.31
643.84
689.36
729.59
766.4
796.8
822.43
841.04
855.44
864.48
871.45
875.51
879.45
880.99
881.46
878.56
875.45
871.4
869.45
866.57
864.45
860.75
859.44
857.87
857.44
853.58
849.44
843.04
838.43
832.58
828.43
821.69
814.42
803.62
794.41
784.79
777.4
768.29
761.39
754.53
750.39
744.9
741.38
737.64
736.38
733.23
730.38
725.2
721.37
716.52
713.37
708.02
702.36
694.35
688.36
681.48
674.35
663.76
654.34
644.82
636.33
625.17
615.32
605.99
598.31
587.56
576.3
564.39
555.29
546.05
538.28
529.66
522.27
513.33
505.26
496.33
489.25
480.67
472.24
461.71
453.23
444.54
437.23
427
417.22
406.65
399.21
391.2
385.2
379.87
381.2
387.98
403.21
423.86
453.23
487.33
526.27
565.49
608.31
651.48
694.36
730.96
764.4
794.02
822.43
845
863.45
875.76
885.46
891.13
896.46
898.85
899.47
896.07
893.46
890.53
888.46
883.5
879.45
875.09
872.45
867.65
864.45
861.06
859.44
854.29
848.44
840.4
834.43
826.4
818.42
807.55
798.41
788.56
780.4
769.32
758.39
746.42
738.38
730.93
725.38
718.39
714.37
710.97
709.37
705.04
701.36
697
694.36
688.93
682.35
672.63
663.34
652.39
642.33
630.84
620.32
608.11
596.31
582.84
570.29
556.24
542.28
526.54
512.26
498
485.25
471.5
459.24
446.79
435.23
421.72
409.21
398.1
391.2
384.48
377.2
366.74
357.18
347.53
339.18
328.45
318.16
306.86
297.15
286.2
277.14
268.04
261.14
253.44
249.13
248.88
258.13
275.53
303.16
336.96
377.2
419.5
465.24
511.43
559.29
604.39
646.33
680.63
709.37
732.48
754.39
772.5
786.41
793.2
797.41
799.85
802.42
801.37
798.41
793.26
789.41
784.92
781.4
776.92
774.4
771.44
769.4
765.08
761.39
755.71
750.39
743.14
737.38
728.26
716.37
701.96
694.36
689.9
682.35
664.55
647.33
636.9
634.33
630.07
626.32
624.23
626.32
626.37
626.32
625.47
626.32
624.74
623.32
620.59
618.32
612.88
607.31
600.98
596.31
589.69
582.3
572.14
562.29
551.87
543.28
533.3
522.27
508.53
496.26
484.89
475.25
463.98
453.23
442.1
432.22
421.19
411.21
401.31
393.2
384.53
377.2
369.07
361.19
350.85
341.18
331.19
323.17
313.83
305.16
294.68
285.15
274.8
267.14
259.54
254.13
249.85
253.13
264.28
285.15
311.06
344.18
383.07
429.22
476.45
523.27
566.11
608.31
648.24
686.35
717.12
741.38
759.81
778.4
794.71
806.42
809.27
808.42
806.26
805.42
802.27
798.41
793.02
788.41
782.24
777.4
772.84
770.4
765.69
760.39
753.49
749.39
744.37
738.38
727.7
717.37
706.31
696.36
683.16
670.35
656.41
644.33
631.7
623.32
617.32
614.32
609.42
606.31
604.54
606.31
606.41
606.31
604.99
606.31
606.72
606.31
602.13
598.31
594.16
591.31
585.57
578.3
568.11
558.29
547.55
538.28
528.42
519.27
508.17
497.26
485.79
476.25
465.86
455.24
443.12
433.22
424.22
416.22
406.23
397.21
388.56
381.2
371.29
361.19
350.82
343.18
334.35
325.17
313.96
305.16
296.63
289.15
278.7
269.14
261.11
259.13
259.84
265.14
275.27
297.15
329.04
369.19
410.79
455.24
500.27
546.28
588.35
628.32
664.62
698.36
725.05
746.39
762.24
776.4
786.22
792.41
793.69
794.41
793.78
792.41
787.24
781.4
774.96
770.4
765.13
761.39
757
753.39
747.4
742.38
736.73
732.38
724.87
716.37
704.9
694.36
682.49
672.35
661.11
651.34
640.02
630.33
620.52
614.32
608.98
606.31
603.19
602.31
600.8
600.31
598.3
598.31
598.07
598.31
595.18
591.31
585.01
578.3
569.37
562.29
555.85
550.28
541.36
531.27
519.71
509.26
498.05
488.25
477.83
467.24
453.95
441.23
429.43
420.22
409.98
399.21
387.17
377.2
368.02
360.19
350.69
341.18
330.57
321.17
310.73
301.16
290.71
282.15
273.15
265.14
254.41
243.13
230.67
222.11
215.77
213.11
212.11
218.11
231.09
253.13
280.98
317.16
358.79
405.21
451.47
499.26
545.82
590.31
627.67
660.34
688.45
714.37
734.61
750.39
760.7
768.4
772.05
773.4
770.73
766.4
760.51
756.39
751.47
745.39
736.59
730.38
726.4
724.37
719.17
713.37
705.84
698.36
687.33
676.35
664.1
652.34
637.14
622.32
607.56
596.31
585.65
578.3
571.45
566.29
559.67
555.29
551.68
550.28
547.57
546.28
544.71
544.28
541.71
539.28
535.05
530.27
522.57
515.27
507.81
501.26
491.88
481.25
469.67
460.24
450.24
439.23
425.66
413.21
401.7
391.2
378.2
364.19
349.76
337.17
323.94
310.16
295.54
283.15
271.94
261.14
248.12
235.12
223.2
214.11
204.36
193.1
179.19
166.09
152.55
139.07
124.23
112.06
101.01
90.047
75.821
63.033
53.099
48.025
46.03
52.027
67.135
92.048
122.6
160.08
202.62
249.13
295.51
343.18
389.97
433.22
467.63
495.26
518.56
540.28
557.65
570.29
577.97
583.3
585.92
586.3
583.31
578.3
571.41
564.29
555.68
546.28
535.69
526.27
515.8
504.26
491.04
480.25
468.38
453.23
434.39
421.22
413.44
405.21
388.92
373.19
365.37
367.19
369.56
372.19
376.3
385.2
394.17
403.21
411.31
421.22
429.88
437.23
441.06
444.23
446.38
449.23
450.05
449.23
444.95
439.23
431.74
425.22
418.87
413.21
405.61
397.21
388.1
381.2
375.02
369.19
361.22
353.18
345.16
339.18
333.58
329.17
323.42
317.16
309.29
303.16
297.6
293.15
285.83
278.14
270.6
267.14
262.98
257.13
247.95
242.13
237.79
234.12
229.11
233.12
249.36
277.14
307.89
344.18
386.66
437.23
490.08
546.28
601.93
655.34
700.91
742.38
779.26
812.42
838.01
860.45
879.43
895.46
904.12
909.47
912.53
915.47
914.24
911.47
907.36
905.47
902.67
900.47
895.81
891.46
885.82
883.46
881.38
880.46
875.88
871.45
865.06
859.44
850.09
840.43
828.45
818.42
807.28
798.41
788.52
780.4
770.47
762.39
754.13
749.39
744.46
741.38
736.88
734.38
730.85
728.38
723.74
720.37
715.38
710.37
702.09
694.36
684.97
675.35
662.39
650.34
638.08
627.32
614.7
603.31
590.98
578.3
562.18
547.28
533.8
523.27
511.58
501.26
491.59
484.25
474.95
465.24
454.1
445.23
436.37
429.22
420.12
411.21
400.86
393.2
384.77
376.19
364.49
355.18
346.86
341.18
335.21
335.17
341.1
355.18
373.7
401.21
435.93
477.25
518.05
560.29
602.52
646.33
686.52
724.37
756.84
785.41
807.26
826.43
841.37
853.44
859.74
864.45
866.56
867.45
864.28
861.45
858.45
856.44
851.23
846.44
842.16
841.44
839.68
838.43
835.48
834.43
831.56
828.43
821.4
814.42
805.57
798.41
789.47
781.4
770.71
760.39
748.14
738.38
728.74
721.37
712.46
705.36
698.26
694.36
690.58
689.36
686.86
684.35
678.87
674.35
668.44
662.34
652.7
643.33
632.61
622.32
610.15
600.31
590.28
579.3
563.98
550.28
539.54
532.28
522.36
511.26
499.16
489.25
478.72
469.24
459.4
451.23
441.91
433.22
424.09
417.22
409.42
401.21
390.39
381.2
372.35
365.19
355.84
347.18
337.52
329.17
318.63
309.16
300.01
295.15
291.78
293.15
299.83
318.16
345.34
380.2
417.84
461.24
506.37
551.29
592.02
634.33
676.37
714.37
740.87
761.39
779.22
796.41
807.23
814.42
819.23
824.43
825.63
824.43
820.77
818.42
815.33
813.42
810.42
808.42
804.83
802.42
799.06
797.41
794.43
792.41
787.7
782.4
773.73
765.4
754.7
744.38
732.18
722.37
711.7
701.36
688.67
679.35
671.77
666.34
658.08
651.34
645.79
643.33
638.68
634.33
629.72
628.32
625.89
623.32
618.32
614.32
608.55
602.31
593.48
586.3
579.63
574.3
565.88
556.29
545.02
535.28
524.58
514.27
502.6
492.25
481.35
471.24
459.76
449.23
438.42
429.22
419.62
411.21
402.04
393.2
382.56
372.19
361.63
353.18
344.76
337.17
328.56
321.17
313.02
305.16
294.99
285.15
274.37
265.14
254.91
246.13
236.79
229.12
219.74
211.11
203.43
203.11
209.7
225.12
247.02
279.14
318.39
363.19
408.54
457.24
506.41
554.29
596.22
636.33
673.55
706.37
729.72
748.39
764.03
777.4
783.71
786.41
787.48
789.41
788
784.41
778.58
774.4
770.68
769.4
767.14
764.4
758.65
754.39
750.72
749.39
745.54
741.38
735.19
730.38
722.65
713.37
700.32
689.36
679.84
674.35
668.16
663.34
657.88
655.34
652.24
650.34
647.29
647.33
648.02
650.34
650.16
650.34
648.98
648.34
645.5
643.33
639.22
634.33
626.02
618.32
610.05
602.31
591.91
582.3
572.68
564.29
553.64
543.28
532.21
522.27
510.99
501.26
491.73
483.25
472.28
461.24
450.02
441.23
431.99
423.22
413.46
405.21
396.53
388.2
378.23
369.19
360.36
353.18
344.92
337.17
329.08
323.17
316.4
309.16
298.91
289.15
278.85
270.14
259.49
249.13
238.03
230.12
222.95
219.11
218.95
229.12
248.58
277.14
309.84
349.18
393.14
441.23
487.21
532.28
575.85
620.32
660.29
694.36
720.21
742.38
760.16
774.4
782.04
786.41
788.02
789.41
787.69
784.41
778.94
774.4
768.94
764.4
759.24
756.39
753.11
750.39
745.29
741.38
736.85
733.38
726.44
718.37
707.31
697.36
686.56
678.35
669.62
662.34
653.34
646.33
639.48
635.33
630.14
626.32
621.93
620.32
618.51
618.32
617.23
618.32
618.44
618.32
614.98
612.32
609.02
606.31
600.53
594.31
586.29
578.3
567.87
558.29
548.64
540.28
529.83
519.27
507.6
497.26
486.4
477.25
467.92
459.24
448.21
437.23
426.58
419.22
411.75
403.21
391.64
381.2
371.93
364.19
354.56
345.18
336.15
329.17
321.11
313.16
304.36
297.15
289.03
281.15
270.98
261.14
250.46
242.13
233.25
225.12
215.87
210.11
206.48
207.11
211.17
225.12
248.54
281.15
317.36
359.19
404.52
453.23
500.56
548.28
593.26
634.33
667.81
698.36
725.8
749.39
764
773.4
779.87
786.41
789.29
789.41
785.84
781.4
775.09
770.4
766.72
765.4
761.97
757.39
750.63
746.39
742.68
740.38
735.02
729.38
721.56
714.37
704.02
693.36
680.88
671.35
662.89
658.34
653.94
651.34
646.81
643.33
639.31
638.33
636.92
636.33
634
634.33
635.52
638.33
637.83
636.33
633.08
631.33
627.43
622.32
614.3
607.31
599.41
591.31
580.34
570.29
560.53
552.29
541.87
531.27
519.59
509.26
498.14
488.25
477.54
467.24
455.39
445.23
435.93
428.22
418.22
407.21
395.04
385.2
376.33
369.19
361.03
353.18
344.48
337.17
328.99
321.17
312.22
305.16
297.31
289.15
278.29
269.14
260.5
253.13
242.76
233.12
224.93
222.11
221.29
225.12
234.86
257.13
289.28
329.17
371.04
417.22
465.25
514.27
559.12
602.31
642.35
679.35
709.03
734.38
755.13
772.4
782.47
788.41
791.37
794.41
794.49
792.41
786.97
781.4
775.05
770.4
765.06
760.39
754.2
749.39
743.58
738.38
730.92
724.37
716.28
708.37
697.22
686.35
674.14
663.34
650.6
639.33
628.69
622.32
616.07
610.32
602.18
596.31
591.81
590.31
587.27
584.3
579.62
576.3
572.41
570.29
566.98
563.29
556.69
550.28
542.48
534.28
523.2
512.26
500.31
488.25
474.05
461.24
449.46
439.23
427.22
415.21
402.24
389.2
374.14
360.19
347.86
338.17
327.77
317.16
305.73
295.15
283.44
271.14
257.58
245.13
233.43
223.12
212.43
202.1
191.38
181.09
169.69
158.08
145.58
134.07
122.6
112.06
99.637
86.045
71.201
59.031
47.603
36.019
22.192
11.006
3.259
-4.3272e-16
-0.30095
8.0041
27.227
58.03
95.058
138.07
185.59
237.12
286.93
333.17
374.38
413.21
448.88
481.25
507.23
527.27
541.92
554.29
563.91
570.29
571.76
570.29
567.23
564.29
559.98
554.29
546.42
538.28
528.93
519.27
507.91
497.26
486.05
475.25
462.01
448.23
432.38
417.22
402.15
391.2
382.59
377.2
372.76
373.19
377.08
384.2
390.04
397.21
405.65
417.22
427.61
437.23
444.84
453.23
459.92
465.24
467.42
469.24
469.11
467.24
461.99
457.24
453.52
451.23
446.49
440.23
432.38
425.22
417.07
409.21
400.6
393.2
386.12
381.2
376.24
371.19
363.97
357.18
350.5
345.18
339.1
334.17
329.44
326.17
321.6
317.16
311.45
307.16
302.42
299.15
294.22
289.15
281.31
274.14
266.33
261.14
255.68
253.13
253.31
262.14
277.9
302.16
332.37
373.19
421.72
476.25
529.58
583.3
635.12
686.35
733.03
778.4
820.5
859.44
889.13
911.47
926.67
939.49
947.46
952.49
953.58
955.49
956.51
957.5
954.92
952.49
949.2
947.49
943.73
941.49
939.14
939.49
937.6
935.48
929.74
924.48
917.59
913.47
907.1
899.47
887.29
877.45
867.79
859.44
847.59
838.43
830.88
826.43
819.09
813.42
808.41
806.42
801.67
797.41
792.17
789.41
785.12
782.4
778.26
774.4
766.6
758.39
747.99
738.38
726.94
717.37
706.84
696.36
682.72
670.35
658.01
647.33
634.72
623.32
610.89
598.31
582.46
568.29
556.15
547.28
535.63
522.27
507.44
496.26
485.56
475.25
462.67
453.23
445.94
441.23
432.82
423.22
412.4
405.21
397.25
389.2
378.54
371.19
365.85
365.19
366.83
376.19
391.26
413.21
438.77
473.24
514.09
559.29
601.62
644.33
685.97
726.38
759.37
788.41
813.35
836.43
853.44
867.45
876.88
883.46
884.57
885.46
886.05
887.46
884.86
881.46
877.52
876.45
873.96
871.45
867.13
865.45
863.64
863.45
861
859.44
855.24
850.44
841.84
834.43
825.96
818.42
807.49
797.41
786.19
776.4
764.34
754.39
744.62
737.38
729.2
724.37
720.5
718.37
713.28
709.37
705.76
704.36
699.91
694.36
686.05
678.35
668.56
659.34
648.42
638.33
626.71
616.32
604.44
592.31
577.09
562.29
547.51
535.28
521.88
508.26
493.33
481.25
470.15
460.24
448.7
439.23
431.19
425.22
416.97
408.21
398.06
389.2
378.88
369.19
358.05
348.18
337.47
329.17
320.62
313.16
302.91
293.15
283.61
279.14
277.53
281.15
288.86
306.16
331.44
365.19
402.57
445.23
489.19
534.28
577.37
622.32
665.15
702.36
728.61
750.39
770.59
790.41
803.17
810.42
813.34
816.42
817.54
818.42
816.85
814.42
809.32
805.42
801.91
800.41
797.14
794.41
790.8
789.41
786.74
784.41
779.31
774.4
766.28
757.39
745.84
736.38
725.71
714.37
698.9
685.35
673.8
666.34
657.64
650.34
643.21
639.33
634.65
631.33
627.42
626.32
625.27
626.32
626.08
626.32
624.28
622.32
617.12
610.32
601
594.31
588.33
582.3
571.74
560.29
548.63
539.28
528.69
518.27
506.67
496.26
485.02
475.25
465.54
457.24
447.01
436.23
424.48
415.21
406.1
397.21
386.8
379.2
373.21
368.19
359.17
349.18
338.78
331.17
322.23
313.16
302.16
293.15
284.04
277.14
270
266.14
264.35
269.14
280.56
303.16
333.67
371.19
410.39
453.23
497.59
544.28
588.28
630.33
667.81
702.36
730.33
753.39
770.54
785.41
795.71
802.42
803.8
804.42
804.25
804.42
800.58
794.41
786.39
781.4
777.84
776.4
773.16
770.4
766.81
765.4
762
757.39
749.14
742.38
735.4
729.38
719.27
708.37
696.05
686.35
675.23
664.34
652.01
643.33
635.83
630.33
623.09
618.32
615.08
615.32
614.42
614.32
613.38
614.32
613.24
611.32
606.5
602.31
596.43
590.31
581.76
574.3
566.21
558.29
547.3
536.28
524.9
515.27
504.18
493.26
481.74
472.24
461.89
451.23
439.08
429.22
420.52
413.21
404.04
395.2
385.78
377.2
366.75
357.18
347.95
341.18
333.16
325.17
315.4
307.16
297.89
289.15
278.24
269.14
261.34
258.13
256.3
258.13
263.07
277.14
300.38
334.17
371.91
412.21
452.6
497.26
543.2
588.3
626.5
660.34
690.13
718.37
740.61
757.39
767.85
776.4
782.12
786.41
786.72
785.41
781.49
777.4
771.5
766.4
760.93
757.39
752.93
749.39
744.83
742.38
739.17
736.38
729.93
722.37
711.91
702.36
690.94
680.35
668.48
659.34
650.07
642.33
633.24
627.32
623.16
622.32
620.03
618.32
615.33
614.32
613.1
614.32
614.49
614.32
610.98
608.31
604.47
600.31
592.89
586.3
579.87
574.3
565.29
555.29
544.11
534.28
523.03
512.26
500.87
491.25
481.45
473.24
464.51
456.24
445.81
435.23
423.56
413.21
402.48
393.2
384.13
377.2
369.46
361.19
350.45
341.18
332.45
325.17
315.25
305.16
294.02
285.15
276.11
269.14
260.82
253.13
245.79
245.13
249.25
258.13
270.07
293.15
327.7
371.19
415.18
461.24
507.8
554.29
595.61
635.33
672.38
705.36
728.63
746.39
760.62
773.4
780.49
784.41
785.61
786.41
783.87
780.4
775.83
772.4
767.28
762.39
756.79
753.39
749.22
745.39
739.26
734.38
728.84
724.37
716.81
708.37
696.92
686.35
675.15
666.34
655.26
642.33
626.22
614.32
606.38
602.31
596.23
591.31
587.35
586.3
583.32
580.3
576.6
575.3
572.93
570.29
564.93
559.29
551.45
543.28
532.78
522.27
510.68
500.26
488.62
476.25
460.95
445.23
429.14
415.21
401.51
388.2
372.88
357.18
340.82
326.17
312.03
299.15
285.8
273.14
259.86
247.13
234.22
223.12
212.16
201.1
187.57
174.09
160.91
150.08
138.93
128.07
115.17
102.05
87.689
75.039
62.583
52.027
42.934
40.021
43.205
54.028
71.548
100.05
138.14
183.09
228.41
274.14
318.51
361.19
399.34
435.23
467.77
496.26
518.58
538.28
555.15
567.29
571.57
572.3
572.96
574.3
572.25
567.29
561.07
556.29
551.24
546.28
540.33
535.28
529.55
524.27
517.07
509.26
498.94
488.25
475.01
461.24
445.92
433.22
422.36
415.21
408.55
404.21
400.81
401.21
403.21
408.21
413.63
421.22
428.63
437.23
444.55
452.23
458.01
463.24
466.14
469.24
471.22
473.24
472.8
471.24
466.85
461.24
453.71
447.23
440.33
433.22
424.34
417.22
411.5
407.21
401.29
396.2
391.92
389.2
384.5
379.2
372.86
368.19
363.61
361.19
358.19
355.18
349.35
344.18
338.16
333.17
326.35
321.17
315.27
310.16
303.43
301.16
304.13
315.16
329.95
351.18
377.82
413.21
453.99
501.26
550.11
600.31
647.72
694.36
735.92
772.4
801.92
830.43
855.77
875.45
883.91
887.46
890.09
895.46
898.45
899.47
896.53
892.46
885.94
881.46
877.63
875.45
870.76
867.45
864.63
864.45
860.93
855.44
846.13
838.43
829.81
822.43
812.08
802.42
791.08
781.4
770
760.39
750.07
742.38
734.36
729.38
724.34
721.37
716.98
714.37
710.8
708.37
703.81
700.36
695.4
690.36
681.61
672.35
661.28
651.34
640.15
630.33
618.84
606.31
590.04
574.3
559.05
546.28
532.44
519.27
505.17
492.25
478.25
465.24
451.03
437.23
422.64
411.21
401.36
393.2
382.83
373.19
363.42
355.18
344.25
333.17
321.46
313.16
304.81
297.15
286.59
277.14
268.83
266.14
265.61
269.14
277.01
297.15
328.3
368.19
408.67
451.23
495.01
542.28
588.46
634.33
676.22
714.37
744.73
770.4
791.06
809.42
821.93
830.43
834.51
838.43
840.19
840.43
836.55
832.43
828.2
826.43
823.58
821.42
818.55
818.42
817.99
818.42
815.91
813.42
808.93
805.42
798.6
790.41
778.94
769.4
758.86
748.39
734.47
722.37
710.79
701.36
689.49
679.35
670.66
666.34
661.13
656.34
650.52
648.34
646.76
646.33
643.11
640.33
636.02
632.33
626.64
622.32
616.69
610.32
600.34
591.31
582.42
574.3
563.11
552.29
541.36
531.27
518.2
505.26
493.13
484.25
474.75
465.24
454.37
445.23
436.09
428.22
418.65
409.21
398.31
389.2
380.16
373.19
364.42
355.18
343.36
333.17
322.45
313.16
303.11
297.15
293.32
293.15
295.06
306.16
326.25
355.18
387.14
425.22
467.74
514.27
558.52
602.31
643.51
682.35
714.24
742.38
765.78
785.41
797.57
806.42
812.64
818.42
819.74
818.42
814.05
810.42
806.65
805.42
803.34
800.41
794.31
790.41
788.47
789.41
787.47
784.41
778.8
774.4
768.16
762.39
753.71
744.38
731.32
718.37
704.2
692.36
679.31
667.35
654.8
646.33
639.24
634.33
627.83
623.32
618.45
614.32
607.96
604.31
602.34
602.31
598.78
594.31
588.27
583.3
576.47
570.29
562.59
554.29
542.9
532.28
521.56
511.26
498.03
485.25
473.41
464.24
453.87
443.23
431.47
421.22
410.41
400.21
389.03
379.2
369.45
361.19
352.37
344.18
334.7
325.17
314.49
305.16
296.3
289.15
281.59
275.14
267.92
261.14
252.69
245.13
236.8
229.12
219.07
209.11
198.14
189.1
179.74
173.09
169.2
173.09
183.83
203.11
227.55
259.13
296.4
341.18
388.57
437.23
483.97
531.27
575.31
614.32
645.6
674.35
699.85
720.37
731.46
738.38
744.17
750.39
752.05
750.39
746.16
742.38
737.02
732.38
728.09
726.38
724.08
722.37
719.2
717.37
714.5
712.37
707.59
702.36
693.98
685.35
674.08
663.34
650.45
638.33
625.43
616.32
608.52
603.31
597.31
594.31
592.28
592.31
590.47
590.31
590.88
594.31
596.52
599.31
600.49
602.31
602.08
602.31
600.72
598.31
591.37
582.3
571.26
562.29
553.16
544.28
533.23
523.27
513.56
505.26
495.14
485.25
475.18
467.24
458.4
449.23
438.18
428.22
418.18
409.21
398.83
389.2
380.03
373.19
365.09
355.18
342.91
333.17
326.15
321.17
313.69
305.16
296.1
289.15
281.32
273.14
263.03
254.13
244.92
237.12
227.82
219.11
209.28
201.1
192.11
185.1
180.21
183.09
192.63
210.11
232.97
265.14
305.09
352.18
399.82
448.23
496.28
546.28
592.95
634.33
667.92
698.36
724.63
746.39
760.29
770.4
777.09
781.4
780.59
778.4
775.33
772.4
766.62
761.39
756.92
754.39
749.73
745.39
740.46
737.38
733.04
730.38
726.54
722.37
713.71
704.36
692.9
682.35
670.08
660.34
650.61
642.33
632.41
626.32
623.32
624.32
623.19
622.32
621.93
626.32
630.72
634.33
633.99
634.33
634.05
634.33
631.37
628.32
624.07
620.32
613.56
606.31
597.78
590.31
580.88
571.3
560.25
550.28
539.11
528.27
515.86
504.26
492
481.25
470.09
460.24
449.44
439.23
427.76
417.22
406.16
396.2
385.28
375.19
365.11
357.18
349.11
341.18
331.33
322.17
312.88
305.16
296.62
289.15
280.84
273.14
263.07
253.13
242.74
235.12
226.53
217.11
205.2
197.1
193.91
198.1
206.42
222.11
244.82
277.14
315.5
360.19
406.36
453.23
497.61
542.28
584.26
622.32
652.89
680.35
704.9
726.38
739.4
746.39
749.79
754.39
757.54
758.39
754.25
748.39
741.63
737.38
733.42
730.38
725.48
721.37
716.49
713.37
709.33
706.37
700.59
693.36
682.09
671.35
659.86
650.34
639.4
630.33
621.52
616.32
611.79
610.32
608.6
608.31
606.39
606.31
606.82
610.32
612.51
614.32
613.6
614.32
614.41
614.32
609.44
602.31
593.67
588.3
583.47
578.3
568.79
558.29
547.53
539.28
529.52
518.27
504.54
493.26
484.09
477.25
467.93
457.24
445.41
436.23
426.96
417.22
405.74
397.21
390.76
385.2
376.4
367.19
357.73
349.18
338.63
329.17
320.39
313.16
303.24
293.15
282.83
275.14
266.19
257.13
246.12
237.12
229.08
225.12
223.26
227.12
236.77
257.13
286.08
323.17
362.4
404.21
446.9
493.26
539.49
584.3
622.7
656.34
684.64
710.37
730.12
744.38
752.72
760.39
766.53
770.4
768.5
764.4
758.81
753.39
745.52
738.38
732.14
728.38
722.94
717.37
710.79
706.37
700.6
694.36
684.76
675.35
664.35
654.34
642.14
630.33
616.39
603.31
589.24
578.3
568.89
563.29
558.08
555.29
552.08
550.28
547.33
546.28
545.35
546.28
545.93
546.28
545.2
544.28
540.69
536.28
529.4
522.27
513.21
504.26
493.7
483.25
471.64
461.24
450.58
440.23
427.29
413.21
398.15
385.2
372.57
360.19
346.73
335.17
324.26
313.16
299.67
287.15
276.08
266.14
253.84
241.12
228.98
219.11
208.57
198.1
186.92
177.09
166.18
155.08
142.44
131.07
119.21
108.06
96.197
87.045
79.168
74.038
72.05
80.041
98.474
126.07
157.64
195.1
236.86
281.15
323.18
365.19
406.36
445.23
477.38
505.26
529.52
550.28
564.84
576.3
586.11
594.31
597.24
596.31
593.51
591.31
587.63
582.3
574.39
566.29
557.76
550.28
541.05
530.27
516.49
503.26
489.52
476.25
460.43
445.23
430.81
420.22
410.05
401.21
392.64
389.2
390.14
396.2
403.23
412.21
420.52
429.22
436.26
444.23
450.65
455.24
455.97
457.24
458.87
460.24
457.16
452.23
446.41
441.23
433.7
425.22
415.77
407.21
397.84
389.2
380.58
373.19
365
357.18
348.71
341.18
333.18
326.17
319.02
313.16
306.83
301.16
294.93
290.15
284.67
279.14
271.57
265.14
258.76
254.13
248.12
243.13
237.45
233.12
226.01
218.11
209.56
207.11
210.22
221.11
238.28
267.14
305.28
351.18
399.41
453.23
509.65
566.29
617.44
667.35
714.88
758.39
792.15
821.42
847.97
872.45
888.69
899.47
906.03
911.47
912.36
911.47
908.86
907.47
904.06
900.47
894.63
889.46
883.06
879.45
876.84
877.45
876.48
875.45
871.16
867.45
861.29
855.44
846.52
838.43
828.06
818.42
807.03
798.41
788.4
777.4
762.25
750.39
742
738.38
733.03
728.38
722.59
718.37
712.53
709.37
706.53
704.36
697.7
690.36
681.7
674.35
664.55
655.34
644.71
634.33
620.94
608.31
595.51
584.3
570.92
558.29
546.34
538.28
530.26
522.27
511.53
501.26
490.36
481.25
471.94
465.24
458.73
453.23
444.88
436.23
425.96
417.22
406.88
397.21
385.84
376.19
365.74
357.18
347.86
341.18
335.2
334.17
337.74
351.18
372.16
401.21
432.95
469.24
507.68
550.28
592.4
634.33
671.69
706.37
736.43
765.4
790.05
810.42
822.59
830.43
834.39
838.43
840.37
842.44
842.44
842.44
839.89
837.43
833.29
830.43
827.09
826.43
825.17
824.43
820.86
818.42
814.95
812.42
806.79
801.41
793.79
786.41
775.63
765.4
753.98
744.38
732.76
722.37
711.68
704.36
696.68
690.36
682.81
678.35
674.99
674.35
671.56
668.35
662.7
658.34
652.64
647.33
639.26
631.33
622.01
614.32
605.25
596.31
585.25
575.3
564.44
554.29
542.56
532.28
521.48
511.26
499.35
489.25
479.93
472.24
462.52
453.23
443.98
437.23
429.24
421.22
411.4
403.21
393.94
385.2
374.09
364.19
353.74
345.18
334.57
325.17
317.45
317.16
320.42
327.17
336.48
357.18
388.72
428.22
467.09
508.26
551.77
598.31
640.56
679.35
713.72
746.39
772.83
794.41
810.26
824.43
834.14
840.43
841.68
842.44
841.64
840.43
836.08
832.43
828.79
826.43
821.48
817.42
814.18
814.42
812.92
810.42
804.73
800.41
794.81
789.41
780.08
770.4
758.99
749.39
737.54
725.38
710.69
698.36
686.7
678.35
669.97
664.34
658.5
654.34
648.57
644.33
639.52
636.33
631.15
626.32
619.85
614.32
606.52
598.31
587.75
578.3
568.43
560.29
551.01
542.28
531.98
522.27
510.99
500.26
488.86
479.25
468.56
457.24
443.77
432.22
421.89
413.21
402.8
393.2
383.83
376.19
366.71
357.18
346.43
337.17
326.69
317.16
306.68
298.15
289.01
281.15
271.52
263.14
255.83
255.13
260.19
273.14
291.16
317.16
348.94
387.2
427.14
469.24
510.05
550.28
586.19
619.32
647.93
674.35
695.78
713.37
725.23
734.38
739.46
742.38
741.95
741.38
739.25
736.38
730.84
726.38
722.55
720.37
716.16
712.37
708.25
706.37
703.22
700.36
695.01
689.36
680.2
670.35
658.42
648.34
637.35
627.32
615.69
606.31
597.41
591.31
585.48
583.3
582.12
582.3
579.86
578.3
577.15
578.3
577.07
574.3
568.7
564.29
559.76
556.29
550.11
542.28
531.76
522.27
512.6
503.26
490.79
477.25
463.29
452.23
440.98
428.22
412.05
397.21
384.79
375.19
363.86
351.18
337.26
325.17
313.58
303.16
292.2
282.15
271.42
261.14
249.75
239.12
228.01
218.11
207.35
197.1
185.37
174.09
161.45
150.08
139.38
132.07
124.86
118.06
111.46
112.06
121.31
140.07
164.6
197.1
235.74
279.14
322.07
365.19
406.05
444.23
477.95
511.26
542.03
566.29
579.39
587.3
594.73
603.31
608.32
610.32
609.52
607.31
601.88
596.31
591.97
590.31
587.57
584.3
580.4
579.3
578.67
578.3
574.98
571.3
565.87
560.29
551.53
542.28
531.55
522.27
512.55
505.26
498.32
493.26
487.6
484.25
481.1
479.25
476.69
477.25
478.95
481.25
480.69
481.25
482.64
485.25
485.23
485.25
484.45
483.25
478.43
473.24
467.87
463.24
456.18
449.23
442.56
437.23
429.44
420.22
409.75
401.21
392.86
385.2
376.56
369.19
362.13
356.18
348.84
341.18
332.56
325.17
317.74
311.16
303.87
297.15
289.4
282.15
275.17
271.14
267
261.14
250.48
239.12
227.76
218.11
207.01
197.1
187.88
181.09
173.32
167.09
163.5
168.09
180.67
203.11
231.95
267.14
304.8
345.18
384.98
425.22
464.09
503.26
539.1
570.29
593.43
611.32
624.44
635.33
642.1
646.33
647.28
647.33
645.73
644.33
641.56
638.33
633.09
628.32
623.43
620.32
616.73
614.32
611.53
610.32
607.08
602.31
594.03
586.3
577.41
568.29
555.95
544.28
532.41
522.27
511.45
504.26
500.02
499.26
496.5
493.26
489.51
489.25
490
492.25
492.7
493.26
492.68
493.26
491.69
488.25
481.88
477.25
473.77
471.24
466.05
460.24
453.04
445.23
434.88
425.22
416.53
409.21
399.68
389.2
378.03
368.19
357.65
347.18
335.85
325.17
313.66
302.16
289.71
278.14
267.02
257.13
246.19
234.12
220.21
207.11
195.09
185.1
174.39
163.08
150.42
139.07
127.58
116.06
102.61
90.047
77.578
66.034
53.671
44.023
37.545
36.019
38.031
47.024
63.43
88.046
117.26
151.08
187.43
226.12
264.05
301.16
334.67
364.19
388.99
412.21
432.89
449.23
458.89
465.24
470.02
473.24
472.44
469.24
464.62
459.24
451.94
445.23
440.21
437.23
432.85
427.22
419.96
413.21
405.24
397.21
388.18
380.2
370.3
359.19
347.58
341.18
337.59
333.17
324.08
317.16
316.12
321.17
325.97
331.17
337.15
345.18
351.49
357.18
362.19
368.19
372.63
376.19
377.37
377.2
374.68
372.19
368.73
364.19
356.86
349.18
341.08
333.17
324.36
317.16
311.01
305.16
297.39
290.15
283.51
277.14
268.83
261.14
254.83
250.13
244.4
239.12
234.05
229.12
221.44
213.11
204.91
199.1
193.49
189.1
183.42
177.09
168.2
160.08
151.49
144.07
137.08
135.07
135.65
138.07
141.73
156.08
183.86
223.12
264.83
309.16
355.62
405.21
452.85
499.26
542.36
582.3
614.83
642.33
665.19
686.35
702.97
716.37
725.75
734.38
740.53
745.39
747.56
750.39
752.39
754.39
754.35
756.39
759.53
764.4
766.92
770.4
773.72
778.4
779.29
778.4
774.17
770.4
764.22
758.39
750.07
742.38
733.13
726.38
719.57
714.37
706.29
698.36
689.98
686.35
684.86
686.35
686.02
686.35
685.43
686.35
685.7
685.35
682.27
679.35
674.4
670.35
664.27
658.34
650.5
644.33
637.3
630.33
620.16
610.32
599.88
591.31
581.95
574.3
565.94
558.29
549.16
542.28
535.89
530.27
521.36
512.26
502.94
496.26
488.52
481.25
472.4
465.24
456.82
449.23
440.14
433.22
425.13
417.22
406.83
399.21
392.67
389.2
386.5
391.2
403.02
423.22
446.81
477.25
511.87
550.28
586.66
624.32
661.42
698.36
729.66
758.39
782.89
804.42
818.79
830.43
839.52
848.44
852.25
853.44
852.76
855.44
857.84
859.44
857.16
856.44
856.72
859.44
859.63
860.45
860.62
863.45
864.92
867.45
866.79
864.45
857.07
850.44
843.38
838.43
830.88
824.43
816.72
810.42
801.59
794.41
787.06
782.4
776.4
772.4
768.13
766.4
763.23
761.39
758.25
756.39
751.67
746.39
738.56
732.38
725.16
718.37
708.35
698.36
686.78
676.35
664.01
652.34
638.98
626.32
612.01
599.31
586.34
575.3
563.78
554.29
543.32
531.27
516.33
504.26
495.1
489.25
481.31
473.24
464.27
457.24
448.81
441.23
432.15
424.22
415.06
408.21
400.53
393.2
383.14
375.19
368.16
364.19
360.1
361.19
368.28
385.2
407.53
436.23
468.16
505.26
542.56
580.3
615.65
652.34
686.9
718.37
741.6
760.39
775.2
789.41
799.24
806.42
809.55
812.42
813.22
814.42
813.92
814.42
813.76
814.42
813.83
814.42
813.64
814.42
814.38
816.42
817.14
818.42
816.52
814.42
809.38
804.42
796.32
788.41
778.42
770.4
762.07
756.39
749.24
742.38
733.2
726.38
720.05
716.37
711.46
708.37
704.66
702.36
697.38
692.36
685.49
680.35
674.53
670.35
663.89
656.34
645.28
635.33
625.67
618.32
609.28
600.31
589.4
579.3
567.98
558.29
548.48
540.28
530.07
519.27
506.95
497.26
488.48
481.25
472.63
465.24
457.18
449.23
439.3
431.22
423.88
417.22
407.18
397.21
387.5
380.2
370.85
361.19
350.04
341.18
332.19
325.17
316.73
309.16
300.99
297.15
296.59
302.16
312.09
331.17
358
393.2
430.81
471.24
511.7
554.29
595.06
634.33
667.89
697.36
720.99
742.38
759.69
774.4
783.39
789.41
791.92
794.41
794.7
794.41
791.82
790.41
788.67
788.41
786.74
786.41
785.5
786.41
785.86
786.41
785.68
786.41
784.44
781.4
774.68
768.4
759.49
750.39
739.94
734.38
730.43
726.38
716.42
706.37
697.44
692.36
685.71
680.35
675.64
674.35
671.06
667.35
662.7
662.34
662.56
662.34
657.14
651.34
644.91
640.33
633.44
626.32
617.71
610.32
600.9
591.31
579.99
570.29
560.51
552.29
542.09
531.27
518.93
509.26
500.41
492.25
481.43
471.24
461.39
453.23
443.22
433.22
422.95
415.21
407.71
401.21
392.87
384.2
373.86
365.19
356.56
349.18
339.86
331.17
321.51
313.16
302.91
293.15
282.34
274.14
266.75
263.14
261.32
265.14
274.5
294.15
321.39
356.18
394.23
437.23
480.59
523.27
562.52
603.31
642.92
678.35
704.31
726.38
745.47
761.39
769.29
774.4
779.01
784.41
785.32
784.41
782.61
782.4
780.17
778.4
776.43
776.4
774.81
774.4
773.5
774.4
773.76
774.4
772.84
770.4
764.09
758.39
750.06
740.38
728.48
722.37
718.81
713.37
699.44
686.35
678.81
678.35
676.35
674.35
671.86
671.35
668.27
666.34
665.17
666.34
664.13
660.34
654.5
650.34
644.52
638.33
629.87
622.32
612.87
602.31
588.62
576.3
564.92
555.29
543.14
530.27
516.09
503.26
489.41
476.25
462.18
449.23
435.58
423.22
410.56
399.21
387.45
377.2
366.59
356.18
343.64
331.17
318.86
309.16
299.88
291.15
280.54
270.14
259.04
249.13
237.7
226.12
213.12
202.1
191.22
181.09
168.16
155.08
142.63
136.07
134.61
140.07
150.75
170.09
196.67
231.12
269.78
313.16
357.02
400.21
440.19
480.25
517.85
550.28
573.2
591.31
607.44
623.32
634.71
642.33
646.22
648.34
646.75
643.33
638.34
634.33
630.16
627.32
623.45
619.32
613.71
610.32
606.98
603.31
595.6
587.3
576.93
566.29
554.04
546.28
541.55
538.28
530.2
522.27
517.31
519.27
522.59
527.27
531.28
538.28
545.6
554.29
560.78
567.29
572.19
578.3
582.9
587.3
588.87
590.31
590.14
590.31
587.54
583.3
576.89
572.3
567.45
562.29
554.23
547.28
541.06
536.28
529.15
522.27
515.6
511.26
505.75
500.26
493.85
489.25
483.64
477.25
467.93
459.24
450.88
445.23
439.58
435.23
428.72
421.22
410.59
401.21
391.8
384.2
374.3
365.19
355.69
349.18
341.33
334.17
327.53
329.17
338.51
357.18
381.42
415.21
455.12
500.26
545.45
594.31
642.68
688.36
726.82
765.4
803.65
838.43
860.87
876.45
889.85
905.47
916.58
923.48
925.71
928.48
929.72
931.48
931.08
931.48
930.49
931.48
931.63
933.48
933.71
935.48
935.39
936.48
935.63
936.48
934.53
931.48
923.35
915.47
906.27
899.47
890.6
883.46
875.77
871.45
865.7
860.45
852.24
846.44
841.95
842.44
841.88
840.43
834.59
830.43
826.74
825.43
820.53
814.42
805.54
798.41
789.7
781.4
770.41
760.39
748.91
738.38
725.49
713.37
700.24
689.36
677.54
666.34
652.33
638.33
623.27
611.32
600.01
590.31
578.48
567.29
554.84
543.28
529.96
518.27
506.3
496.26
484.92
475.25
464.11
453.23
439.69
428.22
416.74
407.21
396.3
389.2
384.36
383.2
381.08
383.2
390.86
409.21
434.36
467.24
502.92
542.28
581.24
622.32
661.8
700.36
733.58
764.4
790.67
814.42
831.69
845.44
854.98
864.45
870.84
875.45
875.6
875.45
874.4
875.45
875.14
875.45
874.31
875.45
875.85
877.45
877.28
879.45
881
883.46
882.12
880.46
875.9
871.45
863.27
855.44
845.92
838.43
829.45
822.43
814.37
808.42
801.48
797.41
793.1
790.41
785
780.4
774.97
772.4
768.91
766.4
761.27
756.39
749.04
742.38
733.84
726.38
717.37
709.37
699.05
688.36
674.92
662.34
648.68
636.33
623.11
612.32
601.16
590.31
576.51
563.29
549.3
536.28
521.71
509.26
497.54
487.25
474.73
463.24
452.7
445.23
436.95
429.22
420.42
413.21
404.81
397.21
388.34
381.2
372.92
365.19
354.83
345.18
334.82
327.17
319.35
314.16
310.37
313.16
321.57
338.17
359.35
387.2
419.05
457.24
498.39
543.28
586.13
626.32
660.99
694.36
723.86
749.39
767.81
784.41
798.63
810.42
814.94
816.42
816.5
818.42
818.43
818.42
817.26
817.42
815.63
814.42
812.82
814.42
815.9
818.42
818.28
818.42
816.3
814.42
808.84
802.42
793.44
786.41
778.13
770.4
759.75
750.39
740.38
732.38
722.58
714.37
706.14
701.36
696.45
693.36
689.01
686.35
682.43
679.35
673.68
668.35
661.94
658.34
654.51
651.34
644.99
638.33
629.89
622.32
612.38
602.31
591.32
583.3
575.03
566.29
554.51
544.28
534.71
526.27
515.29
505.26
495.86
488.25
478.55
469.24
460.13
453.23
445.13
437.23
428.49
421.22
413.06
405.21
395.83
387.2
378.8
373.19
367.42
361.19
352.5
345.18
337.39
329.17
318.06
309.16
301.66
295.15
284.53
274.14
265.39
261.14
256.35
253.13
252.58
261.14
277.05
301.16
330.29
367.19
408.19
452.23
494.66
538.28
580.92
622.32
657.66
689.36
715.95
738.38
753.22
764.4
772.61
780.4
784.34
786.41
786.09
786.41
785.17
784.41
782.59
782.4
781.69
782.4
781.31
780.4
778.08
778.4
778.01
777.4
773.12
769.4
762.91
754.39
741.9
733.38
727.53
722.37
710.61
698.36
688.7
685.35
681.88
679.35
675.77
674.35
671.74
671.35
671.53
674.35
674.85
674.35
670.8
668.35
665.16
663.34
659.19
654.34
646.3
638.33
629.29
622.32
614.44
606.31
595.11
584.3
572.98
563.29
552.34
542.28
531.51
522.27
512.14
503.26
493.72
485.25
475.09
465.24
454.9
447.23
439.89
433.22
424.78
417.22
409.13
401.21
390.93
381.2
371.94
365.19
358.19
352.18
344.77
337.17
326.87
317.16
307.69
301.16
293.43
285.15
274.49
266.14
258.47
253.13
248.07
249.13
257.22
275.14
298.67
329.17
364.19
405.21
447.72
492.25
535.9
580.3
621.13
658.34
689.31
717.37
740.01
757.39
767.09
774.4
780.29
786.41
788.78
789.41
787.76
786.41
783.32
781.4
779.25
778.4
775.77
774.4
772.88
773.4
771.93
770.4
766.18
762.39
756.21
750.39
741.57
732.38
720.38
710.37
701.36
696.36
689.85
682.35
672.23
666.34
663.62
664.34
662.86
662.34
661.48
662.34
660.91
660.34
658.82
658.34
655.76
654.34
651.11
646.33
637.48
630.33
624.18
618.32
607.56
596.31
585.92
578.3
568.56
558.29
546.65
536.28
524.88
515.27
505.76
497.26
486.73
477.25
468.22
461.24
453.02
445.23
436.41
428.22
418.38
409.21
400.07
393.2
386.55
381.2
374.67
368.19
360.19
353.18
345.13
337.17
327.11
318.16
308.92
301.16
291.71
283.15
273.6
265.14
254.39
245.13
239.23
243.13
253.8
270.14
289.15
317.16
354.27
399.21
443.5
487.25
529.84
574.3
616.01
654.34
685.92
713.37
735.35
754.39
767.86
777.4
781.94
785.41
786.49
786.41
783.42
781.4
779.41
778.4
775.58
774.4
773.49
773.4
769.64
765.4
760.48
758.39
755.3
752.39
745.38
736.38
724.04
714.37
705.63
698.36
687.33
676.35
665.37
658.34
651.68
647.33
642.37
639.33
635.62
634.33
632.76
632.33
629.54
627.32
624.11
622.32
618.81
615.32
609.21
602.31
592.39
582.3
570.79
560.29
549.03
539.28
528.78
518.27
505.04
491.25
475.89
461.24
446.2
433.22
420.13
407.21
392.78
380.2
368.44
357.18
343.5
330.17
317.46
306.16
293.5
281.15
269.24
259.13
248.5
238.12
227.18
217.11
206.01
195.1
183.75
174.09
163.48
152.08
138.69
127.07
115.37
103.05
88.058
76.039
68.462
66.034
64.741
68.035
78.469
100.05
130.1
168.09
209.84
254.13
297.48
341.18
383.27
423.22
457.45
487.25
512.32
534.28
551
563.29
570.81
576.3
579.78
582.3
581.97
579.3
573.87
568.29
562.68
558.29
553.07
548.28
543.27
540.28
536.2
530.27
519.63
508.26
496.66
487.25
476.3
465.24
453.15
444.23
437.05
433.22
429.75
429.22
430.79
437.23
444.88
453.23
458.93
465.24
471.99
481.25
488.97
495.26
498.22
501.26
503.21
505.26
504.64
503.26
500.13
497.26
492.44
487.25
480.97
476.25
470.89
465.24
457.63
451.23
445.17
440.23
434
429.22
425.4
423.22
418.48
412.21
405.05
401.21
398.28
395.2
389.18
384.2
379.91
377.2
372.32
368.19
363.61
360.19
354.31
349.18
343.11
338.17
331.43
327.17
324.13
325.17
328.82
341.18
361.17
389.2
420.02
457.24
499.83
548.28
594.84
639.33
680.38
722.37
761.33
796.41
823.37
846.44
865.51
883.46
896.21
905.47
909.84
913.47
914.55
915.47
914.1
913.47
910.86
908.47
904.49
903.47
902.78
903.47
901.27
900.47
899.15
899.47
896.14
892.46
886.39
881.46
872.88
863.45
851.11
841.44
831.99
825.43
817.25
810.42
802.12
796.41
790.76
788.41
785.1
782.4
776.97
773.4
769.86
768.4
763.89
758.39
749.89
742.38
733.14
724.37
713.05
702.36
690.51
680.35
668.4
656.34
642.27
630.33
618.37
607.31
593.56
580.3
566.45
554.29
540.73
528.27
515.37
504.26
492.14
481.25
469.72
460.24
450.87
444.23
436.8
429.22
418.53
409.21
400.07
393.2
384.54
377.2
369.2
363.19
355.37
349.18
343.98
345.18
351.7
367.19
388.45
417.22
450.02
489.25
530.69
574.3
615.37
656.34
694.26
730.38
761.08
789.41
812.79
832.43
845.21
855.44
862.41
868.45
870.87
873.45
874.63
875.45
872.31
869.45
866.89
867.45
866.97
867.45
866.03
865.45
863.18
863.45
863.13
863.45
859.85
856.44
850.89
845.44
835.76
826.43
816.5
809.42
800.02
790.41
778.75
770.4
762.96
758.39
752.47
748.39
744.02
742.38
739.31
736.38
730.51
725.38
719
714.37
708.18
702.36
693.54
684.35
672.8
662.34
650.77
640.33
628.05
616.32
602.89
590.31
576.18
563.29
550.08
539.28
528.14
518.27
507.59
499.26
491.44
485.25
477.17
469.24
460.34
453.23
445.03
437.23
428.04
421.22
414.61
409.21
400.56
391.2
380.6
373.19
365.26
357.18
346.23
338.17
332.76
333.17
337.65
351.18
370.91
396.2
423.04
457.24
497.93
543.28
584.61
623.32
658.97
694.36
725.49
754.39
778.13
797.41
809.22
818.42
824.89
830.43
831.98
833.43
833.86
834.43
831.93
830.43
828.96
828.43
824.85
822.43
820.87
822.43
822.21
822.43
820.41
818.42
812.57
806.42
798.03
790.41
779.93
770.4
760.68
754.39
746.67
738.38
727.07
718.37
710.9
706.37
700.42
696.36
692.41
690.36
684.99
678.35
669.8
664.34
659.05
654.34
646.34
638.33
628.6
619.32
608.01
598.31
588.65
580.3
569.63
559.29
548.14
538.28
526.85
516.27
505.12
495.26
483.89
473.24
462.24
453.23
443.78
435.23
425.65
417.22
408.25
400.21
390.72
381.2
370.46
361.19
352.27
345.18
337.62
331.17
323.86
317.16
308.33
299.15
287.99
278.14
268.38
261.14
252.97
245.13
235.69
229.12
224.62
225.12
229.31
242.13
262.92
293.15
328.33
369.19
411.76
456.24
499.52
544.28
586.98
626.32
658.67
688.36
714.49
736.38
749.52
758.39
765.16
772.4
776.04
777.4
775.9
774.4
771.35
769.4
766.65
764.4
760.37
758.39
757
757.39
755.54
754.39
752.04
750.39
744.97
738.38
728.97
720.37
709.22
698.36
686.66
679.35
673.97
671.35
666.53
662.34
657.48
655.34
652.34
650.34
647.08
646.33
645.81
647.33
647.21
647.33
644.97
642.33
636.83
631.33
624.27
618.32
610.56
602.31
591.11
580.3
569.68
562.29
554.57
546.28
534.91
524.27
513.46
503.26
490.19
477.25
465.23
457.24
449.44
441.23
430.58
421.22
412.21
404.21
394.37
385.2
376.33
369.19
361.03
353.18
344.64
337.17
328.81
321.17
312.7
305.16
296.61
289.15
280.73
273.14
264.35
257.13
249.03
241.12
230.53
221.11
213.05
210.11
209.91
215.11
225.22
245.13
273.54
311.16
352.5
397.21
442.11
489.25
535.34
580.3
619.87
655.34
684.76
710.37
729.83
745.39
756.39
766.4
773.53
778.4
778.63
777.4
774.54
772.4
768.92
766.4
763.23
761.39
758.22
756.39
754.35
754.39
752.03
748.39
741.79
737.38
732.22
726.38
715.75
705.36
694.14
684.35
673.22
666.34
661.91
659.34
652.59
646.33
641.87
642.33
642.07
642.33
641.86
644.33
645.69
646.33
643.29
640.33
635.93
632.33
626.85
622.32
616.43
610.32
600.84
591.31
581.52
574.3
566.24
558.29
548.42
539.28
528.69
518.27
506.4
496.26
486.19
477.25
466.69
457.24
448.2
441.23
432.61
423.22
412.73
405.21
398.93
393.2
384.51
375.19
365.31
357.18
349.16
343.18
337.15
331.17
322.18
313.16
304.28
298.15
291.46
285.15
276.77
269.14
260.43
253.13
244.52
237.12
230.24
229.12
233.48
246.13
264.44
291.15
324.38
365.19
408.04
452.23
495.19
540.28
584.49
626.32
660.47
689.36
713.03
734.38
750.38
762.39
768.95
773.4
775.53
778.4
779.35
778.4
773.58
769.4
765.89
764.4
761.12
758.39
754.98
753.39
750.37
748.39
744.99
742.38
736.7
730.38
721.14
712.37
701.04
690.36
679.15
672.35
667.17
664.34
659.05
654.34
648.92
646.33
643.66
643.33
642.31
642.33
639.93
638.33
636.69
638.33
638.98
638.33
633.02
627.32
620.99
616.32
609.56
602.31
592.91
584.3
574.7
566.29
556.37
546.28
534.39
524.27
514.3
505.26
494.48
485.25
476.55
469.24
460.02
451.23
441.79
433.22
423.41
415.21
407.59
401.21
393.03
385.2
376.75
369.19
360.36
353.18
346.5
341.18
333.33
325.17
316.07
309.16
301.15
293.15
282.59
273.14
264.09
259.13
255.92
257.13
262.4
277.14
299.63
330.17
364.67
405.21
447.77
491.25
532.57
576.3
619.46
658.34
686.85
710.37
731.22
750.39
762.47
770.4
775.55
780.4
781.34
780.4
777.33
774.4
769.41
765.4
761.81
760.39
757.46
754.39
749.1
744.38
738.15
733.38
727.52
722.37
714.14
705.36
694.31
684.35
671.82
658.34
642.51
630.33
620.71
614.32
605.92
598.31
591.04
587.3
583.05
579.3
573.88
570.29
566.58
564.29
560.2
556.29
550.8
546.28
540.35
534.28
525.25
515.27
503.53
493.26
482.62
472.24
459.87
448.23
436.39
425.22
412.11
399.21
386.26
375.19
363.85
353.18
341.77
331.17
320.15
310.16
299.59
289.15
277.59
267.14
257.42
249.13
239.54
229.12
217.36
207.11
197.5
189.1
178.99
168.09
154.95
142.07
128.84
118.06
108.17
100.05
90.855
83.043
77.697
80.041
89.837
108.06
131.72
162.08
197.13
237.12
278.53
321.17
362.05
401.21
436.23
468.24
495.49
518.27
534.95
548.28
559.53
570.29
577.07
578.3
573.75
568.29
563.79
560.29
554.16
546.28
537.65
531.27
524.98
518.27
508.25
497.26
485.51
476.25
466.27
455.24
441.25
429.22
418.36
409.21
399.2
393.2
391.08
393.2
395.61
401.21
408.6
417.22
422.91
429.22
436.56
445.23
450.25
453.23
454.75
457.24
457.53
456.24
452.31
448.23
442.78
437.23
429.58
421.22
412.05
405.21
399.08
393.2
385.66
379.2
372.5
365.19
355.88
349.18
345.41
343.18
337.69
331.17
325.05
321.17
315.88
310.16
303.66
299.15
293.94
289.15
282.91
278.14
272.42
267.14
259.57
253.13
246.37
242.13
238.3
239.12
244.09
257.13
276.63
306.16
343.32
389.2
439.04
493.26
547.12
600.31
648.04
692.36
732.14
770.4
803
830.43
851.47
871.45
887.86
899.47
903.11
905.47
908.06
911.47
910.24
907.47
903.57
901.47
897.92
896.46
895.23
895.46
892.7
891.46
891.01
893.46
891.86
887.46
878.63
871.45
863.09
855.44
844.39
834.43
823.38
814.42
804.07
796.41
788.47
782.4
774.56
769.4
764.51
761.39
755.29
750.39
746.11
745.39
742.25
737.38
728.92
722.37
715.59
709.37
699.14
688.36
676.31
666.34
655.04
644.33
631.87
620.32
606.98
594.31
580.43
568.29
555.54
544.28
532.27
522.27
512.25
504.26
495.51
488.25
480.1
473.24
464.8
457.24
447.86
439.23
429.06
421.22
413.22
407.21
399.59
393.2
384.77
377.2
370.26
371.19
378.42
392.2
408.54
433.22
465.34
504.26
542.58
582.3
621.76
662.34
698.85
733.38
763.27
789.41
807.71
822.43
833.99
845.44
852.34
856.44
857.25
859.44
860.32
860.45
857.22
855.44
854.3
855.44
854.82
855.44
855.07
855.44
852.62
850.44
846.94
844.44
838.75
833.43
825.88
818.42
807.4
797.41
786.87
778.4
767.72
758.39
748.83
742.38
735.1
729.38
722.69
718.37
713.17
709.37
704.29
701.36
697.57
694.36
688.24
682.35
674.36
666.34
655.86
646.33
634.85
622.32
607.22
595.31
584.86
574.3
558.69
543.28
529.73
519.27
506.35
493.26
481.12
473.24
465.38
457.24
446.7
437.23
428.02
421.22
413.28
405.21
395.74
389.2
382.84
376.19
365.44
355.18
345.11
337.17
326.9
317.16
307.28
301.16
296.44
297.15
303.35
319.17
340.68
368.19
399.05
437.23
479.22
523.27
563.64
603.31
641.2
678.35
710.11
738.38
760.77
778.4
789.25
798.41
805.38
810.42
809.93
808.42
806.72
806.42
803.5
800.41
796.14
792.41
786.38
782.4
780.48
782.4
782.22
780.4
774.98
770.4
764.23
758.39
749.36
740.38
729.14
718.37
704.97
692.36
678.7
667.35
655.57
646.33
637.03
630.33
623.54
619.32
614.4
610.32
604.34
600.31
596.76
595.31
591.28
586.3
579.81
576.3
572.71
568.29
559.41
550.28
541.29
534.28
525.17
515.27
503.64
493.26
482.24
472.24
461.35
451.23
439.85
429.22
418.28
409.21
399.87
391.2
381.55
373.19
364.53
356.18
346.22
337.17
328.49
321.17
312.84
305.16
297.43
291.15
284.03
277.14
268.84
261.14
252.52
245.13
236.87
229.12
219.03
209.11
199.21
193.1
187.12
181.09
174.51
175.09
183.33
199.1
219.18
249.13
288.38
334.17
379.05
425.22
471.99
518.27
558.09
594.31
627.55
658.34
681.31
698.36
710.63
721.37
728.07
732.38
733.62
734.38
733.36
732.38
729.04
724.37
717.87
714.37
712.87
713.37
711.63
710.37
708.1
706.37
701.34
696.36
690.27
685.35
676.69
666.34
653.78
644.33
634.92
626.32
616.16
610.32
607.63
608.31
606.88
606.31
605.43
606.31
605.72
607.31
609.27
612.32
612.75
614.32
615.46
616.32
612.67
608.31
603.14
598.31
589.72
580.3
570.37
562.29
552.48
542.28
530.62
520.27
509.29
499.26
487.95
477.25
466.08
457.24
448.28
439.23
427.7
417.22
407.69
400.21
391.04
381.2
370.25
361.19
352.53
345.18
336.85
329.17
320.65
313.16
304.72
297.15
288.58
281.15
272.69
265.14
255.88
247.13
237.22
229.12
220.26
213.11
207.92
211.11
222.08
241.12
263.82
293.15
328.59
371.19
414.95
459.24
502.14
546.28
587.25
623.32
651.55
676.35
697.15
714.37
725.15
733.38
738.72
741.38
738.44
734.38
730.9
729.38
725.61
721.37
716.74
714.37
711.35
709.37
706.33
704.36
700.8
698.36
694.37
690.36
682.64
674.35
663.89
654.34
642.26
630.33
617.36
608.31
601.45
598.31
594.55
592.31
589.79
590.31
591.22
594.31
596.31
599.31
601.11
604.31
605.76
606.31
603.15
599.31
593.06
586.3
577.45
570.29
563.21
556.29
545.98
535.28
524.07
514.27
502.98
492.25
481.12
471.24
460
449.23
437.94
428.22
418.14
409.21
399.22
389.2
377.83
368.19
359.38
352.18
344.18
337.17
329.28
321.17
311.01
302.16
293.34
285.15
274.55
265.14
256.28
249.13
239.24
229.12
219.06
213.11
207.99
205.11
204.51
213.11
230.88
258.13
289.75
327.17
368.16
413.21
457.92
503.26
546.12
586.3
620.15
650.34
676.04
698.36
714
725.38
732.6
738.38
740.52
740.38
736.77
732.38
726.73
722.37
717.25
712.37
705.95
701.36
697.14
694.36
689.3
684.35
677.9
672.35
663.84
654.34
642.33
632.33
622.31
614.32
605.26
598.31
591.31
586.3
579.98
575.3
571.07
570.29
569.6
570.29
570.2
572.3
573.56
574.3
571.42
568.29
564.07
560.29
553.67
546.28
537.58
530.27
522.18
514.27
504.17
493.26
480.05
467.24
454.41
443.23
430.75
417.22
401.59
387.2
373.34
360.19
344.77
329.17
314.41
303.16
292.74
282.15
269.41
257.13
245.32
235.12
224.34
214.11
203.23
193.1
181.79
171.09
159.92
150.08
139
128.07
116.34
107.06
98.388
91.047
83.359
80.041
82.642
94.049
111.57
136.07
165.45
201.1
241.18
286.15
330.73
372.19
408.74
445.23
480.78
512.26
534.87
552.29
566.62
578.3
583.93
586.3
587.35
588.3
586.19
582.3
576.85
571.3
564.71
560.29
557.08
554.29
548.83
544.28
540
536.28
530.43
526.27
520.76
512.26
499.34
491.25
488.18
485.25
474.42
463.24
457.81
460.24
462.48
465.24
468.99
476.25
482.45
489.25
496.13
505.26
512.7
519.27
523.3
527.27
529.03
530.27
529.33
528.27
524.79
520.27
513.81
509.26
505.77
503.26
497.29
489.25
479.87
473.24
467.19
461.24
452.83
445.23
438.2
433.22
427.57
423.22
418.65
415.21
409.95
405.21
399.53
395.2
389.26
384.2
377.93
373.19
366.82
361.19
353.78
348.18
342.59
341.18
343.14
353.18
369.1
393.2
422.92
461.24
503.36
548.28
592.15
639.33
686.35
730.38
764.51
793.41
819
844.44
864.23
879.45
888.93
896.46
899.74
901.47
900.33
899.47
896.33
893.46
889.58
888.46
887.43
887.46
884.09
880.46
876.04
875.45
873.88
871.45
865.12
860.45
853.54
844.44
830.97
822.43
816.89
810.42
794.27
776.4
761.77
754.39
746.69
740.38
734.53
732.38
728.87
726.38
722.97
721.37
717.36
713.37
707.43
702.36
694.36
685.35
673.6
663.34
652.51
642.33
628.99
615.32
600.67
588.3
575.13
562.29
547.69
534.28
519.46
504.26
487.26
473.24
461.68
453.23
443.8
435.23
425.86
417.22
406.53
397.21
388.22
381.2
371.53
361.19
349.07
339.18
328.33
318.16
306.24
297.15
289.53
286.15
284.47
289.15
300.1
321.17
349.05
385.2
425.71
471.24
516.7
562.29
604.07
644.33
681.24
717.37
748.5
774.4
792.1
806.42
817.69
828.43
834.8
838.43
838.29
838.43
837.79
838.43
836.89
834.43
829.37
826.43
824.79
826.43
826.39
826.43
825.01
826.43
826.26
824.43
817.21
810.42
803.21
797.41
787.39
776.4
763.9
754.39
743.83
734.38
724.26
718.37
713.49
710.37
704.95
701.36
697.93
696.36
691.66
686.35
679.5
675.35
670.76
667.35
662.21
658.34
652.59
646.33
636.74
627.32
616.45
606.31
594.45
584.3
574.43
566.29
556.13
546.28
536.07
528.27
519.12
509.26
497.59
489.25
483.08
479.25
472.58
465.24
456.26
449.23
440.88
433.22
423.57
415.21
405.39
397.21
388.58
383.2
377.8
375.19
375.18
385.2
403.95
431.22
460.76
495.26
532.71
574.3
614.83
656.34
695.41
732.38
762.84
790.41
813.26
832.43
844.23
853.44
860.4
867.45
870.34
871.45
869.76
868.45
865.26
863.45
861.42
861.45
859.92
859.44
858.24
859.44
858.74
857.44
852.78
849.44
844.29
838.43
827.78
817.42
806.08
796.41
784.4
774.4
764.63
757.39
748.39
741.38
734.58
730.38
724.59
720.37
715.56
712.37
706.93
702.36
696.67
692.36
686.11
680.35
671.85
662.34
650.24
640.33
630.17
619.32
604.27
590.31
577.73
567.29
553.94
540.28
526.28
514.27
500.65
487.25
472.93
460.24
447.37
437.23
428.2
421.22
412.87
405.21
396.64
389.2
380.47
373.19
364.97
357.18
346.81
337.17
326.47
317.16
307.3
301.16
296.24
293.15
289.07
290.15
297.61
314.16
335.89
365.19
399.53
439.23
479.59
522.27
563.52
602.31
634.28
663.34
689.05
712.37
729.13
742.38
752.01
760.39
764.9
768.4
769.72
770.4
768.1
766.4
764.74
764.4
761.47
758.39
754.84
754.39
753.87
754.39
752.44
750.39
745.42
740.38
732.91
726.38
718.08
710.37
699.8
689.36
677.23
667.35
657.42
650.34
643.64
640.33
637.09
635.33
631.95
630.33
628.45
628.32
626.74
626.32
624.42
622.32
616.87
611.32
604.41
598.31
590.12
582.3
573.09
564.29
553.46
543.28
532.32
522.27
510.76
500.26
489.28
479.25
467.77
457.24
446.47
437.23
427.48
419.22
410.23
401.21
390.39
381.2
372.66
365.19
355.16
345.18
335.01
327.17
318.13
309.16
298.33
289.15
279.96
273.14
265.52
259.13
252.26
249.13
248.92
255.13
266.51
287.15
315.72
353.18
393.37
435.23
476.23
520.27
564.34
606.31
640.13
668.35
691.88
714.37
732.48
746.39
753.54
757.39
758.92
762.39
765.28
766.4
762.36
757.39
753.12
752.39
751.33
750.39
747.38
745.39
742.41
740.38
735.79
730.38
721.74
713.37
702.86
692.36
679.02
666.34
652.47
640.33
627.99
619.32
611.83
606.31
598.49
591.31
584.13
580.3
576.63
574.3
570.41
567.29
562.8
559.29
554.53
550.28
543.73
536.28
525.88
515.27
503.57
493.26
482.41
472.24
460.4
448.23
434.36
421.22
407.94
396.2
384.01
372.19
358.75
345.18
330.88
318.16
305.77
294.15
281.39
269.14
257.25
247.13
236.68
226.12
214.8
205.11
195.92
187.1
176.49
166.09
155.04
144.07
131.02
118.06
104.31
91.047
76.555
64.033
53.356
46.024
39.928
38.02
41.007
52.027
70.345
98.051
132.76
173.09
214.68
257.13
297.36
335.17
369.99
405.21
438.34
465.24
481.69
492.25
501.39
511.26
518.46
522.27
522.12
519.27
513.67
508.26
504.03
501.26
496.83
491.25
484.85
480.25
475.25
469.24
459.41
448.23
435.6
424.22
412.1
401.21
390.14
381.2
372.23
365.19
359.04
357.18
358.78
365.19
372.68
381.2
388.61
397.21
404.91
412.21
417.32
423.22
428.62
433.22
433.75
432.22
428.57
424.22
417.1
409.21
400.64
393.2
385.05
377.2
368.7
361.19
353.56
347.18
340.24
333.17
324.65
317.16
310.57
306.16
301.78
298.15
293.56
289.15
283.58
279.14
274.62
271.14
266.03
261.14
255.02
250.13
244.21
239.12
231.96
225.12
217.97
215.11
213.9
215.11
217.55
229.12
251.65
286.15
325.43
369.19
414.94
465.24
516.94
571.3
623.46
672.35
713.57
750.39
781.66
809.42
830.86
849.44
863.75
875.45
881.97
887.46
891.88
897.46
900.58
903.47
905.08
908.47
910.07
911.47
910.48
911.47
912.4
915.47
915.84
915.47
911.34
907.47
900.6
893.46
882.67
872.45
860.25
850.44
841.61
838.43
835.17
830.43
819.68
810.42
803.36
800.41
794.77
789.41
783.92
782.4
779.57
776.4
770.17
765.4
759.49
754.39
746.08
737.38
726.32
716.37
704.86
694.36
682.24
671.35
658.91
647.33
634.23
622.32
608.69
595.31
580.49
568.29
556.55
546.28
534.42
524.27
513.55
503.26
490.79
481.25
473.89
469.24
460.92
451.23
440.35
433.22
425.37
417.22
406.49
399.21
393.2
389.2
383.93
384.2
390.56
405.21
423.55
449.23
480.06
516.27
552.33
591.31
630.78
670.35
703.59
733.38
759.42
784.41
803.48
818.42
828.28
837.43
843.56
848.44
849.56
850.44
849.78
850.44
849.82
850.44
849.8
850.44
849.67
850.44
849.85
850.44
849.45
850.44
849.76
848.44
841.92
834.43
825.21
818.42
809.81
801.41
790.74
782.4
773.62
766.4
757.25
750.39
743.98
740.38
735.04
730.38
724.58
721.37
717.15
713.37
707.16
702.36
696.33
690.36
680.86
671.35
660.31
650.34
638.68
628.32
616.57
604.31
588.69
574.3
561.23
551.29
539.61
527.27
513.18
501.26
490
481.25
472.35
465.24
458.18
453.23
447.13
440.23
430.33
421.22
412.28
405.21
396.49
388.2
379.08
372.19
364.48
357.18
347.08
337.17
326.24
318.16
310.47
305.16
299.85
299.15
302.89
315.16
333.83
361.19
393.36
431.22
471.5
516.27
560.45
602.31
637.68
671.35
703.05
733.38
756.53
774.4
787
798.41
806.32
812.42
814.32
814.42
811.74
810.42
809.46
810.42
809.99
810.42
809.77
810.42
809.68
810.42
810.03
810.42
807.72
804.42
797.66
790.41
780.02
770.4
759.3
749.39
737.03
725.38
712.49
702.36
692.74
686.35
679.05
672.35
663.85
658.34
654
652.34
649.17
647.33
644.52
642.33
636.89
631.33
624.73
620.32
615
610.32
603.38
596.31
587
578.3
568.15
558.29
546.36
535.28
523.91
514.27
503.49
493.26
482.24
473.24
464.02
455.24
444.14
433.22
422.06
413.21
404.59
397.21
388.88
381.2
372.47
364.19
354.48
345.18
335.84
329.17
322.99
317.16
308.99
301.16
292.74
285.15
275.18
265.14
254.41
246.13
237.26
229.12
220.11
214.11
208.93
206.11
205.13
213.11
230.94
259.13
291.69
329.17
369.28
413.21
457.44
503.26
546.59
586.3
619.41
650.34
678.02
701.36
715.77
725.38
732.05
738.38
741.13
742.38
741.54
740.38
736.86
734.38
732.76
733.38
732.08
730.38
727.21
726.38
726.07
728.38
728.94
728.38
723.44
718.37
711.61
705.36
695.31
684.35
671.64
662.34
654.76
651.34
648.01
646.33
643.31
642.33
641.45
643.33
644.9
648.34
650.75
654.34
656.18
658.34
657.54
655.34
649.13
642.33
634.05
627.32
619.32
611.32
600.75
590.31
578.62
568.29
557.2
547.28
536.33
526.27
514.89
504.26
492.85
483.25
473.5
465.24
456.44
449.23
441.23
433.22
422.93
413.21
403.68
396.2
388.02
380.2
371.83
365.19
357.63
349.18
338.68
330.17
323
317.16
309.06
301.16
292.71
285.15
275.06
265.14
254.94
247.13
238.02
229.12
219.23
213.11
210.36
214.11
222.3
238.12
260.75
293.15
331.6
375.19
418.76
463.24
506.52
550.28
590.23
626.32
656.71
685.35
710.13
730.38
742.5
750.39
754.88
758.39
758.6
758.39
757.45
757.39
755.06
752.39
748.56
746.39
743.57
742.38
740.59
740.38
738.85
738.38
735.71
732.38
724.85
716.37
704.97
694.36
682.79
674.35
666.26
660.34
653.65
650.34
648.11
648.34
647.25
648.34
649.12
650.34
648
646.33
644.99
646.33
646.25
646.33
643.24
638.33
630.19
624.32
619.36
614.32
604.01
592.31
580.51
571.3
560.68
550.28
539.27
530.27
520.52
511.26
500.13
489.25
477.6
468.24
458.7
449.23
437.97
429.22
422.42
417.22
408.87
399.21
388.96
381.2
373.16
365.19
356.17
349.18
342.77
337.17
329.29
321.17
312.26
305.16
297.08
289.15
279.48
271.14
261.78
253.13
243.6
237.12
231.06
226.12
221.02
223.12
233.55
253.13
276.71
307.16
343.98
388.2
434.09
481.25
525.51
567.29
604.78
642.33
677.12
706.37
725
738.38
749.36
760.39
766.97
770.4
770.27
769.4
766.36
764.4
762.68
762.39
760.15
758.39
756.26
756.39
755.26
754.39
751.36
749.39
745.45
741.38
733.94
726.38
715.91
705.36
693.13
684.35
676.45
670.35
662.55
658.34
656.73
658.34
656.8
654.34
650.73
650.34
649.74
650.34
649.53
650.34
649.53
648.34
644.07
640.33
635.27
630.33
622.29
614.32
605.61
598.31
588.71
578.3
566.2
556.29
546.67
538.28
528.13
518.27
506.68
495.26
482.87
473.24
464.71
457.24
447.12
437.23
427.87
421.22
413.53
405.21
395.3
387.2
379.65
373.19
365.1
357.18
348.54
341.18
332.84
325.17
316.52
309.16
300.74
293.15
284.41
277.14
268.83
261.14
251.21
242.13
233.33
229.12
227.96
233.12
244.58
267.14
297.51
334.17
372.85
417.22
465.03
514.27
558.35
599.31
636.3
670.35
697.48
720.37
738.2
752.39
760.43
766.4
770.61
774.4
774.23
772.4
768.87
766.4
763.14
761.39
758.89
756.39
750.96
746.39
742.41
741.38
738.18
733.38
725.17
718.37
710.22
701.36
688.31
676.35
665.49
658.34
650.01
642.33
633.3
626.32
618.99
614.32
609.85
607.31
602.97
599.31
595.22
594.31
593.81
594.31
591.78
588.3
582.75
578.3
572.49
566.29
557.04
547.28
536.2
526.27
514.99
503.26
489.4
476.25
462.44
449.23
435.24
423.22
411.25
399.21
385.3
373.19
362.11
351.18
337.09
323.17
310.85
301.16
290.35
279.14
267.79
258.13
247.88
237.12
225.38
215.11
205.64
197.1
187.29
177.09
165.76
155.08
144.03
134.07
123.2
112.06
98.808
86.045
73.215
62.032
50.156
40.021
32.586
32.017
36.435
46.024
60.07
84.043
118.52
162.08
207.57
253.13
297.08
341.18
383.22
423.22
458.48
489.25
513.95
534.28
549.36
560.29
566.73
571.3
573.77
574.3
571.38
567.29
562.81
559.29
554.82
550.28
544.55
539.28
533.2
528.27
521.88
514.27
503.21
492.25
480.11
468.24
454.93
445.23
439.03
437.23
435.24
435.23
436.48
441.23
445.96
452.23
458.84
468.24
477.04
485.25
490.31
495.26
499.09
503.26
504.83
505.26
503.03
500.26
495.86
492.25
487.28
481.25
472.66
465.24
458.38
452.23
444.15
437.23
431.36
427.22
421.55
416.22
410.41
405.21
398.23
392.2
387.15
384.2
379.41
373.19
365.28
359.19
353.31
348.18
341.75
337.17
333.08
330.17
324.67
319.17
313
309.16
303.78
298.15
290.47
285.15
279.93
277.14
275.99
283.15
297.77
321.17
350.09
389.2
435.65
487.25
537.07
588.3
639.58
690.36
733.78
772.4
806.28
838.43
864.78
887.46
904.35
917.47
924.14
928.48
929.97
931.48
930.81
931.48
931.29
931.48
928.8
927.48
926.27
927.48
926.73
927.48
928.11
931.48
931.23
928.48
921.56
917.47
912.81
907.47
896.18
885.46
875.03
867.45
856.6
846.44
836.32
830.43
823.45
817.42
810.13
806.42
802.88
801.41
798.1
796.41
793.1
790.41
784.84
780.4
774.65
769.4
760.19
750.39
738.88
729.38
718.59
708.37
695.41
682.35
667.63
655.34
642.87
631.33
617.83
606.31
594.6
583.3
569.06
556.29
544.24
534.28
522.6
512.26
501.41
491.25
478.88
469.24
461.69
457.24
450.45
444.23
437.62
433.22
425.74
417.22
407.11
401.21
396.31
393.2
389.26
391.2
399.11
415.21
434.9
461.24
491.93
528.27
565.6
606.31
646.77
686.35
719.46
749.39
775.55
800.41
819.36
834.43
844.45
853.44
859.29
864.45
866.37
867.45
865.35
863.45
860.65
860.45
859.66
859.44
856.2
853.44
850.18
850.44
850.23
850.44
847.2
844.44
839.09
833.43
824.9
818.42
809.92
800.41
789.5
786.41
786.48
782.4
766.14
749.39
739.02
736.38
731.37
726.38
722.07
720.37
714.89
709.37
704.39
702.36
697.63
692.36
685.16
678.35
668.33
658.34
646.98
636.33
623.57
612.32
600.92
590.31
576.54
562.29
546.64
532.28
517.39
505.26
493.98
484.25
473.01
463.24
453.68
445.23
434.79
425.22
416.15
409.21
401.09
393.2
384.23
376.19
366.48
357.18
347.62
341.18
334.97
329.17
319.96
310.16
298.78
289.15
278.73
270.14
261.75
257.13
254.35
257.13
265.99
286.15
314.12
348.18
383.86
425.22
470.49
518.27
561.99
603.31
640.5
674.35
701.36
725.38
745.58
762.39
771.98
778.4
782.56
786.41
786.24
784.41
780.8
778.4
775.4
774.4
773.17
772.4
768.86
766.4
764.76
766.4
766.08
764.4
759.01
754.39
748
741.38
730.84
720.37
708.54
698.36
686.48
676.35
666.51
660.34
654.3
650.34
645.7
643.33
640.19
638.33
635.22
634.33
633.46
634.33
633.02
631.33
626.81
622.32
616.11
611.32
605.65
600.31
591.82
582.3
570.7
560.29
549.23
539.28
528.25
518.27
507.06
496.26
484.59
475.25
466.05
457.24
446.49
437.23
428.13
419.22
407.68
397.21
387.88
380.2
370.54
361.19
352.28
345.18
336.96
329.17
321.35
315.16
308.07
301.16
292.85
285.15
276.49
269.14
260.96
253.13
242.88
233.12
223.44
217.11
210.76
205.11
198.71
197.1
200.19
210.11
224.95
249.13
281.31
321.17
363.42
409.21
455.37
501.26
543.12
584.3
623.42
659.34
686.23
706.37
721.16
734.38
743.12
748.39
749.54
750.39
749.63
748.39
744.89
742.38
739.82
738.38
735.27
733.38
731.19
730.38
727.77
726.38
723.7
721.37
716.54
713.37
708.64
702.36
690.84
680.35
670.96
664.34
655.91
650.34
647.3
648.34
647.32
646.33
644.69
646.33
647.96
651.34
653.42
656.34
657.14
658.34
657.1
655.34
650.86
647.33
642.77
638.33
630.6
622.32
612.4
603.31
592.49
582.3
571.4
562.29
552.43
543.28
532.5
522.27
510.71
500.26
489.58
481.25
472.8
465.24
456.28
448.23
438.87
429.22
417.97
409.21
402.31
397.21
389.63
381.2
372.21
365.19
357.35
349.18
340.01
333.17
326.93
321.17
312.99
305.16
296.75
289.15
279.07
269.14
258.88
251.13
242.13
233.12
223.12
217.11
213.56
214.11
217.53
230.12
252.42
285.15
322.27
364.19
408.76
457.24
504.61
550.28
590.78
628.32
661.74
693.36
719.23
738.38
748.36
754.39
758.21
762.39
763.49
762.39
757.96
753.39
748.2
745.39
743.12
742.38
739.75
737.38
733.93
732.38
729.39
726.38
720.74
716.37
710.76
705.36
696.08
686.35
675.09
666.34
657.78
652.34
646.62
642.33
636.81
634.33
633.03
634.33
633.9
634.33
633.72
634.33
632.73
631.33
628.29
626.32
622.93
620.32
615.64
610.32
602.08
594.31
585.81
578.3
568.77
559.29
548.38
538.28
526.92
516.27
504.14
492.25
479.46
469.24
460.1
452.23
441.98
431.22
419.46
409.21
398.56
389.2
379.59
371.19
361.84
353.18
344.34
337.17
329.39
321.17
310.85
301.16
292.13
285.15
277.29
269.14
260.03
253.13
246.76
241.12
233.1
225.12
216.43
209.11
199.53
189.1
177.55
170.09
165.26
164.08
164.86
173.09
188.79
213.11
242.82
281.15
325.87
375.19
423.12
471.24
517.79
562.29
600.24
634.33
664.06
690.36
710.12
726.38
738.3
746.39
748.52
749.39
749.8
750.39
747.88
745.39
742.7
740.38
735.07
730.38
726.29
724.37
720.73
718.37
715.83
714.37
709.06
702.36
692.89
684.35
674.31
666.34
657.78
650.34
640.26
631.33
622.75
618.32
614.83
614.32
613.91
616.32
618.52
622.32
624.48
627.32
628.35
630.33
631.39
634.33
635.58
635.33
630.33
624.32
616.84
610.32
602.06
594.31
584.89
575.3
563.85
554.29
545
536.28
525.17
515.27
505.73
497.26
486.7
477.25
467.95
459.24
447.82
437.23
427.89
421.22
413.23
405.21
396.51
389.2
380.86
373.19
365.54
360.19
354.62
349.18
341.24
333.17
324.28
317.16
308.97
301.16
292.33
286.15
279.76
273.14
262.7
253.13
245.94
245.13
246.21
250.13
257.8
277.14
306.49
343.18
381.01
423.22
468.06
514.27
556.5
598.31
638.43
675.35
703.28
726.38
746.32
764.4
775
780.4
782.68
786.41
788.37
788.41
784.47
780.4
776.19
774.4
771.81
769.4
764.84
761.39
757.08
754.39
750.81
749.39
746.86
744.38
737.73
730.38
721.36
714.37
704.75
693.36
678.25
666.34
657.97
655.34
652.48
650.34
646.91
646.33
645.74
646.33
644.49
643.33
641.63
642.33
641.62
640.33
635.99
632.33
627.37
622.32
614.2
606.31
597.76
590.31
580.56
570.29
558.31
547.28
535.06
523.27
509.94
497.26
483.85
472.24
460.91
451.23
440.35
429.22
416.31
404.21
391.69
380.2
368.05
357.18
345.92
335.17
323.68
314.16
305.38
297.15
286.3
275.14
263.72
254.13
243.49
233.12
221.49
211.11
200.02
190.1
178.73
168.09
157.54
151.08
146.73
146.08
149.44
164.08
190.27
226.12
263.72
303.16
344.2
389.2
433.43
475.25
511.41
544.28
572.76
598.31
618.35
634.33
645.66
655.34
662.04
666.34
666.24
664.34
661.18
659.34
656.92
654.34
649.34
644.33
639.06
636.33
633.3
630.33
624.57
619.32
613.22
608.31
601.17
594.31
585.9
578.3
567.62
556.29
544.45
538.28
535.72
536.28
534.64
534.28
535.69
542.28
549.21
556.29
561.03
567.29
572.81
578.3
580.39
582.3
582.95
584.3
583.22
582.3
580.65
580.3
577.28
572.3
564.51
558.29
552.33
547.28
540.23
534.28
529.11
526.27
521.46
515.27
507.17
501.26
495.35
489.25
480.58
473.24
466.32
460.24
451.95
445.23
439.4
435.23
428.28
421.22
412.83
405.21
394.8
385.2
375.74
369.19
360.92
353.18
345.93
345.18
348.27
356.18
367.4
389.2
420.69
460.24
499.65
540.28
580.58
622.32
660.93
698.36
731.46
760.39
781.18
798.41
812.7
826.43
835.1
840.43
841.59
842.44
841.55
841.44
839.28
836.43
830.75
826.43
822.54
821.42
819.32
818.42
816.01
814.42
809.67
804.42
796.63
790.41
782.38
774.4
763.26
753.39
742.82
734.38
724.92
718.37
712.28
708.37
702.3
697.36
692.31
690.36
687.57
685.35
680.6
676.35
670.61
666.34
660.45
654.34
644.92
635.33
624.21
614.32
602.77
591.31
577.55
564.29
550.2
538.28
526.43
516.27
505.23
495.26
483.96
473.24
461.92
453.23
444.98
437.23
426.9
417.22
408.04
401.21
393.12
385.2
376.27
369.19
361.08
353.18
343.07
334.17
324.84
317.16
307.15
297.15
286.72
281.15
277.69
277.14
277.58
286.15
303.56
331.17
363.18
401.21
442.84
489.25
535.65
583.3
628.27
670.35
705.47
737.38
765.15
790.41
809.74
826.43
838.88
848.44
852.76
856.44
858.46
859.44
856.71
855.44
855.02
855.44
852.34
850.44
849.41
850.44
849.18
850.44
852.69
855.44
851.36
844.44
835.88
830.43
822.79
814.42
803.01
793.41
783.02
774.4
763.76
754.39
744.51
738.38
732.54
728.38
722.31
718.37
714.59
713.37
710.57
708.37
703.46
698.36
690.66
684.35
677.1
670.35
660.25
650.34
639.99
632.33
623.37
614.32
603.28
594.31
585.57
578.3
568.71
559.29
549.4
542.28
534.43
526.27
515.76
507.26
499.44
493.26
484.9
477.25
468.7
461.24
451.01
441.23
431.34
425.22
418.55
412.21
403.52
397.21
391.04
387.2
383.71
387.2
397.77
417.22
439.72
467.24
498.35
536.28
576.38
618.32
656.53
692.36
724.15
756.39
785.55
810.42
825.91
836.43
842.96
849.44
852.86
855.44
854.83
853.44
849.84
848.44
847.09
846.44
843.28
842.44
842.8
845.44
845.55
846.44
845.63
844.44
838.69
833.43
827.47
822.43
812.5
801.41
789.14
780.4
770.96
762.39
751.56
742.38
732.87
726.38
719.45
714.37
708.53
705.36
701.26
697.36
690.83
686.35
682.19
679.35
673.12
666.34
657.89
650.34
639.78
628.32
615.15
604.31
593.16
582.3
568.64
555.29
541.12
528.27
514.21
501.26
487.6
475.25
462.71
453.23
444.78
437.23
427.04
417.22
407.32
399.21
389.7
381.2
372.28
365.19
356.8
349.18
339.32
329.17
316.93
307.16
297.62
289.15
278.95
273.14
273.12
282.15
296.6
319.17
348.14
385.2
426.04
471.24
515.93
559.29
597.6
634.33
667.57
697.36
719.5
737.38
750.95
762.39
768.63
772.4
773.46
774.4
772.62
770.4
767.13
765.4
762.63
760.39
756.68
754.39
752.45
753.39
752.11
748.39
741.58
738.38
734.31
726.38
713.72
708.37
708.03
702.36
680.49
655.34
638.2
631.33
623.04
614.32
607.13
604.31
599.77
596.31
593.99
594.31
592.09
590.31
588.28
587.3
583.03
578.3
572.14
566.29
557.89
550.28
542.18
534.28
523.25
512.26
501.17
491.25
478.68
465.24
451.27
440.23
430.08
421.22
410.94
401.21
391.81
385.2
377.95
369.19
357.92
349.18
342.07
335.17
324.46
314.16
304.85
297.15
286.33
275.14
263.64
254.13
243.04
233.12
223.83
218.11
213.44
213.11
217.01
229.12
247.75
275.14
308.44
348.18
389.78
433.22
475.07
516.27
553.08
586.3
614.7
642.33
667.29
688.36
700.54
706.37
707.92
710.37
712.47
714.37
712.84
709.37
703.34
698.36
694.31
693.36
691.93
690.36
687.09
686.35
685.69
684.35
677.87
670.35
661.75
654.34
643.39
631.33
617.77
607.31
597.51
590.31
583.07
578.3
572.55
567.29
561.01
558.29
557.27
558.29
557.54
558.29
559.52
562.29
562.5
562.29
560.7
559.29
554.13
546.28
535.09
524.27
513.08
503.26
492.35
481.25
468.15
455.24
441.38
428.22
414.31
401.21
386.59
371.19
354.76
341.18
329.05
317.16
303.2
291.15
281.36
273.14
262.86
253.13
243.85
235.12
224.05
214.11
205.17
197.1
186.03
175.09
164.26
154.08
140.87
128.07
117.36
112.06
110.31
115.06
126.94
148.08
174.48
205.11
237.67
274.14
311.83
349.18
382.19
412.21
438.84
463.24
482.5
497.26
507.27
515.27
520.33
523.27
523.26
522.27
519.36
515.27
510.08
507.26
506.16
505.26
500.85
495.26
489.9
487.25
484.34
481.25
475.44
468.24
457.88
447.23
435.56
425.22
414.34
405.21
396.24
389.2
382.07
377.2
373.48
373.19
374.63
379.2
383.99
389.2
392.49
396.2
399.66
404.21
407.12
409.21
409.28
409.21
407.26
404.21
398.79
393.2
386.78
380.2
371.24
361.19
350.35
341.18
332.2
323.17
312.43
302.16
292.67
285.15
277.21
269.14
260.42
253.13
245.39
237.12
226.88
218.11
210.62
205.11
197.55
189.1
179.24
171.09
161.73
152.08
141.7
136.07
134.13
136.07
139.99
152.08
173.66
205.11
241.22
283.15
328.75
377.2
423.63
469.24
511.68
550.28
582.19
611.32
637.09
658.34
670.84
678.35
682.91
686.35
685.46
682.35
678.36
676.35
673.8
671.35
667.99
666.34
664.14
662.34
659.55
659.34
659.1
658.34
653.16
647.33
639.66
631.33
618.7
606.31
594.52
586.3
578.08
572.3
566.58
562.29
556.27
552.29
549.66
550.28
549.99
550.28
549.46
550.28
550.52
552.29
553.2
554.29
551.78
547.28
540.68
536.28
531.84
526.27
516.12
505.26
495.05
487.25
477.39
465.24
450.2
436.23
423.16
412.21
400.58
389.2
377.58
368.19
358.35
347.18
333.26
321.17
311.16
303.16
292.85
282.15
270.86
261.14
249.69
238.12
225.26
214.11
202.62
193.1
183.85
177.09
170.2
166.09
166.14
177.09
198.45
229.12
262.35
298.15
335.57
377.2
419.16
460.24
496.65
530.27
559.72
586.3
606.86
622.32
631.64
638.33
642.4
646.33
648.58
650.34
649.4
647.33
643.85
642.33
641.1
640.33
638.08
638.33
639.83
642.33
642.04
642.33
641.31
639.33
633.97
630.33
625.09
616.32
602.81
595.31
593.43
590.31
576.97
563.29
556.85
558.29
557.04
554.29
552.33
554.29
554.37
554.29
554.54
558.29
560.81
562.29
560.7
559.29
556.42
554.29
550.64
547.28
541.88
536.28
528.82
522.27
515.29
509.26
501.36
493.26
484.21
477.25
470.73
465.24
457.66
449.23
438.76
429.22
420.01
413.21
405.53
397.21
386.39
377.2
368.26
360.19
349.11
338.17
326.66
317.16
306.68
298.15
290.58
287.15
285.61
289.15
297.08
313.16
335.09
364.19
396.77
433.22
468.58
503.26
535.84
570.29
602.78
630.33
647.8
660.34
670.82
682.35
690.11
694.36
694.37
694.36
693.66
694.36
694.08
694.36
693.58
694.36
694.25
694.36
692.99
694.36
696.72
700.36
700.68
700.36
697.67
694.36
686.23
676.35
664.5
655.34
646.16
638.33
628.32
619.32
610.61
606.31
603.38
602.31
599.48
598.31
597.84
600.31
601.44
602.31
601.34
602.31
602.54
602.31
598.45
594.31
588.53
582.3
572.84
563.29
552.71
542.28
529.16
516.27
503.33
492.25
480.31
469.24
457.75
447.23
435.08
423.22
411.17
401.21
390.69
380.2
368.66
359.19
350.05
341.18
330.63
322.17
315.13
309.16
299.79
289.15
277.33
267.14
256.07
246.13
235.28
225.12
213.23
203.11
194.49
190.1
187.32
189.1
196.35
214.11
240.11
273.14
307.87
345.18
383.16
423.22
462
500.26
535.01
566.29
589.91
607.31
619.45
631.33
640.67
646.33
646.67
647.33
648.85
650.34
648.06
646.33
646.88
650.34
651.63
652.34
652.49
654.34
654.25
654.34
654.08
656.34
656.54
654.34
646.82
638.33
628.16
619.32
609.65
602.31
594.23
586.3
576.48
570.29
566.86
566.29
563.64
562.29
561.9
564.29
564.99
566.29
567.52
571.3
573.35
574.3
572.11
570.29
567.09
564.29
559.79
556.29
551.51
546.28
538.37
531.27
524.27
518.27
509.86
501.26
492.2
485.25
478.18
472.24
464.99
457.24
447.02
437.23
427.41
419.22
410.09
401.21
390.97
381.2
371.09
363.19
355.89
349.18
340.26
331.17
321.42
313.16
304.53
297.15
288.37
279.14
267.77
258.13
248.95
241.12
230.94
221.11
211.34
205.11
200.51
201.1
207.86
225.12
249
278.14
310.09
349.18
392.09
435.23
473.62
512.26
550.89
586.3
610.58
627.32
641.12
656.34
667.8
674.35
675.24
675.35
674.78
675.35
674.65
674.35
673.39
674.35
674.98
676.35
676.38
678.35
680.59
684.35
685.65
686.35
684.22
682.35
678.59
675.35
668.34
659.34
648.3
642.33
639
636.33
629.04
623.32
620.72
622.32
620.85
618.32
616.34
620.32
625.54
630.33
630.75
631.33
631.79
634.33
634.75
634.33
630.94
627.32
621.49
616.32
610.56
606.31
600
592.31
581.53
571.3
560.43
550.28
538.41
527.27
515.19
503.26
489.48
477.25
465.85
456.24
445.4
435.23
424.21
413.21
400.19
388.2
376.94
367.19
355.91
345.18
335.05
327.17
317.55
306.16
292.43
281.15
271.43
263.14
251.73
239.12
225.1
213.11
201.17
191.1
180.84
173.09
167.35
168.09
175.21
191.1
213.03
242.13
275.46
313.16
351.01
389.2
425.41
461.24
493.63
522.27
544.3
562.29
576.19
588.3
596.57
602.31
604.7
606.31
606.37
606.31
604.43
602.31
599.45
598.31
596.8
595.31
591.98
590.31
589.41
590.31
589.08
587.3
582.98
578.3
570.5
562.29
552.28
543.28
532.37
522.27
512.86
509.26
509.14
512.26
514.28
518.27
523.06
530.27
536.19
543.28
550.12
558.29
563.55
567.29
568.29
570.29
571.8
574.3
574.11
572.3
567.66
564.29
560.97
558.29
552.66
546.28
538.61
532.28
524.93
518.27
510.86
505.26
499.56
495.26
489.88
485.25
479.93
476.25
471.91
468.24
463.76
461.24
457.79
453.23
444.88
437.23
430.17
425.22
417.54
409.21
399.79
393.2
385.44
377.2
366.56
359.19
354.06
353.18
353.76
361.19
376.08
401.21
430.88
465.24
501.49
542.28
582.71
622.32
657.62
692.36
723.47
750.39
768.43
782.4
793.92
806.42
814.45
818.42
818.22
820.42
823.86
828.43
829.43
830.43
831.73
836.43
839.47
841.44
840.62
842.44
844.15
846.44
845.07
844.44
841.82
838.43
830.18
822.43
813.67
806.42
797.99
794.41
792.23
789.41
780.47
773.4
769.82
770.4
767.93
766.4
765.49
766.4
762.75
758.39
753.91
752.39
747.85
741.38
731.44
722.37
711.55
701.36
689.59
679.35
667.21
654.34
638.43
624.32
611.06
600.31
588.4
578.3
568.37
560.29
550.65
542.28
533.6
526.27
517.14
509.26
501.68
496.26
488.97
481.25
471.44
463.24
455.06
449.23
441.6
433.22
421.84
412.21
402.19
393.2
381.88
373.19
366.13
363.19
360.71
363.19
370.05
385.2
406.03
436.23
472.39
514.27
555.58
598.31
639.93
682.35
720.85
757.39
789.15
818.42
841.38
860.45
873.48
884.46
891.93
899.47
904.3
908.47
909.44
911.47
913.79
919.48
924.03
928.48
929.99
933.48
937.13
943.49
947.71
952.49
954.6
957.5
956.85
955.49
949.71
943.49
933.6
924.48
914.05
907.47
901.17
897.46
892.1
889.46
886.9
887.46
886.57
887.46
886.78
887.46
885.22
883.46
879.35
876.45
870.82
865.45
857.35
850.44
841.55
833.43
822.57
812.42
800.52
790.41
779.06
769.4
758.25
748.39
736.72
726.38
714.89
705.36
694.44
684.35
672.45
662.34
651.56
642.33
631.82
623.32
614.31
606.31
595.86
586.3
575.98
567.29
556.49
546.28
534.46
524.27
512.87
503.26
491.9
481.25
469.09
