Filtered_Signal
-425.2984431812519
-422.5344641748411
-420.00212078794203
-417.3951158018822
-414.43133035548976
-410.8600546007984
-406.4660602089896
-401.07024799406656
-394.52687116343867
-386.7176048805306
-377.54298414299774
-366.9119438436659
-354.7303498758417
-340.88949622512865
-325.25555429446354
-307.660898205665
-287.89810201198037
-265.71722612613735
-240.82679755826754
-212.89865792473503
-181.5766193447736
-146.4886441988832
-107.26206112098426
-63.54115562961848
-15.006336668693871
38.606015998374936
97.48397345543623
161.72171170939893
231.3033320293722
306.0897067573488
385.8090898591917
470.05207118666215
558.2712640439042
649.7859124302148
743.7914019511552
839.373467673542
935.5267186375398
1031.1769431023956
1125.206520278466
1216.4821441314018
1303.8839637208916
1386.3351608210576
1462.830917451623
1532.4656790097179
1594.457612158683
1648.169218921158
1693.1232194776046
1729.0130507012084
1755.7076164792563
1773.2502324380334
1781.8519992071085
1781.8800903926583
1773.8416392321628
1758.3640472897669
1736.1726236868863
1708.0665018556726
1674.8937794712688
1637.5267914129915
1596.838360727902
1553.6797838131051
1508.8611965406792
1463.134839557489
1417.181596744293
1371.6010261418191
1326.9049429843526
1283.514455479097
1241.760203977846
1201.8854243788533
1164.0513573979226
1128.3444628473278
1094.7848734421689
1063.3355339093491
1033.9115146640308
1006.3890599162465
980.6140205321414
956.4094232001455
933.5820303352451
911.9278423841031
891.2365804201605
871.2952579559447
851.8910033298661
832.8133255522717
813.856026485068
794.818951647025
775.5097433207048
755.745717861214
735.3559411435409
714.1835285792562
692.0881534071979
668.9487114227752
644.6660636463649
619.1657616801066
592.4006532103821
564.3532651963084
535.037867044354
504.5021228731652
472.82824824713094
440.13359064875596
406.5705542939067
372.3257900677627
337.6185728393747
302.6982945615882
267.84101571398065
233.34504186769638
199.52552779188346
166.70816000706188
135.22202934261193
105.39187225707471
77.52992406682446
51.927679751812626
28.84789228696153
8.517150689118754
-8.880631256144602
-23.209518219566057
-34.385403773176115
-42.378230033657715
-47.212473152267144
-48.965867191899655
-47.76641013751622
-43.78775970519353
-37.243184690455934
-28.378292693956706
-17.462808265776143
-4.781724648119454
9.373807676390275
24.715467757654988
40.96623532428366
57.86797883208725
75.1878434330342
92.7231938398615
110.30495279110899
127.79926911459177
145.1075441588125
162.1649339486076
178.93751910719
195.41838913195858
211.6229176322176
227.58350984955183
243.34408782305923
258.95455012922577
274.46540956601365
289.9227776696138
305.3638318802823
320.81287189036107
336.2780484140818
351.74883067395916
367.1942663415993
382.5620765246888
397.7786164788641
412.7497194633538
427.3624262199999
441.48758403636555
454.98327443846046
467.69899562540485
479.4804851649511
490.1750225002005
499.6370044199996
507.73354755596455
514.3498480991985
519.3940249467224
522.801189161181
524.5365182704041
524.5971651899907
523.0128932944727
519.8453947486206
515.18631200719
509.1540380895546
501.8894187636446
493.55051966482483
484.3066534329547
474.331885086783
463.7982484479168
452.86891575945987
441.69157055968367
430.3922408420334
419.06985175067615
407.79174968882097
396.5904302861977
385.4616709328913
374.3642248604317
363.2211786422681
351.92300932440196
340.33230206730605
328.2900060854945
315.6230196798687
302.152809993188
287.70469709541914
272.11737350342673
255.2521968979408
237.0017900270976
217.29750799886472
196.11538780714824
173.4802763868592
149.46793901041434
124.2050731461791
97.86728363291785
70.67520037993962
42.88902687750411
14.801885920684139
-13.267628522230323
-40.98327973222988
-67.99901535395611
-93.9664749978762
-118.54194505370522
-141.39262108369417
-162.20212904628835
-180.67533641969544
-196.54254622746177
-209.56320495553973
-219.52926609067
-226.26833533182406
-229.6466854214972
-229.5721735760588
-225.99702897589103
-218.92040849196468
-208.3905529756454
-194.50632202066643
-177.4178513947333
-157.3260734074967
-134.48087100340308
-109.17769883622815
-81.75259164268606
-52.57558333693455
-22.04267003692099
9.433443749251367
41.4334841040392
73.54222916102877
105.35916624107841
136.50872225954922
166.6496155794172
195.48291058457076
222.7584089256373
248.27908162223986
271.90333242421593
293.54498255008065
313.17097565258524
330.7969144529328
346.48065225983026
360.3142675355055
372.41483936429194
382.9145078992484
391.9503406753949
399.65452878761295
406.1454044923959
411.51970736590334
415.8464389785066
419.1625476262528
421.4705849609845
422.7383815516822
422.9007010428758
421.86275410891335
419.5053853760095
415.6916886348291
410.2747552029831
403.1062146096669
394.0451860221032
382.9672262010444
369.77284099580584
354.3951298999822
336.8061636146969
317.021755331209
295.104373861067
271.16405151681477
245.35724908260724
217.88374167709605
188.98167407731665
158.92099899536134
127.99555780966094
96.51409335214274
64.790503013634
33.13365273352413
1.8370820563162416
-28.8310610973217
-58.637509610997405
-87.39243851628045
-114.95674869111826
-141.24774001344136
-166.2428780463436
-189.981415836968
-212.563707879199
-234.1481426124531
-254.94571692735423
-275.21237365232184
-295.2393148363339
-315.34158611124633
-335.8452974490707
-357.07389992978
-379.33397550773026
-402.9010203490897
-428.0057173542457
-454.82120225487824
-483.45182732948217
-513.9239118088102
-546.1789335295142
-580.0695589148439
-615.3588253012852
-651.7226782011788
-688.7559223565938
-725.9814652391296
-762.8625176417172
-798.8171912634735
-833.2347475362192
-865.4926614800687
-894.9736931644819
-921.0822828883913
-943.2597534060075
-960.9979680805951
-973.8512327402399
-981.4463347011707
-983.4906898054812
-979.7786262584259
-970.1958794549298
-954.7224071773865
-933.4336579844609
-906.5004344766132
-874.1874859315661
-836.850942498741
-794.9346684605056
-748.9655684906032
-699.5478328903682
-647.356062647727
-593.1271830333841
-537.6510455856752
-481.7596390438677
-426.31488077592326
-372.1950373335745
-320.2799179972426
-271.43508806009106
-226.49544775615303
-186.24860710225246
-151.41854646530234
-122.65007934862817
-100.49462356031788
-85.39774165526578
-77.68883998546325
-77.57332976751105
-85.12746420869149
-100.29598133987668
-122.89260846621869
-152.60342222547024
-188.99300397545903
-231.51327715969128
-279.51485619249155
-332.2606722623121
-388.9415702635107
-448.6934974303067
-510.6158371034175
-573.7903903881293
-637.3004814416074
-700.2496614576362
-761.7795108056775
-821.0860840155447
-877.4346022183194
-930.1720652307183
-978.7375243254927
-1022.6698233985225
-1061.6126816577937
-1095.3170587986704
-1123.640816995657
-1146.5457737502086
-1164.092323920932
-1176.4318933599748
-1183.7975626916646
-1186.4932588630554
-1184.8819475300877
-1179.3732694825753
-1170.411051461273
-1158.4610893439547
-1143.9995532140783
-1127.5023030080363
-1109.4353348547088
-1090.2465073250455
-1070.3586284491073
-1050.1639215669277
-1030.0198334887875
-1010.2461055851218
-991.1229996162575
-972.8905536580304
-955.7487341093757
-939.8583416327293
-925.3425186231138
-912.288693566646
-900.7507855982959
-890.7514832608372
-882.2844075491404
-875.3159738945747
-869.7867850445494
-865.6124217401349
-862.6835530794679
-860.8653606210459
-859.996352752331
-859.8867303737177
-860.3165432051592
-861.0339407034493
-861.753867451478
-862.1575762425639
-861.8933291629618
-860.5786240529391
-857.8042196318536
-853.140140470618
-846.1437292635766
-836.3696858844693
-823.3818976058491
-806.766729693913
-786.1473194902926
-761.1983116768915
-731.6603975173522
-697.3539806886321
-658.1912873290973
-614.1862678987517
-565.4617014427004
-512.2530034744658
-454.90835003563126
-393.88485790287433
-329.7407031099497
-263.12321713503235
-194.7531721704989
-125.40565193723616
-55.88809631672784
12.983706147023353
80.41074276404676
145.635966670671
207.9684440633452
266.8053614329499
321.6508749877516
372.13092781963746
418.0033577507092
459.1628546000941
495.64057979459255
527.5985145928491
555.3188432084509
579.1888981218801
599.682392753145
617.3378345642325
632.7351396920534
646.4715482657288
659.1379606959645
671.2967770211121
683.4622252420301
696.0840149378982
709.5349568105339
724.1029582822121
739.987555131645
757.3008868670254
776.0727850681786
796.2594319998695
817.7548714939246
840.4045229598374
864.0197672313496
888.392643073044
913.3097175232751
938.5642700924965
963.966052628553
989.3480411390445
1014.5697706201695
1039.517031902027
1064.0979099219455
1088.2353564151697
1111.856713517419
1134.8808290689399
1157.2036156431136
1178.6830867741585
1199.1250370838359
1218.2705993836153
1235.7868957215292
1251.261891368259
1264.2043595957252
1274.049578517335
1280.1710260014759
1281.8979389722263
1278.538188253393
1269.4055206468122
1253.849867996367
1231.2891494385829
1201.2408240577508
1163.3514043499024
1117.422223739374
1063.42996014597
1001.540735390249
932.1170075483573
855.7169126946715
773.0861536884651
685.1429379169408
592.9567997119216
497.72238367802385
400.72940334933315
303.330029748563
206.9049223074062
112.82901346058208
22.438022952013355
-63.00346883100861
-142.33169827016133
-214.5105746453071
-278.6552352945066
-334.0518890692855
-380.17358857065284
-416.6916102538183
-443.4821520028516
-460.62808748550475
-468.41555768791
-467.3252467354417
-458.0182924689129
-441.31692764821145
-418.180135256799
-389.6748256178002
-356.9432902547444
-321.1679351311891
-283.5345164654867
-245.19526902182952
-207.23340748954436
-170.63048017833458
-136.23795361678563
-104.75421198886048
-76.70788409598677
-52.44808828951603
-32.14184131359525
-15.778537368245475
-3.181091023595509
5.976932655937775
12.149096229716104
15.889834949390666
17.825334671490985
18.622761847625256
18.959068334755745
19.490552548192603
20.82427873845708
23.492344485203375
27.929847877805376
34.45724370445252
43.267597219135496
54.4190530085588
67.83264439491141
83.295382552875
100.46838847221468
118.89966906985148
138.04099588382627
157.268225595806
175.90430942123845
193.24417394046688
208.58061727948953
221.2303482328731
230.5592993041389
236.0063675920638
237.10478174093544
233.50035996838915
224.96601219722587
211.41194545951254
192.8911533197173
169.59990617010368
141.87311027879144
110.17456919945717
75.08235967275124
37.269723620836686
-2.517921174337727
-43.48903475312206
-84.83403234716599
-125.75413470722343
-165.48959342873508
-203.34586593070347
-238.71643455597277
-271.10120935643096
-300.11977102518154
-325.51904604780356
-347.175325224376
-365.0908207464151
-379.3851962659595
-390.28269359227517
-398.0956185989078
-403.2050423808043
-406.0396275711949
-407.0535077046588
-406.70413176864196
-405.4309394965487
-403.635659539081
-401.6649266659892
-399.7957995762063
-398.2246318575145
-397.0596102170044
-396.3171319048688
-395.9220516337476
-395.7116902212277
-395.44336628741746
-394.80509318581386
-393.42897953286257
-390.9067859353744
-386.8070259196927
-380.6929580302972
-372.14079858925976
-360.7574896706054
-346.19738465243165
-328.17726508827695
-306.4891763433279
-281.0106613176873
-251.71207646505866
-218.66078732858324
-182.0221570143657
-142.0573555868669
-99.11812688569887
-53.63874737301126
-6.125495605268575
42.855981331545856
92.69496695178023
142.7511663983518
192.3708914896789
240.90342895042704
287.7170827310353
332.2144018560536
373.8461449587405
412.1235883333841
446.62885211535985
477.0229965081604
503.05172488225344
524.5486198085324
541.4359265663927
553.7229812750609
561.5024538912469
564.944637261497
564.2900600140384
559.8407321140965
551.9503478333094
541.0137736476843
527.4561406819989
511.7218448723894
494.26373461646614
475.53273652684425
455.96813608522535
435.9886934481091
415.9847382345109
396.3113528205267
377.28272174934966
359.16769544210274
342.1865907397559
326.50923037475684
312.2542082612113
299.4893561988787
288.23337846634917
278.4586117077475
270.09485671679755
263.03421590793744
257.13685537731743
252.23759113728534
248.15317148483888
244.69009044855838
241.65272484016282
238.85154620897657
236.1111250640192
233.27762315933685
230.2254644097967
226.8628883165771
223.13612218917982
219.0319596606773
214.57860173751848
209.84469926446454
204.93662528442383
199.99409372458754
195.1843199858828
190.69498470067072
186.726310421807
183.48258915754727
181.16350649737848
179.95559977533122
180.02416815227164
181.50592439246302
184.50264337828895
189.07602305980782
195.24393020869965
202.97815557253085
212.2037512382072
222.7999685005411
234.6027582480826
247.40873897112317
260.9804822827279
275.0529154034744
289.34059770337615
303.54559767838606
317.3656807967465
330.5025190560599
342.6696494180838
353.5999381355641
363.0523474811114
370.81784637350995
376.7243531506277
380.640643884501
382.47920026034257
382.19800479670783
379.8013160225614
375.3394705907791
368.9077627537486
360.64444554653124
350.72788621817483
339.37289642428834
326.82625077673134
313.36140952036675
299.27247464003426
284.86743359230303
270.46077889224136
256.3656319999267
242.88554365723513
230.30618671335588
218.88719671113554
208.85444477054278
200.39304241603588
193.64137626431005
188.68645057482325
185.56077789158184
184.24100427447803
184.64838852735704
186.65117765521097
190.06883847651076
194.6780238576845
200.22007594351635
206.40980032145768
212.9451866702646
219.51770745280893
225.8228011081351
231.57014152217207
236.4933099149275
240.3585167586243
242.9720684298645
244.18633365103676
243.90403417116295
242.08075705380782
238.72565704663043
233.90038267764686
227.7163158960284
220.33026020392253
211.9387465740077
202.77115305530052
193.0818564709131
183.1416553900799
173.2287240903792
163.61937777487412
154.578947276809
146.35307142301053
139.15971136959516
133.1821704813002
128.563366300844
125.40155084770649
123.74761615024981
123.60405872864007
124.92561405820707
127.6215113117776
131.55923972194265
136.56966208903165
142.45326196431864
148.9872726015115
155.93340933281587
163.04591188639492
170.0795986986906
176.79764202895154
182.97879139126857
188.4238035566985
192.96087929210674
196.4499576992603
198.78577446326906
199.89964594619332
199.75999268976
198.37166026001
195.77413124900596
192.03875057896482
187.2651082362194
181.5767395192519
175.11631306267648
168.04048179472795
160.51457164369495
152.70727723722152
144.78552445124245
136.9096491208049
129.22903132568592
121.87831507359263
114.97433259221688
108.61383999202265
102.87215571072605
97.80277204242275
93.43797930117134
89.79049899244899
86.85606631816376
84.61683603420937
83.04541524095185
82.109260678746
81.77512560264375
82.01321055619643
82.80066915417777
84.12414635639968
85.98108182257101
88.37959218978834
91.3368480640739
94.87597513579861
99.02162354964558
103.79445635924814
109.2049004902625
115.24657790846291
121.88988528965079
129.0762106737492
136.71326143208486
144.67193166011293
152.78506537961363
160.84838104672144
168.62371722807856
175.84464299112335
182.22435430313493
187.4656537276052
191.2726879947423
193.36400023601328
193.48634648557737
191.42863700661044
187.03530059796782
180.21834221709372
170.96737641123397
159.35697250431167
145.55073937479466
129.80170300223352
112.44868489274859
93.9085725295807
74.66458260741094
55.25084774387418
36.23389326864807
18.19179107027879
1.6919579292123266
-12.73131616758617
-24.598484060474036
-33.504418695759206
-39.135188611304265
-41.2811544077988
-39.845844000585636
-34.85032658422521
-26.43306850742342
-14.845494620112959
-0.4436792082079569
16.32325803046486
34.92737685119235
54.77804033083486
75.23921384492422
95.64725228929535
115.32855702397319
133.6165735763231
149.86770041049934
163.4757776699465
173.88491527429133
180.60049830315893
183.19827406281075
181.33148175043848
174.73603448458098
163.2338057881458
146.73410867971728
125.23348555505603
98.81395110890678
67.63984800367177
31.95348414756472
-7.930281261694263
-51.630350831505474
-98.70647762446578
-148.66704322392195
-200.97747648580952
-255.06929125899185
-310.3497306212275
-366.2119947331963
-422.0460003331097
-477.2495727679243
-531.2399073525346
-583.4650613190979
-633.4151616258177
-680.6329502182833
-724.7232476262551
-765.3609060062904
-802.2968511846188
-835.3618859577756
-864.4680428991037
-889.6074210678171
-910.8485953438881
-928.3308280994394
-942.2564257501091
-952.8816598959386
-960.5067127432177
-965.4651122962129
-968.1130999578065
-968.8193279800612
-967.955222862202
-965.8862791411558
-962.9644713997604
-959.5218954733473
-955.865676836756
-952.2741183490964
-948.9940035247581
-946.2389271408654
-944.1884934095987
-942.9882035726529
-942.7498494082367
-943.5522359955136
-945.4420748711425
-948.4349157292248
-952.5160190149611
-957.6411108525594
-963.7370032830931
-970.7021042584622
-978.4068807616495
-986.6943724366312
-995.3808800530328
-1004.2569711270492
-1013.0889525620355
-1021.6209561866552
-1029.5777669835052
-1036.668495600891
-1042.5911570100593
-1047.0381671282253
-1049.7027107440592
-1050.285869680139
-1048.5043329666062
-1044.0984446438345
-1036.840283966509
-1026.5414220215769
-1013.0599632403636
-996.3064653703005
-976.2483426707269
-952.912399856223
-926.3852237403742
-896.8112793202796
-864.3887162131234
-829.363078918097
-792.0193061487095
-752.6725679370746
-711.6585951662969
-669.3241880778203
-626.0185454775157
-582.0859435710404
-537.8601307502314
-493.66061634831357
-449.7908414648308
-406.53804775743936
-364.17451937528284
-322.9597733579721
-283.1432203853687
-244.96681197005773
-208.66722827987394
-174.47723411297204
-142.62592761473454
-113.337715716161
-86.82996211242343
-63.309359660985756
-42.967172734615886
-25.97357058810685
-12.471325244693784
-2.5691748257377642
3.664841491603866
6.209781562173087
5.097657045718585
0.4185004148559651
-7.675581181276508
-18.96757017554157
-33.17411600238946
-49.94571457753094
-68.86866807264715
-89.46898038388589
-111.21830376976237
-133.54199336773223
-155.82924978276904
-177.4452385785078
-197.7449734921123
-216.08864362481208
-231.85796190568627
-244.473021947374
-253.4090814454393
-258.2126487306414
-258.51623791313494
-254.0511769435799
-244.65790022866926
-230.29323274228005
-211.03427636339237
-187.07863961939861
-158.74090240927111
-126.44536683346843
-90.7153022166737
-52.15903685924725
-11.453373948829075
30.675090138936994
73.47009291010107
116.16657963995112
158.01160610121514
198.2845579035803
236.31600328744221
271.50454678200623
303.33112204040594
331.3702533947536
355.29792664867784
374.89583733561716
390.051924514042
400.75724478728114
407.09938773333033
409.2527726875799
407.4662917225059
402.0488703813517
393.35360263072226
381.7611762163485
367.6633356675254
351.44712898683906
333.48064759181887
314.10089584496745
293.6043171488138
272.2403615731772
250.20831213432155
227.65740301862544
204.69007540183065
181.3680390494057
157.72065545883208
133.7550437356983
109.46724074038443
84.85372232825844
59.92260738157204
34.70391246113434
9.258293395674972
-16.316205956506415
-41.879782060178705
-67.24915621666567
-92.19868052885586
-116.4643097616539
-139.7503574956434
-161.73882670738814
-182.10097944971378
-200.5106947454689
-216.65906561675834
-230.26961092493656
-241.11342795211243
-249.0235877189794
-253.9080771853359
-255.7606226541769
-254.66878972805074
-250.81884806796668
-244.49701084479585
-236.08680174239598
-226.06245720188107
-214.97842978827876
-203.45521411315116
-192.1618647842653
-181.795710552988
-173.05988419062322
-166.63937963510702
-163.17641431658805
-163.24591357987612
-167.33194551530266
-175.80591982447405
-188.90732508826363
-206.72771623544568
-229.19858146374574
-256.0836207793605
-286.9758609906403
-321.2999161798168
-358.3195796954477
-397.15080549876205
-436.78000407518425
-476.0874392938596
-513.8753641002041
-548.9003721905823
-579.9092701115202
-605.6775926353885
-625.0496996712491
-636.9792152264451
-640.5684113211884
-635.1050164116115
-620.0948528506873
-595.2886952197703
-560.7018032286135
-516.6247284530085
-463.6242308258228
-402.5334759809274
-334.43112654195806
-260.6094983183389
-182.53263270107018
-101.78592420886758
-20.019756881144684
61.109726604269184
139.9992741775511
215.15326293137755
285.2316977738037
349.0893579043269
405.80475835383413
454.6983370864446
495.33993330078897
527.5461656115234
551.3687424944096
567.0750444012748
575.1225143321532
576.1284902843257
570.8371203098798
560.084933066336
544.7665088344596
525.8015227890949
504.1042280573714
480.55622387182433
455.98312619068463
431.1355367635446
406.67450246880134
383.16147605772414
361.0526335044473
340.6972708640632
322.33989369593195
306.1255238936737
292.1076815857503
280.2584538169793
270.4800381427558
262.61714932022323
256.4697017882402
251.80523011411105
248.3705835916581
245.90252677978307
244.1369887991808
242.8168217217682
241.69804211593447
240.55463000950613
239.18203884714407
237.39962471600327
235.05223288339707
232.01118580110997
228.17490049304556
223.46932730641092
217.8483526590393
211.2942541879499
203.81824376494302
195.4610839261849
186.29371653821886
176.41780141739807
165.96603183582607
155.102076948729
144.01999832688588
132.94299715053393
122.12136888213156
111.82957295485954
102.36236525763955
94.02998812591863
87.15246174957723
82.05306835642396
79.05116339470504
78.45448370173206
80.55114968428651
85.60157806822052
93.83053705120457
105.41958844780766
120.50016994323903
139.1475711614888
161.37604681932956
187.1352877280995
216.3084363927121
248.71178933376754
284.09627372264293
322.15072311955566
362.50690951598193
404.7462205635098
448.4078054549744
492.99795469907104
538.0004331337818
582.8874556352973
627.1309813155917
670.2140015130757
711.6415050194906
750.9508170716506
787.721025410227
821.5812281979712
852.217367132978
879.3774471793346
902.8749929920476
922.5906497919942
938.4719002419665
950.5309367228311
958.8407986462652
963.5299531391337
964.7755583746185
962.7956969430036
957.8409000179689
950.1853013267167
940.1177625092414
927.9332977404804
913.9250956871174
898.3773922838236
881.5593911495708
863.7203643497209
845.0860004408938
825.8560040520506
806.2028940447497
786.2718968453174
766.1817901062132
746.026522661814
725.8774218057209
705.7857972914118
685.7857602594586
665.8970926613882
646.1280285824795
626.47784146969
606.9391653298912
587.5000081289554
568.1454406386237
548.8589656179313
529.6235914096527
510.42264893056966
491.2403982906378
472.06246916591624
452.8761693154984
433.67068243281614
414.43716465603467
395.1687427218462
375.8604176933048
356.5088847405153
337.11228835374203
317.6699414524278
298.18204553019206
278.64945728871606
259.0735551197052
239.45626553099166
219.80031294830448
200.1097531655893
180.39083954199717
160.65325294625
140.91170273651278
121.18787641977865
101.51268061122998
81.92868006090002
62.49261166181026
43.27783064609508
24.37653599391315
5.901618512822455
-12.012024009675773
-29.206854917059353
-45.50288917487825
-60.69882573098345
-74.57421203136464
-86.8926930496787
-97.40635183854023
-105.86109671054741
-112.00299319032052
-115.58537985712036
-116.37655075042414
-114.16773909952764
-108.78110337516686
-100.07739971327898
-87.96302416926147
-72.39612290445444
-53.39149748622212
-31.02407410315462
-5.430756270995862
23.189462796920612
54.577191521660815
88.41613472309564
124.33832563770736
161.93096369706956
200.74466626235116
240.30289086919274
280.11224330262957
319.67335607099665
358.49200071340715
396.09008578345424
432.01619255825403
465.8553155347522
497.2375047857353
525.845148335553
551.418679399885
573.7605423827096
592.7373034953887
608.2798494260159
620.3816822767935
629.0953896048889
634.5274410143562
636.8315327139309
636.2007635593094
632.8589743228987
627.0516111135827
619.0364821451799
609.074766276893
597.4226054699049
584.3235747334405
570.00227515347
554.6592415688311
538.467299308531
521.5694452804617
504.07826834730497
486.0768653322907
467.6211571445579
448.7434680170746
429.45719974176257
409.76240951339093
389.65208121769007
369.1188628287458
348.1620262417487
326.7943921933556
305.04895384260533
282.98492804623066
260.6929626415867
238.29923128637964
215.9681551389276
193.9035040563563
172.34765186623775
151.57879411743951
131.90598447852318
113.66190754098743
97.1933804296664
82.84966321135931
70.9687587799165
61.861995123693724
55.797302577798064
52.981720317740795
53.54378311230188
57.516542158562594
64.82205251763405
75.25820577160822
88.48879472700277
104.03766402774063
121.287722424154
139.4854637695305
157.75146131224562
175.09706631152298
190.44726618252508
202.669352057857
210.60672736852916
213.11687735860863
209.11223385047
197.60242695499284
177.73622948201887
148.84138090131873
110.46043374620949
62.38080408612896
4.657336748549788
-62.37407975275204
-138.0929924206984
-221.60168183407723
-311.74348578684476
-407.1317408686991
-506.18824247279883
-607.1894180144212
-708.317815339614
-807.7161746525124
-903.5413515557848
-994.015646427473
-1077.473555771945
-1152.4024837432112
-1217.4764643957135
-1271.5824070884123
-1313.8387686373192
-1343.6068696263876
-1360.4953105313525
-1364.358112120571
-1355.2873122023082
-1333.6008053919147
-1299.826221456884
-1254.6816097450298
-1199.0536446801655
-1133.974003975972
-1060.5945073954679
-980.1615450190037
-893.9902716087533
-803.4389964897348
-709.8841540428584
-614.6961971784156
-519.2167155664039
-424.7370436701953
-332.47859338642377
-243.5751248346842
-159.0571565810205
-79.83870982791616
-6.70657415670944
59.687731282189375
118.83315390123455
170.36135713108098
214.04597817346894
249.7989198723838
277.66378116869356
297.80661351803684
310.5042735684234
316.13071978631297
315.14166726670373
308.058067514908
295.4489181738175
277.9139322418989
256.06660604522887
230.51821574189188
201.863239140943
170.6666427947714
137.45339728110292
102.70049078171849
66.83160677083535
30.214521975695114
-6.838826265144665
-44.06975244260241
-81.26795142864367
-118.26465435090262
-154.92418529799198
-191.1343435037616
-226.79607821240268
-261.8129583629308
-296.08096401557424
-329.4791350712641
-361.8615981015665
-393.05144895685055
-422.83689604021964
-450.96996864744375
-477.1679707162248
-501.11771911940946
-522.4824558429568
-540.911174741122
-556.0499662307946
-567.5548672650998
-575.1056173110247
-578.4196688345091
-577.2657856426298
-571.4765849461013
-560.9594362000273
-545.7052151617041
-525.7945174876437
-501.4010548710284
-472.79208036227936
-440.32581094972016
-404.44592919350356
-365.67334826115956
-324.59551482483255
-281.853601556206
-238.12800410181532
-194.1226049585102
-150.54829887204107
-108.1062927964511
-67.47169925680208
-29.277935547880862
5.89757849741749
37.54596766356527
65.23729323983751
88.62846687055216
107.46845951301678
121.60068700352468
130.962566370709
135.58234625611243
135.57341505366145
131.12637809842678
122.49926799323302
110.00630782269005
94.00568347110166
74.88679712661579
53.05746935972712
28.931533898807025
2.917231371509715
-24.593239452110502
-53.232708690204994
-82.66631620988633
-112.59690677362438
-142.76842869092818
-172.96729564111854
-203.02174127135794
-232.7992639034601
-262.20232289765966
-291.1625078527643
-319.63345607578253
-347.5828420918028
-374.983804514417
-401.8062081534756
-428.0081592275044
-453.5281956786775
-478.27856141003525
-502.1399427131381
-524.9579971674954
-546.5419399765193
-566.6653715005998
-585.0694352878959
-601.4682913891307
-615.5567795967529
-627.0200373063377
-635.5447325825809
-640.831478973573
-642.6079186754724
-640.6419000802134
-634.754140159719
-624.8297555435928
-610.8280706907047
-592.7901680077306
-570.8437319907158
-545.2048544599388
-516.1766066242184
-484.14434000748224
-449.5678422749122
-412.97063204176106
-374.92681446984705
-336.0460259342039
-296.95706712971
-258.29086229408534
-220.66339280557492
-184.65923973943384
-150.81633401856843
-119.61245627180647
-91.45395228868564
-66.66703396245254
-45.49192081012778
-28.079947710204106
-14.493627927198869
-4.709526175583705
1.376325737391051
3.9408385742052014
3.2245385485870517
-0.479024557903011
-6.834664082336407
-15.477300514862335
-26.0236786198581
-38.08373645080574
-51.27136827291978
-65.21437928484141
-79.56347431209906
-94.00015434300532
-108.24341539461912
-122.05515687924716
-135.24421540870853
-147.6689493665829
-159.23831463819835
-169.91139720047062
-179.69540623154322
-188.6421812019496
-196.84332436923702
-204.42413082641303
-211.53654608546924
-218.35143109826723
-225.05045214673063
-231.81793381846376
-238.83301371814397
-246.2624159021334
-254.254116914456
-262.93211734194546
-272.392459830088
-282.7005597983187
-293.8898442497572
-305.96163100185805
-318.8861288802006
-332.60440372454264
-347.03113915946113
-362.05802361306496
-377.557609662918
-393.38751132890184
-409.39482477377857
-425.42067576652806
-441.30481211739175
-456.8901704926384
-472.0273541840585
-486.57896131899713
-500.4237016852013
-513.4602352521638
-525.6106574606007
-536.823546625766
-547.0764788153409
-556.3779069657678
-564.768295562355
-572.3204017470305
-579.1385999069693
-585.3571605172579
-591.1374144816647
-596.6637595203479
-602.1384945939839
-607.775503436439
-613.7928501676332
-620.4043970092266
-627.8106028004817
-636.1887081802632
-645.6825568529159
-656.392340996291
-668.3645920920908
-681.5827657160978
-695.9587884158686
-711.3259442743329
-727.4334758296561
-743.9432566216949
-760.4288596253363
-776.3772981885987
-791.1936556860926
-804.208746975383
-814.6898668422082
-821.8545763413247
-824.8873584816296
-822.9588442975042
-815.2471754009784
-800.9609376345077
-779.3629817732213
-749.7943513247709
-711.6974737593065
-664.6377478419997
-608.3226815617015
-542.6178037322928
-467.55868359110855
-383.35853843746446
-290.41107911478895
-189.28842406712596
-80.73409027895946
34.348766667429054
154.91354077537247
279.79032527229094
407.70941757404273
537.3274515516473
667.2553443552744
796.0872097427891
922.4294014285402
1044.9288944615641
1162.3002730311302
1273.3506574959356
1377.0019689527464
1472.3099997612421
1558.479837893629
1634.8772854409879
1701.0360193726235
1756.6603662884486
1801.623700734831
1835.9626240409025
1859.8672289910746
1873.6678927615003
1877.8191545351272
1872.8813183310322
1859.5004742382482
1838.3876527538528
1810.2978188410502
1776.0093783448383
1736.3048140236417
1691.9529950374629
1643.6936152375122
1592.2241163546273
1538.1893475055451
1482.1741066464417
1424.6986051076858
1366.2167948483395
1307.11740227019
1247.7274254910765
1188.3177752820764
1129.110673092162
1070.2883632579396
1012.0026528170885
954.3847635293132
897.5549684095752
841.6314914920051
786.7381777015445
733.0104919093229
680.5994824095276
629.673441355484
580.4171078026395
533.0283811529107
487.7126382381365
444.67487295464787
404.1100015035145
366.19179595533274
331.0610186765488
298.81342220932834
269.4883442947986
243.05865839310732
219.42283242060216
198.39980081150338
179.7272659222251
163.06391332208958
147.9958525934134
134.04738423849588
120.6959512509926
107.3908739065266
93.5752078392832
78.70983179849975
62.298684871387316
43.91394982343213
23.219928626405864
-0.005618373676648934
-25.853798339764648
-54.271538969012035
-85.05391176974814
-117.84231593314605
-152.128745625175
-187.26609741744358
-222.48422175785097
-256.9111912842234
-289.59905597863883
-319.5531860454671
-345.7641711105658
-367.24114830825437
-383.04537003477805
-392.3227964667025
-394.3345149345356
-388.4838537346325
-374.33917289572
-351.6514757894453
-320.36618792456346
-280.6286838940022
-232.78339677373077
-177.36660063889178
-115.09320219112213
-46.838100882343916
26.387129710560554
103.4613292624778
183.1835808791311
264.30468816834406
345.5591824959985
425.6967718765143
503.51221573568125
577.8727202642268
647.7420897795195
712.2010323628618
770.4631933617358
821.8866679837049
865.9809154061587
902.409154474515
930.9864602075817
951.6738996375663
964.569146703185
969.8941006486351
967.9800997507224
959.251368776372
944.2073601499814
923.4046427223616
897.4389591708772
866.9280173467456
832.4955064702491
794.7567392620823
754.3062201518942
711.7073340691526
667.4842474475626
622.1160193132597
576.0328394390647
529.6142435754873
483.1891021343154
437.0371373794032
391.39169453554507
346.44347434090264
302.34492860642933
259.215026464981
217.14411843122767
176.19865928312154
136.42559648154958
97.85628175226304
60.50981352032496
24.39576446515711
-10.483709673240664
-44.13234866394164
-76.55879540999958
-107.77605576700233
-137.80132220854279
-166.65606648465393
-194.36630319493077
-220.96292599955513
-246.48202206825476
-270.96507933115913
-294.4590147691627
-317.0159688923162
-338.6928309641
-359.55048170209994
-379.65276440987765
-399.0652196994679
-417.853641116891
-436.0825264199289
-453.8135080789552
-471.1038452554743
-488.0050517243163
-504.5617250732721
-520.8106336677988
-536.7801078742408
-552.4897696067941
-567.9506194319042
-583.1654839100261
-598.1298083550894
-612.8327625446597
-627.2586099919214
-641.3882761091968
-655.2010377521774
-668.6762468206027
-681.7949942764955
-694.5416186377852
-706.9049652973576
-718.8793105021392
-730.4648770652042
-741.667888379655
-752.5001333713058
-762.9780472110222
-773.1213487647011
-782.9513119695912
-792.4887800778213
-801.7520552068936
-810.7548087656271
-819.5041613538646
-827.9990756388319
-836.2291939826321
-844.1742339810855
-851.8040288408208
-859.0792666465995
-865.95294634806
-872.372532989317
-878.282763085324
-883.6290221645111
-888.3611866301948
-892.4377891290487
-895.8303327360727
-898.5275490241829
-900.5393723259565
-901.900389558072
-902.6725234366506
-902.9467179625036
-902.8434190146836
-902.5116782339014
-902.1267517137943
-901.88611268106
-902.0038470983781
-902.7034527096392
-904.2091170286021
-906.7356104442017
-910.476997891478
-915.5944451183999
-922.2034709929283
-930.3610719454348
-940.0532128777777
-951.183233923771
-963.5617585455304
-976.898701469149
-990.7979618134699
-1004.7553451400788
-1018.1601871807958
-1030.3010532378134
-1040.375764286066
-1047.5058568950597
-1050.7554207155724
-1049.1540759167056
-1041.7236577123738
-1027.5079733657815
-1005.6047985587586
-975.1990956683571
-935.5962772014914
-886.2542140821774
-826.8126123540484
-757.11836630927
-677.2455531231462
-587.508870553377
-488.4695342817512
-380.9329361600466
-265.9377026181305
-144.7361620932002
-18.766608465750963
110.3818863744968
241.01101827183473
371.3597566603793
499.65414321148984
624.1584898779676
743.2259160859501
855.346080845929
959.1879884597668
1053.635894258195
1137.8166187748975
1211.1169970231
1273.1907394420007
1323.9546419683327
1363.5747960508713
1392.4441071763088
1411.1529094244079
1420.4546948565041
1421.2289807107934
1414.443189892241
1401.115194513641
1382.2779141965375
1358.947094299264
1332.0931261120593
1302.6175161936476
1271.3343670960246
1238.9569996889888
1206.08963391348
1173.22385686059
1140.7394504451088
1108.9090297194507
1077.9058588615433
1047.8141639645673
1018.6412466121345
990.3307163940922
962.7762013235839
935.8349591694202
909.3408947978852
883.1165820725823
856.9839864911759
830.7736800643478
804.3324284422738
777.5291094164902
750.2589902189575
722.4464475463676
694.0462583934933
665.043621540221
635.4530894273843
605.3165991089489
574.7007900969011
543.6937874094447
512.4016113421728
480.9443534138228
449.45223393733545
418.0616347919313
386.9111836740172
356.1379532431846
325.8738296912138
296.2421013320159
267.3543192885106
239.30748680796876
212.18163704238358
186.03785844882754
160.91682221547902
136.83785891092776
113.79862279337397
91.77537123115609
70.72387270857342
50.58093997976997
31.266565154229504
12.68661076990957
-5.264013697392115
-22.697784237856098
-39.730718146095164
-56.478383060424534
-73.05189954986488
-89.55408426494455
-106.07588335715353
-122.693242684463
-139.4645492385637
-156.42875582923915
-173.60427018150673
-190.98865370430445
-208.55913692094364
-226.27391972729467
-244.07418784943
-261.8867455756821
-279.6271415555973
-297.20314995768314
-314.518463625636
-331.47645849533666
-347.98389727667904
-363.9544523346896
-379.3119409446975
-393.99318020409356
-407.95038415718733
-421.15304262649755
-433.5892398653518
-445.26639013114476
-456.21138437149887
-466.4701561558558
-476.10668617203356
-485.20147347017854
-493.84950768428104
-502.1577792775849
-510.2423648698415
-518.2251228053641
-526.2300312918705
-534.3791990524162
-542.7885785510836
-551.5634163985693
-560.7934852382283
-570.5481565652422
-580.8713954710669
-591.7767862327348
-603.24272919995
-615.2079801860939
-627.5677298924322
-640.1704404530045
-652.8156672502064
-665.2530948229174
-677.1830035992552
-688.2583573534828
-698.0886593387723
-706.245668969558
-712.27100234247
-715.685561230541
-716.0006493017421
-712.7305439031918
-705.4062009881357
-693.5896866221792
-676.8888586419544
-654.9717721638758
-627.5802567440539
-594.5421141363867
-555.7814152167211
-511.3264319177221
-461.314821937506
-405.9957856021629
-345.72902978458495
-280.98049746489767
-212.3149473051538
-140.38558938545467
-65.92109585777358
10.289596068893685
87.41419237015324
164.59511148292952
240.96813925663864
315.6810974237397
387.91198173663935
456.8860738868566
521.8915917006613
582.2935058708326
637.5452101918823
687.197782946546
730.9066245574885
768.4353098426909
799.6565595754985
824.5503182031918
843.1990202054071
855.7802303292043
862.5569441097534
863.8659260714307
860.104537561193
851.7165610807015
839.1775615662848
822.9803347651224
803.6209755289626
781.5860542356303
757.3413218962813
731.3222802538774
703.9268588528982
675.5103427816118
646.3825974052614
616.8075430427654
587.0047455873055
557.1529110068478
527.3950047930251
497.8446635310588
468.5935260297504
439.7190865347735
411.29266259224295
383.3870747626187
356.08365380668675
329.4782221383128
303.68573911478956
278.84335288405015
255.1116640149477
232.6740774973306
211.73419914201074
192.51131788250032
175.23410442976322
160.13274711965903
147.42983457380825
137.33037640366322
130.01142111892773
125.61177904915844
124.22238248937087
125.87781135401744
130.5494787118957
138.1409076196408
148.48544063540345
161.34660857394448
176.4212498837528
193.34532525251717
211.702226109669
231.03324336846296
250.84975406486697
270.64660435149847
289.91611955872435
308.16215548288
324.91361885446474
339.73692783863083
352.246952494922
362.116064700729
369.0810297367641
372.9475806358895
373.5926260053491
370.9641474297535
365.078938464941
356.0184182859621
343.92281502872027
328.98405462118865
311.4377107385866
291.55437260722545
269.6307721450188
245.98098233677482
220.92795757945603
194.7956381590851
167.90178932951972
140.55169437758144
113.03277372572403
85.61016030489844
58.523225306235034
31.98301784424645
6.170557295833441
-18.764101675215443
-42.702124317647346
-65.55557121405492
-87.26659412737467
-107.80624420962035
-127.17296812175924
-145.3908469557691
-162.50761351009228
-178.5924695320878
-193.7337168418494
-208.03621301612162
-221.61866139569105
-234.61074592740576
-247.15012449033492
-259.3793004302113
-271.4423999699637
-283.48189074046894
-295.6352828831952
-308.0318602767043
-320.7894965496161
-334.01161769240895
-347.784379162272
-362.17413144754244
-377.2252557588405
-392.95845988834446
-409.36962986068863
-426.429333128434
-444.0830635219214
-462.25230678762387
-480.8364861460068
-499.71581718182006
-518.7550592005547
-537.8080957017742
-556.7232115988385
-575.3488660680298
-593.5397001222549
-611.162481352386
-628.1016834106471
-644.2644237352883
-659.5845307076683
-674.025568752408
-687.5827062219212
-700.2833598553642
-712.1865894618846
-723.3812488510315
-733.9829264616687
-744.1297333469671
-753.9770182359388
-763.6911104200586
-773.4422121295588
-783.3965839959126
-793.7081919954779
-804.5100127549289
-815.9052241120644
-827.9585354002224
-840.6879337563436
-854.0571369680226
-867.9690492719719
-882.2605144172826
-896.6986507271331
-910.9790354943462
-924.7259799795071
-937.4951005422398
-948.7783439912066
-958.0115636346421
-964.5846662081362
-967.8542602381615
-967.1586349546657
-961.8347874873011
-951.2370989425481
-934.7571439739304
-911.8440124072013
-882.0244352096481
-844.9219505249306
-800.2743268357517
-747.9484841133656
-687.9522201783692
-620.4421547279693
-545.727441947129
-464.2689689497738
-376.67394582922344
-283.6859943104553
-186.17104147066206
-85.09950714515715
18.47457466496837
123.43674834609548
228.63682443793712
332.9142224157103
435.12314931340745
534.1568539584072
628.970285537762
718.6005910457784
802.1849935331271
878.975691707855
948.3515103623314
1009.8261156912882
1063.052695911598
1107.8250993615018
1144.0755195718075
1171.8689162691242
1191.3944576389777
1202.9543569832747
1206.9505509111561
1203.8697219694207
1194.267203348016
1178.7503156536918
1157.9616753630996
1132.5629822375574
1103.2197406357172
1070.5872999037058
1035.2985158299703
997.9532447958655
959.1097916110283
919.2783458757714
878.9163627926547
838.4257751252629
798.1518662103326
758.3835919814182
719.3551145363588
681.2483015699095
644.1959540728567
608.2855458069987
573.5632872176947
540.0383590238287
507.6871934723645
476.4577115317567
446.27345033584436
417.03753704257963
388.63648407834046
360.9437973370429
333.8234042157127
307.132923633455
280.72681519034927
254.45945699471085
228.18820940283675
201.77652519244006
175.09716589974875
148.03557728898264
120.49346122771699
92.3925556025929
63.678600605292054
34.32543284644467
4.339111224978072
-26.23805904432859
-57.32377451284108
-88.79245685673091
-120.47268044156326
-152.1455494585228
-183.5442751309576
-214.35519483685937
-244.22045062342372
-272.74250351813373
-299.49060115796885
-324.0092383939083
-345.82855472195195
-364.4765031888273
-379.492509202775
-390.44222151808424
-396.93285054839237
-398.62850173071035
-395.26485326890275
-386.66250465207673
-372.7383385186387
-353.5142942124391
-329.12304372460153
-299.81018411151916
-265.9327082963258
-227.9536812504763
-186.4332231543641
-142.0160762151824
-95.41619616687697
-47.398950316249284
1.2383897765817993
49.687107383459505
97.14767400361833
142.849795249972
186.0711581587402
226.15424787515386
262.52070071489493
294.6827724454792
322.2516205984877
344.94222515822474
362.57490083042944
375.0734832268701
382.46039746136177
384.84893726694025
382.433190169979
375.4761317219957
364.2964720830781
349.25486742267594
330.74010658918303
309.1558526613414
284.90846243703515
258.39632846276413
230.0010929907388
200.08097688030637
168.96635365397907
136.95758383690847
104.32501243879071
71.31092895906136
38.13319982097458
4.990211129477096
-27.933292805847508
-60.45992128338989
-92.41335523332499
-123.61251517041786
-153.86658981382152
-182.97128504380782
-210.70658717810227
-236.8362572345402
-261.10918672856394
-283.26265399643756
-303.0274262859793
-320.13455965659745
-334.3236591667672
-345.35227943917903
-353.00607328508266
-357.1092353697258
-357.53474103939266
-354.2138514129117
-347.1443502884054
-336.3970018144091
-322.11977335360496
-304.5394550117814
-283.9604224323891
-260.7604271601839
-235.38345076908996
-208.3298135203912
-180.14387414117732
-151.3997864554138
-122.68588565940833
-94.58835586125575
-67.67487391848672
-42.47892750097241
-19.485467092237737
0.8815241164071861
18.269065646753468
32.40247423497793
43.08971544617544
50.222758171592844
53.77602004394798
53.80212161456151
50.42527827867008
43.83274545450745
34.264790451717815
22.003693004402265
7.3622765685972
-9.32755385268615
-27.725840151614587
-47.494802822373146
-68.30798601443168
-89.85810249349085
-111.8634405999523
-134.07276627253285
-156.26871669656325
-178.2697358802358
-199.9306449677196
-221.14197118872812
-241.82818092534248
-261.9449778225068
-281.4758383684284
-300.42796420006374
-318.8278309146084
-336.7165082114922
-354.14491900534546
-371.1691976231925
-387.8462973463181
-404.22998233753646
-420.3673187585077
-436.29575801729294
-452.0408839924292
-467.61487565941235
-483.01571603604606
-498.22715773600135
-513.2194352116833
-527.950694578488
-542.3690937072926
-556.4155064558822
-570.0267428480697
-583.1391706873728
-595.692595897383
-607.6342330249091
-618.922577255961
-629.5309769745248
-639.450702651067
-648.6933148425062
-657.2921522900896
-665.3027906897704
-672.8023621127766
-679.8876708350923
-686.6720893368337
-693.2812648520121
-699.8477099590309
-706.5043903295275
-713.377460478777
-720.578335567483
-728.195324232069
-736.2850834985646
-744.8641910435047
-753.9011605194357
-763.3092488958168
-772.94041644188
-782.5807974623815
-791.948023371205
-800.6907095903488
-808.3903722965772
-814.5659774418945
-818.6812417258003
-820.1547047642437
-818.372476795742
-812.703441312873
-802.5165625561599
-787.1998205318279
-766.180178875344
-738.9438922405699
-705.0563894594694
-664.1809357380806
-616.0952881990099
-560.7056153665119
-498.0570484645124
-428.3403635362216
-351.89445035219745
-269.20439758637264
-180.89520255576974
-87.72128536939059
9.44785969754018
109.6454154300069
211.82783510884596
314.8976417681283
417.7277408656152
519.1865162583608
618.1629617521695
713.5911047873534
804.4730044903356
889.8996516828778
969.0691626382869
1041.3017418204993
1106.0509927368794
1162.9112806903947
1211.620993872007
1252.0617034292027
1284.2533793339621
1308.3459657132378
1324.6077466919915
1333.411036056074
1335.2158000105514
1330.5518724657045
1320.0004462111847
1304.1755197646826
1283.7059476970587
1259.2186820971672
1231.3237071208898
1200.6010630813714
1167.590238931373
1132.7820893220278
1096.6133108945753
1059.463398894197
1021.6539069882233
983.4497560244488
945.062283418227
906.6536926675454
868.3425497390248
830.2099774145566
792.3062171986597
754.6572572275537
717.2712607211322
680.1445713492413
643.2671178454796
606.6270876220474
570.2147852921044
534.0256349687412
498.0623236318248
462.33611568925755
426.8673953615308
391.68551325720387
356.8280267637529
322.33943234975
288.26949406082224
254.67127732871907
221.59899918287974
189.10580369537468
157.24156609326494
126.05082221194769
95.57091116157268
65.830405701946
36.84788659710578
8.631097784731708
-18.823497654836775
-45.53075451344758
-71.51648088691665
-96.81668624053704
-121.47646026561382
-145.54849880533192
-169.09128610343274
-192.166932555102
-214.8386577634106
-237.16790463559096
-259.2110743397263
-281.0158840997657
-302.61736950011687
-324.0335811976084
-345.261062758417
-366.27023765898707
-387.0008727087092
-407.3578180436052
-427.2072502586738
-446.3736658019047
-464.6378842717446
-481.73632095809364
-497.36177038939707
-511.1659066650625
-522.7636545816191
-531.7395215006122
-537.6559052702929
-540.0633086863583
-538.5122966323654
-532.5669303167122
-521.819309125366
-505.90475320820565
-484.5170784056276
-457.42335695347754
-424.47752872022187
-385.63223421136985
-340.94828485833597
-290.60126485032805
-234.884864310092
-174.21066815776217
-109.10426205265148
-40.197660680489186
31.78179017553713
106.02574220716447
181.661972554905
257.77376096599903
333.4208710188675
407.66142474260107
479.5739270989126
548.2786979499874
612.9580034214101
672.8742431011481
727.3856393851559
775.9589829722031
818.1791046719765
853.7548607468965
882.5215344743077
904.4396719755202
919.590486884293
928.1680842423075
930.468863717703
926.8785582257777
917.8574387204293
903.9242639861646
885.6395735110035
863.5889125746671
838.3665441297536
810.5601457301055
780.7369162980498
749.431432323523
717.1355021986262
684.2901760079354
651.2799794269073
618.4293572932005
586.0012389278271
554.1975764574997
523.1616588502804
492.98196552545187
463.69729257003155
435.30286258425116
407.75711806059735
380.9888988474241
354.90471564454396
329.39585256316064
304.34506242272874
279.63265792653766
255.14184759513122
230.7632141114786
206.39828223249063
181.96217152747215
157.3853723942967
132.61471794166636
107.61364723444082
82.36186827569811
56.854535203745044
31.10105570533346
5.123641353463918
-21.04429486737782
-47.35980167277914
-73.77203528500489
-100.2238267996987
-126.65312975070408
-152.99432708121003
-179.1793944483522
-205.13892953277048
-230.80306530167817
-256.10229056547024
-280.96820455633735
-305.3342340054521
-329.1363418214962
-352.3137559973287
-374.8097450213568
-396.5724613902847
-417.55586831302344
-437.7207572554738
-457.0358559444474
-475.47901673698567
-493.03846150534747
-509.7140398834883
-525.5184345813027
-540.4782249261871
-554.6347020552869
-568.0443188221897
-580.7786562939336
-592.9237977192904
-604.5790191956771
-615.8547318498017
-626.86964155007
-637.7471278189254
-648.6108815614028
-659.5798782759499
-670.7627971217617
-682.2520256806854
-694.1174150921381
-706.3999706137399
-719.105680297627
-732.1997017656097
-745.6011445760406
-759.1787009224679
-772.7473862194449
-786.0666501760819
-798.8401062013344
-810.7170998944459
-821.2962930537094
-830.1313775847825
-836.7389565892804
-840.6085413080914
-841.2145152210799
-838.0298134649992
-830.5409617050985
-818.2640202308212
-800.7608937418122
-777.6554031471007
-748.6484800435595
-713.5318415638461
-672.199534607269
-624.6568055768179
-571.0258554015409
-511.5481763509412
-446.58332697528124
-376.6041686308313
-302.188743504709
-224.00910539428924
-142.8175134523238
-59.430465089091115
25.288918412578173
110.44962356410711
195.15206034473263
278.5074344901171
359.6566639632938
437.7883517482231
512.1553601972815
582.0895724363032
647.0144740166359
706.4552438906629
760.0461072859522
807.5347723666747
848.7838459600238
883.7691994205184
912.5753320626403
935.3878558695
952.483302903215
964.2165374468425
971.0061368283456
973.3181838076189
971.6489840634237
966.5072788637038
958.3965597748809
947.7981054353473
935.1553482187066
920.8601402002404
905.2414233972228
888.5567216776379
870.9867671503804
852.6334590528322
833.521232295317
813.6017872853628
792.7620038438826
770.8347333938137
747.6120406787768
722.8603562916409
696.3369123120382
667.8067725067975
637.0597405534442
603.9264355088893
568.2928600132451
530.1128483599667
489.41786370577233
446.3237114207131
401.03384440105594
353.83905433610363
305.1134710875356
255.3069297957556
204.93390828360654
154.55938128058835
104.7820795296884
56.215776724947645
9.469347363708135
-34.87356814796868
-76.27440140011886
-114.25810365703313
-148.42936138213466
-178.4858425845992
-204.227888046776
-225.5642467384062
-242.51365977682323
-255.20230716097296
-263.8573321187949
-268.7968372948473
-270.41689534994265
-269.1762264353906
-265.57926317227344
-260.1583518743291
-253.45583084299537
-246.0066862658176
-238.32241755370083
-230.8766530240349
-224.09295133901267
-218.33511151099086
-213.90020066007506
-211.01439722810827
-209.83163845745113
-210.43495584891963
-212.840285164763
-217.00245264113332
-222.82296844953103
-230.15920388467467
-238.8344935988611
-248.64869136364894
-259.3887175849227
-270.838667161869
-282.78909440714
-295.0451540846927
-307.4333493265382
-319.8067126480965
-332.04832111998473
-344.07311866874016
-355.8280860967429
-367.2908616908688
-378.4669715922437
-389.38587834635103
-400.0960963384011
-410.6596524062388
-421.1461875663638
-431.6270000633648
-442.1693197475247
-452.831079734097
-463.6564156027913
-474.6720772158647
-485.88488541722586
-497.28030835792106
-508.8221744664248
-520.4534856310016
-532.0982478097987
-543.6641981836026
-555.046278526505
-566.1306838472541
-576.7993030304328
-586.9343622332278
-596.4230794139312
-605.162138574896
-613.0617973358909
-620.0494546091936
-626.0725274224674
-631.1005158807607
-635.1261715876001
-638.1657272205935
-640.2581920595085
-641.4637671032693
-641.8614804902123
-641.5461855951809
-640.6250971231823
-639.2140632801894
-637.4337843905588
-635.4061888574955
-633.2511639742365
-631.0838106206572
-629.0123477466367
-627.1367366528909
-625.5480306989724
-624.3283904527068
-623.551645548634
-623.2842379672485
-623.586348877551
-624.5129933591486
-626.1148654423417
-628.4387307529532
-631.5271951137443
-635.4177226939743
-640.1408326799028
-645.7174635881091
-652.1555551183483
-659.445957181498
-667.5578328330206
-676.433772344843
-685.9848749055459
-696.0860803644326
-706.5720466936615
-717.2338701597381
-727.8169340397844
-738.020147394763
-747.4967977151975
-755.8571903229138
-762.6731841494401
-767.4846596609475
-769.807872559875
-769.1455595914533
-764.9985737307474
-756.8787377927259
-744.3225207382989
-726.905064846038
-704.2540333048238
-676.0627169002871
-642.1018422381602
-602.2295630662805
-556.3991874655167
-504.66429306627515
-447.1810044072112
-384.20734125451077
-316.09968191382086
-243.30651161494757
-166.3597377751585
-85.86394820797078
-2.484061580384026
83.06813156696313
170.04801529750736
257.69226168605235
345.2325165864686
431.90821358515655
516.9781456963373
599.730518994191
679.4913233892305
755.6309749346253
827.5692989981465
894.7790208494533
956.7880008562996
1013.1804945004556
1063.5977363666266
1107.738145122785
1145.3574245426942
1176.2687948939688
1200.3435306733645
1217.5119055675757
1227.7645557813705
1231.1541738644662
1227.797344985655
1217.876245338484
1201.6398478162791
1179.4042342983582
1151.55160791679
1118.5276401673575
1080.8368770296233
1039.0360571420038
993.7253492473575
945.5376787306179
895.1264668596203
843.1522360507635
790.2686297538078
737.1084511763789
684.2703384828868
632.3066638946968
581.7131708554189
532.920751277304
486.2896230155825
442.1060104697877
400.581276087486
361.8533146518499
325.98991882954215
292.9937605205423
262.80860850018576
235.32641476446008
210.39494304912805
187.82567200852455
167.40176762875043
148.88597166340313
132.02828908721878
116.57337819236494
102.26755623716737
88.86533687902013
76.13541741818676
63.86603730681696
51.8696372534401
39.98676292558734
28.089179666996998
16.082194299012755
3.9062152094676286
-8.462381400988601
-21.010979857575812
-33.69093015606666
-46.41811126619076
-59.073751912809854
-71.50544462575364
-83.52834322515062
-94.92660498052388
-105.45522262377652
-114.84247567586293
-122.79328937485528
-128.9937933857712
-133.11730849137078
-134.83187022909686
-133.80925047902477
-129.73528540360525
-122.32117736844258
-111.31532128163876
-96.51512078466583
-77.77821204653742
-55.03250470958438
-28.28448036006126
2.3747441057437206
36.76598172905092
74.62143701064514
115.58718769926699
159.22866131123314
205.03893678909998
252.44957186412773
300.84354805186325
349.5698435918587
397.95909376760966
445.3397780711271
491.05438064419326
534.4749974016738
575.0179026106988
612.1566342146392
645.4332103559756
674.4671524816441
698.9620656857826
718.7096139534561
733.5908238738995
743.5747518956898
748.7146534551347
749.1418920206921
745.057915686961
736.7247015746244
724.454117978456
708.5966774802536
689.5301515166112
667.6484917355353
643.3514599343195
617.0353092719532
589.0847873784006
559.8666507920228
529.724794796545
498.97701811978794
467.9133623304128
436.7958945779547
405.85974226306496
375.31514125085613
345.350226543364
316.1342763257075
287.821116717444
260.55240462950866
234.46052874359398
209.67090230377877
186.30346426925632
164.47325564024402
144.28999417544932
125.85663179869492
109.26694208054292
94.60224737539075
81.92745498752353
71.28662833304244
62.6983703030412
56.15133747081834
51.6002289386668
48.96259545281424
48.11678857699586
48.90131700224235
51.11580207954485
54.523632886154246
58.85631864730966
63.81943067974992
69.09992504418807
74.37454740177267
79.31894918987913
83.61709561888497
86.9705268754455
89.10704636611172
89.7884504755534
88.81697631622494
86.04022071592419
81.35436975717238
74.70566755879784
66.09013912738146
55.55165977230949
43.17852935848732
29.098761055208143
13.474329838603778
-3.5053535105199853
-21.630469489314173
-40.678047518228034
-60.41919650624146
-80.62607406442439
-101.0783931342134
-121.56930375341287
-141.91052754869077
-161.93665961954176
-181.50858498787125
-200.51598408080886
-218.8789236867876
-236.54854679542424
-253.50688744005402
-269.7658461686494
-285.36536922819386
-300.37088103286476
-314.8700260174957
-328.96878349385054
-342.78702788943775
-356.4536154464323
-370.10108472276886
-383.86006113585853
-397.8534574039461
-412.1905655300678
-426.96114421627215
-442.2296187860171
-458.02952834222265
-474.3583760111347
-491.17306082906407
-508.3860906150477
-525.8627895148884
-543.4197183744958
-560.8245191441251
-577.7973747971728
-594.0142418726116
-609.1119629544962
-622.6953029437112
-634.3458789843269
-643.6328718177274
-650.1253177870854
-653.4056881531305
-653.0843699914657
-648.8145762569609
-640.3071379745328
-627.3445757714499
-609.7938176777444
-587.616930526405
-560.8792669883961
-529.754501972572
-494.5261422792698
-455.58523979395693
-413.4242127598335
-368.6268677942513
-321.85490175683873
-273.8313343776909
-225.3214702486427
-177.11210533562462
-129.9897738512666
-84.71887388424705
-42.02051398120467
-2.5528881734402145
33.1060844728146
64.47322369537714
91.17115404731477
112.93562375557178
129.61889389410842
141.18918923292426
147.72637292707694
149.41416370449818
146.52934714676312
139.4285364852574
128.5331101841202
114.31299208555926
97.26994549845031
77.92102742198199
56.782796271867966
34.35679100402753
11.116708424038674
-12.502394894193873
-36.11265561675586
-59.379599784262986
-82.02597685523172
-103.83332462437991
-124.64144160590176
-144.34600782474203
-162.89463848322802
-180.28168003609252
-196.5420686615828
-211.74456882423593
-225.98469434392018
-239.3775869796299
-252.05109204628027
-264.1392325149089
-275.77624617586264
-287.09131535881625
-298.20408402335397
-309.22102192262486
-320.23266062970134
-331.3116925844131
-342.5118935408594
-353.86780389412866
-365.39508839330983
-377.09148689825156
-388.9382683706199
-400.9021034371197
-412.93727630848264
-424.9881633315854
-436.99191090005405
-448.8812479584679
-460.58736716833306
-472.0428046320547
-483.1842433185456
-493.9551634660693
-504.3082662112229
-514.2076033335902
-523.6303536088211
-532.5681930075178
-541.0282110517159
-549.0333281006779
-556.6221674385625
-563.848332694934
-570.7790378813249
-577.4930367856643
-584.0778027970068
-590.6259217745599
-597.2306813241402
-603.9808699281948
-610.9548370298289
-618.2139083588384
-625.7952981674807
-633.7047105938806
-641.9088743639558
-650.3283049220536
-658.8306304575633
-667.2248477760029
-675.2568870472418
-682.6068597132813
-688.888341038284
-693.6499983256366
-696.3798180920829
-696.5121101182522
-693.4373728059869
-686.5149942740326
-675.0886416824321
-658.5040631474864
-636.128897712227
-607.3739648773463
-571.7153936364658
-528.7168609367066
-478.05114869546475
-419.52019971188867
-353.07285436871206
-278.8194791071589
-197.04275167313313
-108.20394419807381
-12.944141200960004
87.92005297114692
193.40661849496738
302.3841603765016
413.59379501441174
525.6765388753413
637.2055549289516
746.722268698568
852.7750081278668
953.9585190746261
1048.952545641879
1136.5576905620906
1215.7269702824615
1285.591793415286
1345.481456004687
1394.9356157776965
1433.7095535540084
1461.7723424885237
1479.2983225462538
1486.652517328326
1484.3708294617616
1473.1360046733282
1453.7504598969283
1427.1071246737501
1394.1594463937793
1355.8916611635182
1313.2903402217391
1267.3180957279492
1218.8901785455769
1168.85453377458
1117.975706623412
1066.9228200808031
1016.2616836035035
966.4509440521247
917.8420602513376
870.6827729967926
825.1236531784425
781.2272400181482
738.9792271835636
698.3011173962136
659.0637495232145
621.1011089916011
584.2238627438855
548.2321114728203
512.9269211734206
478.1202795296634
443.64321626467284
409.35192510300476
375.1318219982721
340.8995637685054
306.6031298477162
272.2201375026652
237.75461943467369
203.23254279009248
168.69638797370797
134.19913094418644
99.79798239938768
65.54823302605554
31.497538963092293
-2.3190424632559523
-35.882990645726935
-69.19500168888916
-102.27623194475218
-135.1679843275568
-167.92977641782844
-200.63578990938774
-233.36976176571872
-266.21843817077576
-299.263772571997
-332.5741081797089
-366.19464222872784
-400.13752291371577
-434.3719789162259
-468.8149244950713
-503.3225180982444
-537.6831750843025
-571.6125382117519
-604.7508849107367
-636.6633928310426
-666.8435951428961
-694.7202395912693
-719.6676271641797
-741.0193538984639
-758.0852187963484
-770.1708979969392
-776.5998263281806
-776.7365792895538
-770.0109205204169
-755.9415818841679
-734.1587839574206
-704.4244904765008
-666.6494266206951
-620.9059818580613
-567.4362636939401
-506.6547640353201
-439.1453347507873
-365.652427982765
-287.06682025988954
-204.40628701683096
-118.79190856694373
-31.420858785250992
56.46334964962974
143.6021117337977
228.75337994368175
310.7226339854386
388.39213584383094
460.74752527240463
526.9009328341812
586.1099320865304
637.7918139098749
681.5328411002859
717.0923249412228
744.4015501212002
763.5577531815788
774.8135259884085
778.5621616326052
775.3195790453374
765.7035522734444
750.4110316347669
730.1943771832514
705.8373286023776
678.1315077833285
647.8541903757093
615.7479931694413
582.5030115903347
548.741815024544
515.0075773744949
481.75549508531714
449.347530368986
418.05041540383905
388.03676405370055
359.38906169203455
332.1062422368595
306.1125149681953
281.2680711320048
257.3812798266609
234.22197198673175
211.5354082115793
189.0565291799659
166.52409616709502
143.69434410886322
120.3537905651804
96.33087030411143
71.50609684939518
45.82048863705027
19.28203713535339
-8.02996361676075
-35.96286259991339
-64.29096398050876
-92.71825189957703
-120.88352764054363
-148.36790976185316
-174.70459387775236
-199.39070913312239
-221.90104250380733
-241.70333027170454
-258.2747407896688
-271.1190980416688
-279.7843264343982
-283.879539535085
-283.0911551303078
-277.1974010429321
-266.08058519094834
-249.73654457814874
-228.28076552781158
-201.95078200472253
-171.1046057874155
-136.21511252787536
-97.86048943347951
-56.71103091304607
-13.5127366879666
30.931687686683443
75.7837148628956
120.19097846095933
163.30953999473374
204.32563897670477
242.47617441832887
277.06724220655053
307.4901487735079
333.23443229759937
353.89754604790096
369.1909929399817
378.94284248180287
383.09670375775505
381.7073612158747
374.9333955396497
363.02720530674867
346.3229146705506
325.2226972054286
300.1820665779685
271.6946825800501
240.27719933162086
206.45464448578025
170.74676671865396
133.6557255782431
95.65542437619926
57.1827047891227
18.630534304063808
-19.65676988081405
-57.38631824901824
-94.31753631595605
-130.26132923422395
-165.07773700913998
-198.67232759575347
-230.99159777018335
-262.0176641330282
-291.76252982030195
-320.26220629376803
-347.5709531544244
-373.7558731708142
-398.8920681258539
-423.05852654081474
-446.33487557884695
-468.7990825649723
-490.5261350730069
-511.5876656297777
-532.0524233035339
-551.9874345482141
-571.4596433519514
-590.5377796689045
-609.2941787369739
-627.8062643751915
-646.1574178970953
-664.4369815659237
-682.739190850164
-701.160890202486
-719.7979579784746
-738.7404419435992
-758.0664831505211
-777.835181375418
-798.078630692081
-818.7934289717543
-839.9320367476574
-861.394423829713
-883.0204914438629
-904.5837887722322
-925.7870502725007
-946.2600588688783
-965.5602861374418
-983.1766723428367
-998.536788341594
-1011.0174731532342
-1019.9588728288261
-1024.6816260057672
-1024.5067568672098
-1018.7776558526762
-1006.8833638501458
-988.2822399958218
-962.5249988604977
-929.2760587881234
-888.3321549355029
-839.6372412574351
-783.2928374299314
-719.5631696272014
-648.874702920188
-571.8099544920136
-489.0957896895619
-401.58671113002094
-310.24392723207933
-216.11120435043821
-120.28864335391906
-23.905561274355925
71.90640232172879
166.03898424548535
257.43104029892964
345.08979289495625
428.10923787325595
505.6855030119982
577.1290380586595
641.8735725304184
699.4818226362603
749.6479740768023
792.1970183741905
827.0810791778503
854.3729325896854
874.2569992816074
887.0181585338879
893.0287963240846
892.7345453986886
886.6392029878511
875.2893208720095
859.2589513147836
839.1349995526531
815.5035803975522
788.9377070986997
759.9865600547098
729.1664972273485
696.9538838092719
663.7797413920132
630.026149743478
596.0242787307541
562.0538850131777
528.3440793983583
495.0751568867396
462.38128069287234
430.3538205393574
399.0451612626164
368.47281823714894
338.62371977908435
309.458542097611
280.9160080737343
252.91708573271507
225.3690449434328
198.1693523544786
171.20940657665042
144.37813830569957
117.56552052291332
90.66604791156574
63.58224937629647
36.22829215335338
8.533720528863668
-19.55265280864887
-48.058717765469034
-76.98495300120865
-106.30031848891385
-135.93828196264408
-165.79314039747925
-195.7168282865865
-225.5164296751582
-254.9526279810277
-283.73933518184884
-311.5447388017468
-337.9939890271553
-362.67371611308045
-385.13851701207824
-404.919478416955
-421.534712448863
-434.5017748687426
-443.35171929003405
-447.64442079237585
-446.9846859398008
-441.0385617722736
-429.5491728673092
-412.3513624444199
-389.38439956678656
-360.70204627503574
-326.47935815314594
-287.01571648600486
-242.73375239042292
-194.1740124872065
-141.9854196722802
-86.91178832467514
-29.774846995856723
28.54561039864322
87.13369272489979
145.06065909084924
201.40856273273056
255.29340995022145
305.886997320957
352.4366745613812
394.2823959637736
430.8705586020469
461.7642690973606
486.64982557701575
505.33934495547095
517.7696063871141
523.9973166584158
524.1911277684906
518.6208458474412
507.6443588213979
491.69287306917164
471.2550828443703
446.8608989330094
419.065336662066
388.43311188458466
355.5244210823628
320.8822924415339
285.02179375978193
248.42127623077167
211.51572675783845
174.69220225364074
138.28723413008308
102.58602415114747
67.82320414775278
34.18489940964162
1.8118171597070383
-29.196922147252156
-58.77948046842391
-86.90676656533496
-113.57787195639978
-138.81563763825574
-162.66246816289768
-185.17647185000945
-206.42797521188683
-226.49643656198037
-245.46776706400854
-263.432055791876
-280.48168851195373
-296.70984768724344
-312.2093808907731
-327.07202117703014
-341.38793230552585
-355.2455349655086
-368.73155115492983
-381.9311860093264
-394.92835156713556
-407.8058263174865
-420.64523873973343
-433.52676302889955
-446.52842119478527
-459.72489787696696
-473.18579245026285
-486.97325699071587
-501.13899789227264
-515.7206526202422
-530.7375903264842
-546.1862247780404
-562.0349691711139
-578.2190037865985
-594.6350678194243
-611.1365246255683
-627.5289834935054
-643.5667887059219
-658.9507041604043
-673.3271231635749
-686.2891127931471
-697.3795589684355
-706.0966145607919
-711.9015719326605
-714.2291852425732
-712.5003576115411
-706.1369857396527
-694.5786244684532
-677.3005035167611
-653.8323073278743
-623.7770267283572
-586.8291180420417
-542.7911703720674
-491.588291688532
-433.2794828436126
-368.06537507725983
-296.2918551469316
-218.44928244400379
-135.167200436041
-47.20464441429589
44.56366710187212
139.16481139555265
235.5482398002815
332.6087912544208
429.2114118057868
524.216807544198
616.5072366013748
705.0116474953176
788.7293983632928
866.7518446265286
938.2811591432321
1002.6458457991386
1059.3125223382988
1107.8936789621011
1148.1512618104352
1179.996077291842
1203.4831547120243
1218.8033339434194
1226.2714611835104
1226.3116811234393
1219.4404067547905
1206.2476226220633
1187.377226675351
1163.5071351840359
1135.3298619340992
1103.5342364661658
1068.7888476211417
1031.72769176592
992.9383767402104
952.9530929135393
912.2424224917025
871.2119259404956
830.2013260461027
789.4860103800454
749.2804965195286
709.7434552740183
670.9838654808768
633.0678748601615
596.025959389189
559.8600065624616
524.5499961253131
490.060014494401
456.34341199283125
423.3469892062317
391.0141750516591
359.2872312552533
328.1085828150855
297.42142787158156
267.1698196519905
237.29843543774996
207.75225200469166
178.47633505411926
149.41592526656333
120.51696963472365
91.7272062277614
62.997865246879634
34.286001765764105
5.557429341366337
-23.209819299948315
-52.021618442003565
-80.86361395145235
-109.69701101712666
-138.45449646774543
-167.03652592514968
-195.3082158724982
-223.09707901651961
-250.19182521676734
-276.34241877138044
-301.2615386465112
-324.62753623290655
-346.0889291311034
-365.270410840462
-381.780296476389
-395.2192666299504
-405.1902192319814
-411.30899675631144
-413.2157254405173
-410.5864832437612
-403.1450002025723
-390.6740852557668
-373.02646636533
-350.13472518304235
-322.0200001193632
-288.79911612359837
-250.68977178868772
-208.01338269661065
-161.19517080371915
-110.7611367634744
-57.33167047478054
-1.6117287251881187
55.62229554028825
113.53869846001253
171.26910401333825
227.92899809991974
282.63943682155525
334.54914124667744
382.8561603263676
426.82828747038405
465.82145401230594
499.2953955401715
526.8259952894755
548.1138487583942
562.9887569854399
571.4100324818785
573.4626829675848
569.3497164399037
559.38097857746
543.9590804124131
523.5630912251421
498.7307519564003
470.0400046797676
438.09063276868017
403.4867645063157
366.82091213762465
328.66010438604343
289.5345322142929
249.92897569706852
210.2771250124616
170.95876001219403
132.29961704381287
94.57365247854308
58.00731247425477
22.785341058222194
-10.942392586574185
-43.053588876178274
-73.44626841835968
-102.03207687152059
-128.7305821246933
-153.46492014870554
-176.1590470935064
-196.73674418762855
-215.1224044584438
-231.24351311144252
-245.0346236322791
-256.44253488619756
-265.43229467727207
-271.99359605498967
-276.1470976225559
-277.9501903355403
-277.501751165519
-274.9454685317796
-270.47139597283126
-264.31548824358674
-256.7569931266785
-248.11370365291646
-238.73520793422384
-228.99439725440817
-219.27759996927188
-209.97379315995133
-201.4633994704576
-194.10719737745052
-188.23585734178334
-184.14056717336905
-182.0651346856474
-182.19986291804634
-184.67739076468817
-189.57058631228983
-196.89247762071545
-206.5981125368402
-218.58816157504816
-232.71402018030392
-248.78413082384725
-266.571231565745
-285.8202435127648
-306.25652930181025
-327.5942812887604
-349.54482583894213
-371.8246559342414
-394.16302785994344
-416.3089802188033
-438.037655214833
-459.15582136670776
-479.5065123213935
-498.9727095479824
-517.4800097739902
-534.9982326844535
-551.5419417330743
-567.1698712841472
-581.9832748429521
-596.1232277142966
-609.7669291046512
-623.1230525796065
-636.4261928332043
-649.9304553743169
-663.9022372246903
-678.6122525109674
-694.3268678895439
-711.29883087098
-729.7575014747445
-749.8987342822631
-771.874600157099
-795.7831788374738
-821.6586905424639
-849.4622651870146
-879.0736733454647
-910.2843654066087
-942.7921829326717
-976.198114533173
-1010.0054627173245
-1043.6217646987857
-1076.3637667941448
-1107.4656872149355
-1136.090913716045
-1161.3471684755732
-1182.3050320250109
-1198.0195542666283
-1207.5545019581975
-1210.0086110776565
-1204.5430435374349
-1190.4091044123072
-1166.9751699288588
-1133.7517182730555
-1090.413354245249
-1036.816781805617
-973.0138068769515
-899.2586412217321
-816.0090166242799
-723.9208929957173
-623.8368371556921
-516.7684412753305
-403.87342025463784
-286.4282554545086
-165.7974227869477
-43.40034927391507
79.32271467418082
200.9447345781038
320.0847370495061
435.4384662068299
545.8059971730729
650.1156035610817
747.4433246359227
837.027820931848
918.2802463896169
990.7890033839818
1054.3193875832294
1108.8082749717316
1154.3541526475406
1191.2029437740791
1219.7302193167275
1240.4205168588662
1253.844589199453
1260.6354724754897
1261.4642890673094
1257.016682142434
1247.970716651272
1234.9769798111836
1218.6414808502172
1199.511795476092
1178.0667354607783
1154.7096580311265
1129.7653735910278
1103.4804719961348
1076.026771677764
1047.5075028910142
1017.9657642070464
987.39473796915
955.7491161617454
922.957175982244
888.9329564886706
853.5880222855066
816.8423530120832
778.6339641192869
738.9269405554804
697.717645245984
655.0389443296467
610.9623689651905
565.598208383391
519.0936005838947
471.6287563762822
423.4115199002924
374.6705331022549
325.64733003698166
276.587735689983
227.73297903692784
179.31094678661606
131.52799899596587
84.56173914112712
38.55508174485554
-6.3881040829758815
-50.20557083570387
-92.87736247385669
-134.42453000874573
-174.9059184799831
-214.41311635605314
-253.06371265537885
-290.9930499965959
-328.3446966102911
-365.2598923645198
-401.86625786986673
-438.2660939921131
-474.52463972658603
-510.65869399420444
-546.6260360075152
-582.3160963422603
-617.5423352298658
-652.0367736124232
-685.4470925482443
-717.3366643719587
-747.1878036564356
-774.408429060454
-798.3422117087673
-818.2821554755905
-833.487412753158
-843.2029896885882
-846.6818440475232
-843.208737140115
-832.1250793826966
-812.85391461497
-784.9241263520172
-747.992925130745
-701.8656952271901
-646.5123434881461
-582.0794011705688
-508.89727680909283
-427.4822368962685
-338.53289214639284
-242.9211797522155
-141.67804487585073
-35.97422589591392
72.90327272794993
183.57828694978863
294.61533350492397
404.5512671200124
511.9278071032
615.3239927382349
713.3876653218733
804.8651372692807
888.628285580224
963.6983880303299
1029.2661006588905
1084.7070563681602
1129.5926528402963
1163.6957004968567
1186.990723724581
1199.6488538528004
1202.0274180425
1194.6545071371447
1178.2089894209653
1153.4966201091006
1121.42307287287
1082.9648806775642
1039.1394014738726
990.9749933835164
939.4825677098249
885.6295781218918
830.3173182526489
774.3621701600407
718.4812038294099
663.282295500138
609.2587239973965
556.7880272397665
506.13475909138623
457.4566805218879
410.81384788592544
366.1800223496868
323.4558135083571
282.4829819971925
243.05935533764256
204.9538526747971
167.92116169547276
131.71566081013424
96.10422961105617
60.877639401622595
25.86026229172951
-9.082117512651003
-44.03656068687389
-79.03941917442204
-114.07503919080904
-149.07672976868034
-183.92994389692555
-218.4775546311121
-252.52704251549076
-285.85934638217236
-318.2390714004267
-349.4256991534263
-379.18540467548684
-407.30305367798826
-433.5939296388425
-457.9147266443495
-480.1733423418294
-500.33701885040557
-518.4384102816282
-534.5792044075392
-548.9309921126837
-561.733160611542
-573.2876852731018
-583.9508108052431
-594.1217436924044
-604.2286183841461
-614.7121410096566
-626.0074464158984
-638.5248173002605
-652.6300001203932
-668.6249068784085
-686.7295133277262
-707.0657517093374
-729.6441486962017
-754.353877385719
-780.956779791904
-809.0857797084867
-838.247951617016
-867.8323443713854
-897.122481235045
-925.3132728122082
-951.5318929530157
-974.86199159039
-994.3704655392054
-1009.1358883392533
-1018.2776199505919
-1020.9845812260404
-1016.5426881854629
-1004.3599943059181
-983.9886794491579
-955.1431458184054
-917.713629445794
-871.774904117725
-817.5898346322222
-755.6077171715186
-686.4575159002155
-610.9362583175075
-529.992982241181
-444.70873229747076
-356.2731829034962
-265.9585193209422
-175.09124249585398
-85.02258307434633
2.901778113873755
87.37197469829358
167.14348087597446
241.06515762711587
308.1050665088875
367.37330498992816
418.14115048830666
459.8558670316423
492.1506338493121
514.8492011712893
527.9650621258849
531.6951428285621
526.4082428572564
512.6286886214896
491.01587415207274
462.34054084141934
427.4587768201438
387.2847900741645
342.76352541240703
294.84415775981614
244.45540911870108
192.48351066413795
139.75347280947645
87.01414469137835
34.92735160567007
-15.938794727701495
-65.1125027659539
-112.21708070706183
-156.96628641932517
-199.15675851181595
-238.65812466832753
-275.4014404747766
-309.36663997170814
-340.56967758547364
-369.0500106696415
-394.8590155391762
-418.049852683504
-438.66920412797145
-456.7512016183196
-472.3137508655519
-485.3573362124281
-495.8662646459551
-503.81218420525
-509.15959806823787
-511.8729987962523
-511.9251694708781
-509.30613903375223
-504.0322389179661
-496.15469077680547
-485.76716468423854
-473.0117849861014
-458.0831248994785
-441.2298161256365
-422.75350138624395
-403.0049737131357
-382.3774755765077
-361.2972701199723
-340.2117387172465
-319.5753952475501
-299.83433033083236
-281.40970155192207
-264.6809619038356
-249.9695622980988
-237.52387095812477
-227.50602203607085
-219.98133954452086
-214.910882914315
-212.14753017121035
-211.43585890716392
-212.41591147323393
-214.63074988387248
-217.5375316376201
-220.52168411273675
-222.9136334011672
-224.00746021330914
-223.08081337114922
-219.4154091323723
-212.31747819141185
-201.1375848251887
-185.28932330747665
-164.26648205058424
-137.65834412743277
-105.16285506463976
-66.59742950658448
-21.90718726778795
28.82958773754555
85.39897562766332
147.4521439511309
214.5094541670772
285.96808682122816
361.1132289924058
439.13273679585564
519.1350267194931
600.1697785578765
681.250866441062
761.3807872381607
839.5757392280211
914.890428850089
986.4416593609569
1053.4297890582654
1115.1572373611705
1171.0433539949074
1220.6351346944737
1263.6134534640494
1299.7946785871645
1329.1277410950224
1351.6869224900342
1367.660813822609
1377.3380610101271
1381.090642055495
1379.3555122458495
1372.6154978928894
1361.3803154572897
1346.1685411801893
1327.491258396373
1305.8379702814773
1281.665195106658
1255.3879739821728
1227.3743330362552
1197.942566706476
1167.3610583946613
1135.8502391868851
1103.5862111225342
1070.7055305737463
1037.3106574284263
1003.4756211966732
969.2515269639379
934.6716110596127
899.7556473851917
864.5135927494061
828.9484394080473
793.058313289108
756.8379143415036
720.2794369944481
683.3731305619007
646.1076616967906
608.4704274004662
570.4479424624129
532.0263932983997
493.19241376495415
453.9341006238427
414.24224978805313
374.11176120424875
333.54313218988415
292.54393994730407
251.13020829477045
209.3275637784732
167.17211052534185
124.71098550210942
82.00258849225898
39.116508525519144
-3.86681068057514
-46.85660904329793
-89.7524878488908
-132.4451659965208
-174.81726930333028
-216.74413300574665
-258.09462910271026
-298.7320625223012
-338.51520833562876
-377.2995820557792
-414.9390425739099
-451.2878196514807
-486.2030342507111
-519.5477414853307
-551.1944749828297
-581.0292111244626
-608.9556062993931
-634.8992962095563
-658.8119909246251
-680.6750595307271
-700.502279286248
-718.3414320406464
-734.2744703075268
-748.4160459119223
-760.9102868237732
-771.9258106626032
-781.6490665156076
-790.2761938036117
-798.0036745511444
-805.0181324785136
-811.485698522239
-817.5414154624837
-823.2791886387118
-828.7427984853483
-833.9184704468119
-838.7294506087281
-843.032965624796
-846.619857149242
-849.2170766537452
-850.4931086347739
-850.0662622833044
-847.5156392717937
-842.3944556323742
-834.2452755291181
-822.616609490385
-807.0802445524441
-787.2486138504661
-762.7914824032455
-733.4512275092404
-699.0560301619489
-659.5303712709119
-614.9023429320473
-565.3074360650654
-510.98864366961215
-452.29291284077107
-389.6641739767383
-323.6333551772991
-254.8059369753269
-183.84770430569765
-111.4694016987221
-38.410992348968925
34.57383445509765
106.73235990558615
177.32631013347265
245.64381197984844
311.0096591220949
372.79383236788925
430.4183177111347
483.3623475663189
531.1662515033303
573.43413954413
609.8356524034829
640.1070021497935
664.0514998975076
681.5397298055543
692.5094841130982
696.965525299329
694.979193031479
686.6878295998392
672.2939610704082
652.0641442506252
626.3273717075796
595.4729163573361
559.9474909744218
520.2515948724689
476.9349202413326
430.5906968623248
381.84887076788175
331.3680440385878
279.82615129202117
227.90991337618902
176.30318802462514
125.6744253927044
76.66352581237513
29.86848002407291
-14.167758614921874
-54.96967183040069
-92.14032333566887
-125.37074009732694
-154.44704737197932
-179.25493777916134
-199.78113903798123
-216.11164996560106
-228.42663791532945
-236.99202995780803
-242.14797879693975
-244.29453427670555
-243.87499293960977
-241.35752168752555
-237.2157479837524
-231.90907178102512
-225.8634821728214
-219.4536579058046
-212.98709902277204
-206.69097788169566
-200.70231073031877
-195.0619363326467
-189.71264913993915
-184.5016767096421
-179.18752080326243
-173.451005350716
-166.9101991580274
-159.138713444894
-149.68671918740046
-138.10389080592128
-123.96336554699018
-106.88571913048342
-86.56190788905059
-62.774125210464064
-35.41357008790037
-4.4942267130047915
29.83809821196146
67.30204582228549
107.48262896833837
149.83891491304482
193.71732125379094
238.3701275599317
282.9785598937747
326.6795751795746
368.5952694367943
407.86367295986275
443.66959104389474
475.27411338677894
502.0414574975626
523.4619321465375
539.1699974843677
548.9566436259375
552.7755910381507
550.7431153576008
543.1315987905134
530.3571946037814
512.9622475803261
491.5933314578885
466.9759359581354
439.8869539614807
411.1261782629474
381.4880145545864
351.7345545756923
322.57103786626334
294.62457344465594
268.42680609006476
244.4010065786237
222.8538511515818
203.97194319183734
187.82293073558552
174.36089679877932
163.43555173611702
154.80464102151086
148.148899555996
143.0888352690833
139.2026088493193
136.04428976055905
133.161807471158
130.11397676764096
126.48605185092003
121.90334989235997
116.04257671797718
108.64058346096705
99.50038212818228
88.49434798104576
75.56463501709595
60.720925847769465
44.03572749604803
25.637508065594538
5.702043243853663
-15.557596317376612
-37.901938637262234
-61.07637912696033
-84.8223134063504
-108.88764179709236
-133.03619387133267
-157.05568229999034
-180.76387401558432
-204.01276082536816
-226.69061717665036
-248.72194440658362
-270.0654126069848
-290.710016977554
-310.6697578750446
-329.97722523299353
-348.67651396599473
-366.81591631728384
-384.4408305813893
-401.5872951691564
-418.27650653365475
-434.5106141156527
-450.2700093813071
-465.51224200936616
-480.17260664472843
-494.1663513195186
-507.39236815355287
-519.7381437445782
-531.0856747489216
-541.3179950736305
-550.3259163675589
-558.014556612007
-564.3092264967192
-569.1602625231027
-572.5464410603598
-574.4766790283701
-574.9898211744768
-574.1524249095393
-572.0545752525393
-568.8038889874429
-564.5179913073098
-559.3158601813199
-553.3085236183468
-546.5896557335092
-539.2266444688363
-531.2526941154994
-522.6604792113314
-513.3977864525375
-503.36547433073116
-492.41795444220423
-480.3662633833841
-466.9836590147977
-452.01354628628934
-435.17942082404414
-416.19641852548955
-394.78398129118904
-370.6790949570189
-343.6495256756523
-313.5064751116949
-280.11609246880084
-243.4093221885262
-203.38962929347613
-160.13822736217833
-113.81653362735763
-64.66568972026819
-13.003115134363226
40.78379767603003
96.24658891747382
152.88683678994522
210.16893853664925
267.53395455672756
324.413858851642
380.24554451427355
434.48398659446167
486.61405919477386
536.1606274074984
582.6966738508964
625.8493595629061
665.3040455585867
700.80640288222
732.1628107387332
759.2392876037092
781.9592263694061
800.3002171296882
814.290241631076
824.0035106523753
829.5561881291794
831.1022023691594
828.8292839434034
822.955290767542
813.7247832434699
801.4057006469295
786.2858827167724
768.6691137262575
748.8703778381728
727.2101164812116
704.0074478603187
679.5725033551824
654.198215047091
628.1520238297722
601.6680524634797
574.9402991732611
548.1173610281179
521.2991029957157
494.53556096991593
467.8282197504928
441.13365517693904
414.3693867746165
387.42166265237154
360.15479701934515
332.4216048834951
304.0744293351621
274.9762343405542
245.01123867951597
214.09459213867063
182.18064172224243
149.26940266593812
115.41093374744752
80.70741276694174
45.312808646713954
9.430145273298256
-26.69355420078668
-62.77446631963192
-98.50105267851355
-133.54470306599458
-167.5715469284373
-200.25499510898726
-231.28853818871244
-260.3983047289619
-287.3548715029903
-311.9838194391334
-334.1745471814522
-353.88689277245646
-371.1551745203734
-386.0893446778848
-398.8730542502788
-409.75855312039
-419.058492044816
-427.13484228112765
-434.38529116603513
-441.2275938980105
-448.0824529099758
-455.35555319085245
-463.4194085554377
-472.59567861073793
-483.13860724690545
-495.22021513278474
-508.91785111922127
-524.2046683487005
-540.9435358968905
-558.884819951227
-577.6683640682459
-596.8298623121578
-615.8116516490384
-633.9777551258928
-650.6327960151443
-665.0441920380475
-676.4668457985742
-684.1693867007499
-687.4609009491579
-685.7170188464848
-678.4042214886213
-665.1012874948208
-645.516922876706
-619.5027955518502
-587.0614191919076
-548.3485863093952
-503.67032320754527
-453.4746128391121
-398.3383867491096
-338.95050447343414
-276.091600914045
-210.611778341548
-143.40714679798435
-75.39617880993109
-7.496750777789803
59.39539161950496
124.4261644667592
186.80025430460947
245.7955343394277
300.7746477892975
351.1937275326761
396.60831016221323
436.6765699120853
471.1600438637407
499.9220473647626
522.923993770346
540.2198424268829
551.9489081559731
558.32727626293
559.6380798343403
556.2209105721514
548.4606484183482
536.7760051205507
521.6080797190724
503.40921782204333
482.6324502848373
459.7217605426664
435.10339443866917
409.178383022994
382.3163986480793
354.85100992701547
327.0763448941755
299.2451177201722
271.567927130426
244.21369910598673
217.31112525675522
190.95094044710487
165.188885589718
140.0492110185194
115.52859004731056
91.60032829351331
68.21876916338825
45.323808183962136
22.845438850632767
0.7082605548712644
-21.164115668444992
-42.84482621528522
-64.39974338702689
-85.88376214011136
-107.33745921027355
-128.7842042873047
-150.22780829810148
-171.6507974973703
-193.01340282627547
-214.2533519864277
-235.28654543963967
-256.0086823277186
-276.2978737209134
-296.0182388694785
-315.02442963030643
-333.16697482483664
-350.2982855382353
-366.27911839360814
-380.98525913068266
-394.3141654300328
-406.19129735451344
-416.5758657835033
-425.46574199643305
-432.90129278426474
-438.9679326969467
-443.7972165106488
-447.5663306123555
-450.49588310538365
-452.8459407286272
-454.9103169355871
-457.0091784484819
-459.4801039499575
-462.66779443994824
-466.91269725833354
-472.5388623236934
-479.84139602812024
-489.0739111269744
-500.4363881973708
-514.0638679829
-530.0163868247831
-548.2705497968227
-568.7131077326785
-591.1368649692869
-615.2391932421787
-640.6233621460956
-666.802818313614
-693.2084571156964
-719.1988365643643
-744.0731867796464
-767.0869716150895
-787.4696621437216
-804.444286073933
-817.2482278160519
-825.1546786147383
-827.4940814711911
-823.674884449847
-813.2029086081287
-795.6986529630528
-770.9118995883038
-738.7330493574235
-699.2007147631095
-652.5052194818196
-598.9878000096845
-539.1354655796255
-473.5716406070214
-403.042880247399
-328.4021046500803
-250.5889309293541
-170.60778356206316
-89.50452608338888
-8.342377264366062
71.82214282711638
149.96253994631715
225.10431983680468
296.34506741988463
362.8721766116939
423.9778600870885
479.0711467094859
527.6866507511863
569.4899752829524
604.2796943687081
631.9859451624538
652.6657499902694
666.4952770952713
673.7593337499493
674.8384638709584
670.1940911084824
660.3522044517326
645.8861233017143
627.3988995479506
605.5059134357437
580.8181977749887
553.9269834038657
525.3899022386305
495.7192179725542
465.37238141895773
434.7451276286802
404.1672458764398
373.90106481167976
344.14260757730733
315.0252880402685
286.62594081425857
258.97290532309273
232.05581856265226
205.8367145262551
180.2619833918063
155.2747120975309
130.82690962192842
106.89111434953615
83.47088700075939
60.609712465663335
38.39787194612852
16.976906720669845
-3.4586243412495743
-22.662294161730934
-40.3399554485268
-56.156862161659554
-69.74761799416633
-80.72868279928335
-88.71304625344435
-93.32655931703331
-94.2253024136801
-91.11327253570268
-83.75959894294908
-72.01445594765228
-55.82283633249831
-35.23538521688946
-10.415577257012297
18.357346485996995
50.690081542394424
86.08176930108608
123.93520286912019
163.5723202781346
204.25329185378752
245.19828807657106
285.61088875312095
324.7020634225278
361.71369327287226
395.94069050823975
426.7508851369502
453.60198303920333
476.05504874331393
493.7841285181189
506.58179969888124
514.3606037622277
517.1504854251413
515.0925104611848
508.4292655757348
497.49245128885184
482.68826103525913
464.48119453265485
443.3769795772613
419.9052738946604
394.6027888672675
367.9974216650504
340.59390347319885
312.8613726923016
285.22316956628623
258.0490307692303
231.64974709915515
206.27424179611205
182.1089366447408
159.27920081275903
137.8526237588453
117.84381754926716
99.22043387440434
81.9100748165284
65.80778153025781
50.783798804362725
36.69133333500963
23.374047453123232
10.67305756783001
-1.5667614203766211
-13.491327658633926
-25.23288112701866
-36.90656795546663
-48.608114437005774
-60.412580962437886
-72.3741434034301
-84.52680941888585
-96.88594265217897
-109.45044230215596
-122.20541063261032
-135.12513500765562
-148.17621063123735
-161.32063335577922
-174.51869989467158
-187.73156828323977
-200.92335628248165
-214.06268974796222
-227.12365550352447
-240.08616096010948
-252.93575097097806
-265.6629760043878
-278.26243956175387
-290.73167245810646
-303.06998510939763
-315.2774379467099
-327.3540480210596
-339.29931971253166
-351.1121514860471
-362.79113210885714
-374.3352033255973
-385.74463562356783
-397.02224020385034
-408.174721792604
-419.2140625056861
-430.1588185350167
-441.0352116884987
-451.87790687909217
-462.73038139737736
-473.6448082936199
-484.6813919260609
-495.90710784747876
-507.39381205034584
-519.2156974744082
-531.446089911896
-544.1535914134564
-557.3975978487654
-571.2232415607998
-585.6558433996938
-600.695000160914
-616.3084787276186
-632.4261313649347
-648.9340833713695
-665.6694720573092
-682.4160333295841
-698.900837949915
-714.7924735643762
-729.700952000929
-743.1795945228021
-754.7291082427201
-763.8040114721916
-769.8214937669923
-772.172709047349
-770.2363973806481
-763.3946122958923
-751.0501992460042
-732.64553639625
-707.6819240992513
-675.7389070994179
-636.4927450510912
-589.7332211329178
-535.3780003695138
-473.48381965481144
-404.25390785442085
-328.04119015463937
-245.3470147305689
-156.81533828460618
-63.22250790792332
34.537031191500475
135.46860222398266
238.49810226685642
342.4950187555377
446.29687992901773
548.7343507194815
648.6562050253901
744.9534504087447
836.5819483899744
922.5829590144585
1002.1011368238344
1074.3996082778058
1138.8718580960103
1195.050238055969
1242.6109881884247
1281.3757334257086
1311.3094947391928
1332.515336764428
1345.2258653764243
1349.7918856789602
1346.6686253728278
1336.4000105865196
1319.6015434102328
1296.9423684471087
1269.1271275438417
1236.8781862928856
1200.9187736108165
1161.9575106405525
1120.6747236912242
1077.710843319078
1033.6570905338951
989.0485436121212
944.3595707717509
900.0015142443076
856.3224287675272
813.6086168274513
772.0876639900429
731.9326573214048
693.2672648991331
656.1713622903394
620.6869101620216
586.8238137658492
554.5655292207076
523.8742228102168
494.6953353765297
466.96145070120275
440.59541267998827
415.512680905672
391.6229568708572
368.8311514780558
347.03779830317313
326.1390467171073
306.02639443963386
286.58633886969966
267.7001380106611
249.24387174447622
231.08898039867012
213.1034312515227
195.15362894329982
177.10714558832143
158.8363004437017
140.22256686727613
121.16172848588653
101.56965136134485
81.38848810592573
60.59308545142148
39.19732949447874
17.26013207157658
-5.109263406332238
-27.746995635059232
-50.43166094934875
-72.88307663234042
-94.7630203905022
-115.67817734553765
-135.18545009704624
-152.7996928271809
-168.00382039701978
-180.26112624379746
-189.0295277577326
-193.7773503875726
-194.00016534177897
-189.2381147428093
-179.09309819583765
-163.2451607957792
-141.4674168212417
-113.63886598769162
-79.75451001302336
-39.932256295248315
5.58379750311413
56.42396968295091
112.09760315191846
172.0016080428701
235.43268170421695
301.6027709632811
369.65719205281664
438.69471691031197
507.7888747660433
576.0097005403057
642.4451780752024
706.2216683185895
766.5226746607087
822.6053775774294
873.8144681803138
919.592922863678
959.4894825087703
993.1627218637566
1020.3817142519026
1041.023416121007
1055.067018115435
1062.5856308674033
1063.7357841516389
1058.745306080526
1047.90020760363
1031.5312237673886
1010.0006551074746
983.6901083117251
952.9896548110539
918.2888130397105
879.9696226841996
838.4019280865097
793.9408355725989
746.9261685756187
697.6836252453544
646.5272517861088
593.762784196203
539.6913835254927
484.61329557884386
428.83100205368237
372.65149011124714
316.3873434862602
260.35644241994663
204.88014613790529
150.27991954858996
96.87245917850515
44.963476944040735
-5.15958196652514
-53.23547857643068
-99.03723431314215
-142.37965635602487
-183.12566777819927
-221.19085415444664
-256.545800529674
-289.2159977717385
-319.2793055566653
-346.86114559553255
-372.1277518749262
-395.2779204202535
-416.53377752321506
-436.13112207311104
-454.3098966395565
-471.3053078195588
-487.3400544196397
-502.6180368752686
-517.3198174970881
-531.5999848523929
-545.5864543938059
-559.3816191572432
-573.0651565309563
-586.6982060763406
-600.3285627346526
-613.9964800709716
-627.7406489501986
-641.6039087826861
-655.6382629695139
-669.9088081412767
-684.496245931436
-699.4977213256482
-715.0258175121656
-731.2056294350406
-748.1699341795303
-766.0525736549898
-784.9802614397435
-805.0631184422845
-826.3843276681554
-848.989371697779
-872.8753713514546
-897.9810759755468
-924.1780637228254
-951.2636948774974
-978.9563229248199
-1006.893206091974
-1034.631476527677
-1061.652417152199
-1087.3691711541926
-1111.1378697046869
-1132.2720127516307
-1150.0597801159008
-1163.7837927007051
-1172.7426961591784
-1176.273812657259
-1173.7760101089427
-1164.731879672745
-1148.7282969895182
-1125.474475087849
-1094.8166985575897
-1056.7490561805578
-1011.419655497219
-959.1319989239936
-900.3414170711613
-835.6466783270815
-765.7771087640667
-691.5757460843126
-613.9792020620142
-533.9950127772003
-452.6773137031657
-371.1016887348071
-290.3400113534446
-211.4360288551538
-135.3823491376547
-63.09938992894646
4.583243805898284
66.94257185351341
123.3749332720565
173.4053306401129
216.69326839892224
253.03501204098936
282.362283254227
304.7375003641713
320.3457720956608
329.48395218089314
332.547156938756
330.0132310396972
322.425712429097
310.37589186740405
294.4845832287993
275.38421533553856
253.70182332573043
230.04345872981156
204.98045702097764
179.03790544695747
152.68554888709275
126.33126391082664
100.31712705600492
74.91800670036645
50.34252173616556
26.7361374666895
4.1861111882647055
-17.27204438577686
-37.646944010409634
-56.98294314701822
-75.35137151595873
-92.84176848245248
-109.5534802776375
-125.58794646920649
-141.04196099534718
-156.00214157319476
-170.5407794497287
-184.71316970181005
-198.55644420483307
-212.08985083754513
-225.3163498745714
-238.2253375263387
-250.79626040267354
-263.0028529381213
-274.8177103536429
-286.2169011211913
-297.1843250852271
-307.71553689628536
-317.8207796338478
-327.52701004166437
-336.8787426693273
-345.93759230687397
-354.78045020787494
-363.4962890575301
-372.181653566423
-380.93495592842163
-389.84975657893716
-399.007270746047
-408.46840003448534
-418.26564236255643
-428.39527634400025
-438.8102410432138
-449.4141350681959
-460.0567394367639
-470.5314284029415
-480.5747747165156
-489.8685828154788
-498.04449541861896
-504.6912165741097
-509.3642807291095
-511.59817742420927
-510.92051925219204
-506.8678221129897
-499.002358575232
-486.929454930022
-470.31453747661953
-448.8992001145353
-422.5155683425064
-391.0982769799497
-354.69346066538657
-313.46427516192546
-267.6926180975718
-217.77689056778462
-164.22582314857848
-107.64856646484147
-48.74140383188545
11.728426878294725
72.94121495505868
134.04490305012123
194.17615446752293
252.48164239603645
308.1388550071892
360.37575056806884
408.48866052463285
451.85792098818894
489.9608088729075
522.38146388103
548.817589383597
569.0838414830181
583.1119302579007
590.9475626482352
592.7444481502373
588.7556666864765
579.3227645453819
564.8630001763669
545.8552066501115
522.824769619419
496.32823506010885
466.93805741621384
435.2279754838808
401.7594599505713
367.06961227159735
331.6608116090594
295.9923112995321
260.4738873994702
225.46154763245312
191.25522624029742
158.0983223197559
126.17888607988604
95.63221799741584
66.54462069036549
38.95803389707647
12.875288813038281
-11.734263978918932
-34.92897289959537
-56.78913933891294
-77.41146255666212
-96.90379532997498
-115.38029535865019
-132.9570262441739
-149.74803709774977
-165.86193398425314
-181.39895071118164
-196.44852932660064
-211.0874269978747
-225.37836950475491
-239.36926921916773
-253.09301804585425
-266.56785499341277
-279.7982937045187
-292.77657735153474
-305.4846092492707
-317.8962911486441
-329.98018961424896
-341.7024433050409
-353.0298177902214
-363.9328079846591
-374.3886813916356
-384.3843487461853
-393.91894307839823
-403.0059846939653
-411.675009237504
-419.9725404921917
-427.962301360874
-435.7245770404888
-443.3546723195754
-450.9604371612711
-458.6588690672585
-466.5718362815354
-474.8210022024608
-483.5220672837284
-492.7784779626008
-502.6747803194289
-513.2698183680744
-524.5899942604972
-536.6228222084219
-549.3110205039159
-562.5473953391546
-576.1707731529935
-589.9632320462574
-603.6488656300534
-616.8942836435615
-629.3110125189596
-640.4599060723556
-649.8576126248817
-656.9850718351829
-661.2979349197076
-662.2387192095171
-659.2504265223504
-651.791279917559
-639.3501712364477
-621.4623690731363
-597.7250183471147
-567.8119664519976
-531.4874648350248
-488.61830311875065
-439.18393075074846
-383.28412136102764
-321.1437582322935
-253.11438032434157
-179.67223061668182
-101.41268634502893
-19.041111670455987
66.63965914622833
154.74484331927727
244.3257398285723
334.3896757420156
423.9212173697372
511.90397290564374
597.3423211163541
679.2824296992444
756.8319697163325
829.1779862899542
895.6024518246414
955.4951082036155
1008.3632981020983
1053.8385894992964
1091.6801072738067
1121.7745971497031
1144.1333558530364
1158.8862617944924
1166.273226589184
1166.6334535605542
1160.3929320621892
1148.0506169786092
1130.1637457664858
1107.3327362832745
1080.1860898519117
1049.3656946954277
1015.5128843764527
979.2555557826644
941.1965943680758
901.9037939084886
861.9013970112127
821.6633230181448
781.6080925040416
742.0954038906195
703.4242716420587
665.8326015128014
629.4980588738896
594.5400811948072
561.0228930277459
528.9593967939118
498.3158295265816
469.01709025003834
440.95265383584194
413.982995510235
387.9464553188465
362.66647204073394
337.9591091447185
313.6407802435401
289.53605964738813
265.4854396879834
241.35287558059494
217.03294286596036
192.45742104494744
167.60110850372953
142.48666794998672
117.18829946954313
91.83404275074923
66.6065246110127
41.74199453796815
17.527528502387028
-5.703671621432224
-27.57889896795271
-47.694432855958574
-65.62577775468864
-80.93945234090458
-93.20605473045812
-102.01425387593189
-106.98528395106024
-107.78745331510444
-104.15012862399446
-95.87662406066558
-82.85542052281039
-65.0691634820324
-42.60094392790919
-15.637456119134878
15.531252802351679
50.5155798381233
88.83368806712166
129.9221702539901
173.14971895436653
217.83333310566104
263.256477772247
308.68852513775397
353.40474502362616
396.70608600657
437.93799480455596
476.5075603104907
511.8983365006225
543.6822923298322
571.5284539309172
595.2079421914221
614.5952626300075
629.6658673505966
640.490171957988
647.2243647041672
650.0984827664871
649.4023456447109
645.4700249694578
638.663590476959
629.3568981172078
617.9201721438236
604.7060759955397
590.0378691993382
574.2001152895609
557.4322471012999
539.9251212300475
521.820515342248
503.213353890872
484.15630257075674
464.6662595128383
444.7321976921627
424.32378109875117
403.40018725604523
381.91861730583116
359.8420534225733
337.1459193975167
313.82340215394265
289.8892911199909
265.3822825324924
240.36577238207855
214.92722270075842
189.17623169015826
163.24147150747694
137.26668208535241
111.40592732353547
85.81833086387577
60.66251161581541
36.09093513284364
12.244387233907132
-10.753238618791324
-32.79966815816292
-53.81833764353437
-73.76172282074033
-92.61380085497976
-110.3915626155766
-127.14551529189603
-142.95913771507148
-157.94727131644325
-172.25344780218515
-186.04617131382258
-199.514189638627
-212.86080730248847
-226.29731401231206
-240.0356253676157
-254.28025915677358
-269.2197996960677
-285.0180339798528
-301.8049758957633
-319.6680270356307
-338.64355297222664
-358.7091802712401
-379.777139779765
-401.6889936141737
-424.2120845486387
-447.0380350430137
-469.78359647271253
-491.99410383321054
-513.1497237649858
-532.6745931913447
-549.948835311484
-564.3233147889815
-575.1368605170672
-581.7355478769664
-583.4934990688029
-579.8345370860678
-570.2539244839776
-554.3393413211726
-531.7902166425497
-502.4345325247991
-466.24227468252593
-423.3348115158634
-373.98964240128413
-318.6401582004244
-257.8702883954288
-192.40415123366714
-123.09105554168259
-50.88640701833591
23.170766905706103
97.98285037654468
172.42035132486282
245.3494028742797
315.659186780677
382.2884553280531
444.25038572163635
500.65507115424265
550.7290372734045
593.8312737275652
629.465387384227
657.2876134935442
677.1105585692532
688.9026880822126
692.7837070503549
689.0161074895183
677.9932699771106
660.2246030936558
636.3182798313712
606.9621828299817
572.9037023202467
534.9290424049044
493.8426793794891
450.4475761674326
405.52668996676846
359.8262220106719
314.0409579488415
268.8019427212969
224.66663081553978
182.11155699702817
141.5274890969975
103.21695586171192
67.39398956800169
34.18588531354446
3.6367567753781014
-24.287339627885014
-49.69193723462593
-72.74656391799041
-93.67622297639538
-112.75214237376481
-130.2819737965266
-146.59961272675056
-162.05480043007424
-177.00265813577533
-191.79329396464354
-206.76161735477595
-222.2174960721252
-238.4363964213128
-255.65065506052753
-274.0415389321996
-293.73225870199497
-314.782112283395
-337.1819481089844
-360.8511488460031
-385.63633950834156
-411.31201468953134
-437.5832556318809
-464.0906694844507
-490.41763306484955
-516.0998647694173
-540.6372822027454
-563.5080283273717
-584.1844628428449
-602.1508163440052
-616.922092897409
-628.0636833754893
-635.2110180122927
-638.0884428839473
-636.5263582506333
-630.4755345922397
-620.0174818666211
-605.369852509654
-586.8861310472562
-565.0492605099996
-540.4592988100381
-513.815614853645
-485.89448023353617
-457.523168077637
-429.5518323115575
-402.8245141808188
-378.1506177269504
-356.2781209035217
-337.86965329674985
-323.4823861596476
-313.5524584685276
-308.3844169451104
-308.14589131692713
-312.8674720149222
-322.44752024207924
-336.6614331720166
-355.1747200965517
-377.5591243016467
-403.3109515917081
-431.8707382447161
-462.64340633984665
-495.0181094579432
-528.387061155766
-562.1627541920482
-595.7931105167272
-628.7742410128295
-660.6606314612268
-691.0726996211675
-719.7017810668303
-746.3126930417994
-770.7440919372493
-792.906879438402
-812.7809274762199
-830.4103887213009
-845.8978429761205
-859.3975032568496
-871.1076701120579
-881.2625819514138
-890.1237688916603
-897.970985300803
-905.0927773644959
-911.7767382314236
-918.2995136310926
-924.9166437180397
-931.8523599321467
-939.2894950364334
-947.3597059223973
-956.1342490828116
-965.6155858663242
-975.7301270506315
-986.322451578439
-997.151349231373
-1007.8880383380898
-1018.1168953255664
-1027.3390015323316
-1034.9787618066207
-1040.393776463899
-1042.8880520452324
-1041.72851711519
-1036.1646682269418
-1025.4510118419144
-1008.8717972319923
-985.7673615348444
-955.5612401251984
-917.7870442169261
-872.1139869147848
-818.3698639068168
-756.5602794176785
-686.8829624972446
-609.7361486233527
-525.7202051106328
-435.63194702188355
-340.4514092725947
-241.32119199323603
-139.5188565782627
-36.42319272150904
66.52452335624169
167.86292201652498
266.1550618080731
360.0334605934487
448.24398106192467
529.68693313001
603.4538290051313
668.8583604638441
725.4603620183576
773.0817705917751
811.8138800966836
842.0155047459123
864.301995097604
879.5253829480536
888.7462527578251
893.1982372437781
894.2463038035633
893.3402292917187
891.9648493673153
891.5888143535584
893.6136846222621
899.3252479785832
909.8489274631014
926.1110583686683
948.8076402387615
978.3819113699749
1015.011755235936
1058.6075428722024
1108.8205605072415
1165.0616893015233
1226.5295200061041
1292.2466297176168
1361.1023515311995
1431.900057804778
1503.4067733127679
1574.4028463724835
1643.7294370369837
1710.3317273594232
1773.2960080057205
1831.879131356961
1885.5292226000117
1933.896979785501
1976.8373394968319
2014.401708359577
2046.8213445868166
2074.4828103865875
2097.8967010927504
2117.6610847351067
2134.42125048966
2148.827463614221
2161.49246044675
2172.9503949763803
2183.618874114845
2193.76559750329
2203.4809544421855
2212.6577299074197
2220.9788379578044
2227.9137384708106
2232.7239066284274
2234.4774190160974
2232.0724015475053
2224.2687597956046
2209.7272902395866
2187.0549616375097
2154.854871240616
2111.7791348150986
2056.5827782417887
1988.1765791420505
1905.6767766203839
1808.4496384653107
1696.1490510203994
1568.74556883172
1426.5457117459498
1270.2007042785276
1100.7042903695447
919.3796978301243
727.8562436449239
528.0364444103251
322.05481686135255
112.22981869377921
-98.98941542394148
-309.07975257959674
-515.5023067539789
-715.7604220636724
-907.4556595693983
-1088.3402110703519
-1256.364371460951
-1409.7179435194869
-1546.8647112054912
-1666.5693885004546
-1767.9167198731263
-1850.3226641344438
-1913.5378264276762
-1957.6435075983945
-1983.0409100258307
-1990.4341645853372
-1980.8079158275668
-1955.4002208039765
-1915.6714922290807
-1863.270170155417
-1799.9957640314747
-1727.7598910919944
-1648.545956678409
-1564.3681693339456
-1477.2306387961821
-1389.0873478282356
-1301.8038048272342
-1217.1211672381062
-1136.6235780195116
-1061.7093860391337
-993.5668343337999
-933.1547038082921
-881.1882978812256
-838.1310470488246
-804.1919010333185
-779.3285598619664
-763.2564741616752
-755.46341943713
-755.2293191617746
-761.6508573572695
-773.6702844026046
-790.1076840983876
-809.6958425178916
-831.1167490012064
-853.0386767616018
-874.1527444145722
-893.2078574531704
-909.0429744731232
-920.6157386483753
-927.0266599625235
-927.5382238371714
-921.5885285210211
-908.7993041838945
-888.9784248306643
-862.1172703432846
-828.3835083509468
-788.1100236046107
-741.7808107918885
-690.0146581766439
-633.547387436051
-573.2132939171889
-509.92627342459497
-444.6609512707101
-378.43396912008524
-312.2854528235995
-247.26059312492592
-184.3912305438951
-124.67735127316062
-69.0684710448347
-18.444998919555452
26.400183796014627
64.77954317873686
96.12758566698781
120.01578877403549
136.1650634526982
144.45502025843882
144.9293456768191
137.796689257312
123.42661466610076
102.34036960016792
75.19646614162895
42.77131722334957
5.935429729089227
-34.374103236775035
-77.18384960016513
-121.51587725661383
-166.41989207316607
-211.0042897505106
-254.46470662610727
-296.108696710282
-335.37528292338465
-371.8483349259412
-405.2630197286763
-435.5049579510551
-462.60218929347616
-486.71056611997705
-508.09367390135037
-527.098725691689
-544.1300362931877
-559.6216584178067
-574.0106102189138
-587.7118978691985
-601.0962814104357
-614.471476774756
-628.0672515499547
-642.0246674214053
-656.3895513661156
-671.1101392039204
-686.0387250289173
-700.9370618565322
-715.485184768806
-729.2932618481507
-741.9160175665603
-752.8692179995252
-761.6476585330023
-767.7440546399017
-770.6682074147928
-769.9658005124843
-765.2361858331869
-756.1485333478939
-742.4557590032531
-724.0057081950795
-700.7491631918178
-672.7443585914439
-640.1578234994369
-603.2615162903487
-562.4263711900446
-518.112527467689
-470.85665192171604
-421.2568839725508
-369.95602254786684
-317.62363005938647
-264.93774836377366
-212.56690474876754
-161.15303685693328
-111.29589222160837
-63.53937015917057
-18.360178135072687
23.8409255375735
62.745135043721035
98.1187859441543
129.81377578332007
157.7653641032637
181.98759083209242
202.5666285417558
219.65244220381484
233.44916833539963
244.2046444057621
252.19952038918458
257.73636883642666
261.12917921284406
262.69357770665187
262.738056812297
261.5564326455102
259.4216762131107
256.5811919963337
253.25354703727663
249.6265894980052
245.8568400629167
242.0699946743282
238.36234447302428
234.802899483664
231.43599708498851
228.284184637456
225.35118674740167
222.62479867892893
220.07958428688698
217.67929622470336
215.37897631619228
213.12673300720715
210.86522745594604
208.53292614281594
206.06519306161164
203.3952983072548
200.45541446293876
197.1776610294872
193.49524294254408
189.3437127045514
184.6623660984883
179.3957588631287
173.49530809113602
166.92092027051902
159.64256980293655
151.64173879464454
142.91262214231284
133.46300188163872
123.31470091813524
112.50353835652231
101.0787273571802
89.10168272816063
76.64423944723907
63.7863232087872
50.61315565383141
37.21211430306224
23.669395120443365
10.066642015879241
-3.522285744257433
-17.034236927416355
-30.419215521926443
-43.64219492220249
-56.68416139212768
-69.54227854441038
-82.22910276588391
-94.77082320089085
-107.20454659451055
-119.57469563631045
-131.9286379283052
-144.31170846616052
-156.76182775101063
-169.30394748806762
-181.94457518846556
-194.6666374239513
-207.42493863357518
-220.1424582380512
-232.70770352497425
-244.97330023219442
-256.75595981666817
-267.8379159307651
-277.96987506091085
-286.87547736298797
-294.25721184797027
-299.8036748545043
-303.198003909298
-304.12726287284977
-302.2925006168978
-297.4191569240104
-289.26744928306874
-277.6423462263934
-262.40272031977156
-243.46928077780686
-220.83091444258355
-194.54911382598118
-164.76023955339753
-131.67544937886916
-95.5782235702119
-56.81952145420122
-15.810710005634993
26.98549336914313
71.06573177004384
115.89797056466173
160.93426221285674
205.62384977554817
249.42615348367445
291.8232139913897
332.3312115837802
370.51073870273683
405.97556814268705
438.3997248708574
467.5227315164925
493.1529552762079
515.16903793367
533.5194413599096
548.2201887105035
559.3509273125194
567.0494832471792
571.5051192846281
572.9507458333903
571.6543668687009
567.9100662611432
562.0288512980907
554.3296681463236
545.130889540074
534.7425494220568
523.4595627492836
511.55612103328764
499.2813965425281
486.8566234414886
474.4735571957101
462.2942497295438
450.45202107409386
439.0534604819106
428.1812526277084
417.89759943748777
408.24799663272125
399.2651261665847
390.97263980565083
383.38863230321647
376.52863183610765
370.4079689907739
365.04342327235236
360.45408680821896
356.66142573161324
353.68855783998197
351.55880030043267
350.29357500649667
349.9097921616339
350.4168635449666
351.8135239586684
354.084660596725
357.19836347969493
361.1034139586691
365.72742103227733
370.97579602820133
376.7317261948403
382.8572692072666
389.1956450242678
395.5747492462274
401.81185316515337
407.7193910344636
413.11166764498904
417.81225394969084
421.6617804112044
424.5257908907823
426.3022873424529
426.9285807537518
426.38707007134735
424.70959997223247
421.98009962510486
418.33527534125534
413.96321568648517
409.0998621694645
404.0233957098493
399.04668332514774
394.5080167718002
390.7604525209214
388.1601289034857
387.053989717109
387.7673808670336
390.59200480884084
395.774716007259
403.5076197986307
413.9198964305067
427.0717107859507
442.9504878743103
461.46973919180175
482.47052090843476
505.7254960250376
530.9454637664705
557.7881156762702
585.8686834657681
614.7720617004322
644.065921606443
673.3142834673781
702.0909871794364
729.992496291207
756.6494913964746
781.7367531013994
804.9809023833776
826.1656586902174
845.1343952546225
861.7899150580871
876.0915333767446
888.0497231988004
897.7187440600495
905.1878184286799
910.5715288309743
914.0001690572111
915.6107793197539
915.5395159803546
913.9158444617325
910.8588039596104
906.4753064151046
900.8601669058863
894.0973939239695
886.2622309406885
877.4235087059598
867.6459817008729
856.9924319491324
845.5254058316314
833.3085031906268
820.4071718727508
806.8889859808047
792.8234099904246
778.2810752991913
763.3326189964396
748.04715517568
732.4904668216847
716.7230210653678
700.7979207801536
684.7589084027503
668.6385323439546
652.4565744440214
636.218822242281
619.9162550423184
603.5246989933801
587.0049940680367
570.3037051359555
553.3544004187855
536.0795128539772
518.3927911686058
500.20233478394863
481.41418880763223
461.9364540072925
441.68384390432135
420.58259739878616
398.5756311498594
375.62779375023837
351.7310660120928
326.9095383456939
301.22398516845936
274.77584543163357
247.71040699774818
220.21898234992807
192.53985782409376
164.95780294591634
137.80194426224602
111.44184151051336
86.28165522365569
62.75236627287093
41.302099143998646
22.384707283129625
6.446892857627841
-6.085755206785243
-14.823323326241091
-19.42617955442829
-19.619022775416315
-15.203760063854206
-6.070618009855732
7.793051101637285
26.29672020812604
49.24373407867818
76.33165818822788
107.15599353444676
141.21717546248868
177.93063431023435
216.63956757338855
256.6299629554422
297.1473245158593
337.4144951965677
376.6499418580452
414.0858742624315
448.9856046076234
480.65961491916505
508.47988098017726
531.8920974130418
550.425551509391
563.7004964417803
571.432972684466
573.4371165442221
569.6250737999162
560.0047015827577
544.675290276778
523.8215690326492
497.7062760544638
466.6615821342477
431.07965658061255
391.40266131355605
348.1124522444532
301.7202548236622
252.75655836356805
201.76143850724227
149.2754702397198
95.8313395753578
41.94620577741715
-11.885187556286049
-65.19670052493386
-117.55636581399143
-168.57143475032402
-217.89298667363624
-265.22015178605994
-310.30394034510397
-352.950601983899
-393.0243709835737
-430.44939945299325
-465.2106504082845
-497.3535228911773
-526.9820146106366
-554.2552928001788
-579.3826337265796
-602.616793180449
-624.2459699012649
-644.5846086235581
-663.9633520227917
-682.7184898038673
-701.1812699781001
-719.6674347348795
-738.4673254630959
-757.8368732852534
-777.9897570140015
-799.0909732070157
-821.2520255138373
-844.5279016609205
-868.9159606318477
-894.3567942164029
-920.7370553891885
-947.8941656232788
-975.6227315181102
-1003.6824247617029
-1031.8070134207023
-1059.714181070917
-1087.1157372040514
-1113.7278099744726
-1139.280621311785
-1163.5274738240064
-1186.2526248366416
-1207.2777789984473
-1226.4669926244803
-1243.7298500721881
-1259.022846419999
-1272.3489908167517
-1283.7557262495257
-1293.3313361471128
-1301.200068384146
-1307.5162484566667
-1312.4576755040398
-1316.2185996101043
-1319.0025694097237
-1321.0154184802093
-1322.4586301752147
-1323.5232860928802
-1324.3847656013497
-1325.198324785255
-1326.0956444875487
-1327.1824001072878
-1328.5368714345036
-1330.2095796939334
-1332.2239114768372
-1334.5776654650601
-1337.2454376973567
-1340.181744353536
-1343.3247673047263
-1346.600596626177
-1349.9278355294075
-1353.2224264309975
-1356.4025519093511
-1359.3934609928388
-1362.1320695841036
-1364.5711839987919
-1366.6831988508231
-1368.4631252276681
-1369.9308127271688
-1371.1322399778637
-1372.1397632464611
-1373.0512321124736
-1373.9879053267382
-1375.0911290822332
-1376.5177740242423
-1378.434466174729
-1381.0106900153485
-1384.410888418278
-1388.7857327514935
-1394.262785795456
-1400.9368282505043
-1408.8601644616156
-1418.0332621821094
-1428.396112227866
-1439.8207141672633
-1452.1051012332573
-1464.9693091032402
-1478.0536670706022
-1490.9197449144776
-1503.0542235877463
-1513.8758726121841
-1522.745712662818
-1528.9803201872837
-1531.8680951730921
-1530.6881677449314
-1524.731469852272
-1513.3233519077953
-1495.8469891277548
-1471.7667079243577
-1440.65027941343
-1402.189186101767
-1356.2158807728895
-1302.717134870811
-1241.8427251570804
-1173.908929365112
-1099.3965745150963
-1018.9436725788943
-933.3329532253756
-843.4748376765432
-750.3865784167763
-655.1684129321203
-558.9776469615276
-463.0015973342391
-368.4302928394164
-276.42976382052314
-188.1166581341323
-104.53481161471755
-26.634282517868755
44.74676195892727
108.89703749502358
165.24385367135918
213.36148297416696
252.97621072314442
283.9681622653922
306.37007046849266
320.36320811987895
326.27076382130656
324.548980243759
315.77639324224793
300.64150563803935
279.9292015984523
254.5061609074261
225.30547375962317
193.31059511292239
159.538722632651
125.02364150083835
90.79805927235836
57.87546068439691
27.231548930910694
-0.2145969246857693
-23.619437043969793
-42.23365441366527
-55.42020397260485
-62.67122300824579
-63.623201440271906
-58.069726968658316
-45.971060932859714
-27.459777821713505
-2.8417265338519924
27.408343778641612
62.65699546092654
102.12841925454882
144.926802044262
190.06427839343107
236.4935069063361
283.1433950978498
328.95606600258105
372.9229483966921
414.1179486159743
451.72598628223204
485.06564250533006
513.6051733117164
536.9716153456366
554.9531213955967
567.4949970988899
574.6901641732567
576.7649510350242
574.061214198615
567.0158327351014
556.1386040806959
541.9895135457672
525.1562631827975
506.23283886710954
485.79977587127917
464.4066588629043
442.55726720003906
420.697654955524
399.20733938879783
378.3936611754758
358.48927381972203
339.6526198307802
321.97116148321186
305.4670588898758
290.10493108539566
275.80129809321113
262.43528206708464
249.8601400916905
237.91520648923705
226.43783592654708
215.2749589109884
204.29388826295522
193.3920489175767
182.50534261252358
171.61490106436392
160.75202441267584
150.00114686985359
139.5007210742291
129.44196763263975
120.06549514886737
111.65585673536478
104.53417120252413
99.04900004661316
95.56573198226707
94.45478168510921
96.07895721955356
100.78039098101277
108.86746075214137
120.6021489809166
136.18829778459366
155.76121126379763
179.3790310279945
207.0162624618401
238.55975853930596
273.80737761955663
312.4694260109433
354.17288167963136
398.46828072553643
444.83904188237545
492.7129130788204
541.475151061876
590.4829898922281
639.080915550323
686.6162423389253
732.4544842322397
775.994031913047
816.6796826080451
854.0146222972769
887.5705254541132
916.9955123230542
942.0197835629467
962.4588336430602
978.2142252586897
989.2719845387919
995.6987489964889
997.6358671713348
995.2917118665814
988.9325273211518
978.8721808803989
965.4612260611859
949.0757020430073
930.1060932562687
908.9468520327456
885.9868472424738
861.6010430932901
836.1436381382836
809.9428116326989
783.297140403794
756.473670463738
729.7075576305215
703.2031328233217
677.1362013588478
651.6573502448678
626.8960103969189
602.96500020696
579.9652639626146
557.9905154053572
537.1315043137014
517.4796425385944
499.1297560935316
482.181772802027
466.74120980129203
452.9183881828822
440.8263690949917
430.57767430274214
422.2799224201217
416.0305766051358
411.9110572230041
409.9805214080755
410.2696481089227
412.774789250537
417.45285266515134
424.21726814304867
432.93535148549154
443.42732108422166
455.46713988334477
468.78525974219787
483.07324348864006
497.990138749975
513.1703822027054
528.2329295033927
542.7912416585526
556.4637169654534
568.8841391206448
579.7117157862182
588.6403073445526
595.4064907456509
599.7961639019977
601.6494675385436
600.8638805661735
597.3954289023336
591.2580320493493
582.5210911897261
571.3054912924296
557.7782435739432
542.146032717678
524.6479572295347
505.54776221049514
485.1258601735969
463.67141631816025
441.4747428024404
418.82020765033286
395.9798230787932
373.2076386675666
350.73502920333823
328.7669366470514
307.4791005774799
287.01628967689163
267.4915249825105
248.98626158949085
231.5514700152247
215.20953363379144
199.9568555720506
185.76704737031415
172.59455348789456
160.37855271135697
149.04697196727267
138.5204506799931
128.71610430859207
119.55095388309304
110.94491388501532
102.82326171455247
95.11854486867911
87.77191375287809
80.73389686544908
73.96465972089925
67.43380831804147
61.1198113515389
55.00912214195226
49.09508170058669
43.376680358495555
37.857249892188975
32.54315255782058
27.442526784005068
22.56413968896265
17.9163833571836
13.50643482312816
9.339579578907976
5.418677500919676
1.7437317493623248
-1.6884915844473949
-4.884849637917336
-7.856264200910011
-10.618248348272534
-13.191519362040056
-15.60266706777568
-17.884817949518816
-20.078213104855216
-22.230602202058044
-24.397345680293487
-26.641114848648215
-29.031086034189407
-31.641541004660915
