1561,1705,1881,2065,2226,2338,2402,2442,2454,2438,2418,2390,2354,2302,2250,2194,2130,2057,2001,1949,1897,1849,1801,1765,1745,1737,1737,1737,1721,1705,1693,1681,1665,1785,1833,1829,1805,1777,1737,1721,1729,1777,1885,2005,2166,2334,2470,2570,2622,2634,2638,2634,2614,2582,2550,2514,2462,2414,2366,2310,2242,2182,2142,2110,2077,2046,2026,2013,2001,1985,1965,1949,1941,1945,1949,1945,1929,1893,1873,1853,1841,1837,1849,1901,2005,2150,2302,2438,2574,2678,2734,2766,2778,2770,2750,2714,2678,2646,2614,2570,2518,2462,2410,2346,2282,2230,2198,2166,2154,2142,2122,2094,2069,2042,2018,1989,1965,1949,1937,1925,1909,1889,1865,1849,1841,1865,1945,2082,2242,2406,2554,2662,2734,2770,2770,2738,2702,2654,2598,2534,2458,2378,2294,2218,2142,2061,1981,1909,1833,1789,1745,1713,1697,1693,1693,1689,1665,1637,1613,1601,1593,1545,1517,1493,1477,1457,1441,1429,1441,1477,1565,1701,1857,2001,2094,2154,2194,2214,2218,2214,2198,2174,2138,2086,2030,1977,1925,1873,1813,1769,1729,1709,1693,1685,1681,1685,1681,1669,1657,1653,1649,1645,1641,1637,1629,1621,1609,1601,1593,1585,1593,1633,1709,1833,1981,2130,2250,2326,2366,2382,2374,2342,2302,2262,2226,2186,2142,2094,2046,1997,1949,1901,1865,1853,1853,1857,1857,1853,1845,1841,1837,1829,1821,1805,1789,1773,1753,1733,1709,1689,1673,1661,1677,1741,1845,1953,2077,2198,2290,2358,2390,2402,2390,2378,2362,2334,2290,2250,2206,2150,2086,2038,1993,1957,1929,1901,1877,1857,1845,1849,1853,1853,1849,1837,1825,1813,1805,1793,1777,1841,1861,1857,1845,1841,1861,1933,2053,2202,2342,2458,2566,2638,2674,2690,2682,2666,2642,2614,2586,2546,2498,2450,2406,2354,2306,2258,2214,2186,2162,2134,2110,2094,2082,2069,2057,2034,2005,1985,1969,1953,1941,1921,1901,1881,1861,1853,1869,1921,2022,2158,2306,2442,2554,2630,2686,2714,2718,2706,2682,2646,2614,2586,2542,2494,2442,2402,2346,2282,2218,2158,2098,2049,2001,1957,1913,1865,1817,1777,1749,1713,1681,1641,1593,1557,1533,1517,1505,1501,1505,1521,1557,1633,1753,1893,2034,2154,2226,2278,2302,2306,2294,2278,2250,2218,2190,2154,2102,2049,2001,1949,1893,1841,1797,1769,1761,1765,1765,1765,1765,1765,1765,1765,1765,1765,1765,1753,1729,1713,1709,1697,1689,1681,1697,1741,1817,1929,2061,2178,2262,2302,2310,2298,2290,2274,2250,2218,2182,2138,2094,2046,2001,1965,1945,1933,1917,1905,1897,1893,1897,1897,1893,1885,1877,1865,1853,1845,1833,1821,1813,1801,1789,1781,1769,1765,1789,1857,1965,2077,2202,2318,2398,2446,2466,2462,2446,2422,2398,2370,2334,2298,2266,2234,2202,2162,2126,2102,2077,2057,2038,2034,2030,2018,2001,1981,1957,1941,1929,1909,1885,1857,1825,1797,1777,1761,1757,1769,1797,1861,1965,2077,2178,2254,2314,2358,2382,2386,2370,2346,2310,2278,2246,2218,2182,2150,2118,2073,2030,1981,1941,1913,1901,1889,1885,1881,1873,1865,1857,1845,1833,1817,1805,1793,1785,1777,1765,1665,1621,1629,1677,1777,1917,2069,2210,2322,2398,2438,2474,2486,2490,2478,2450,2422,2374,2330,2282,2234,2178,2122,2073,2030,1989,1953,1917,1893,1873,1869,1861,1853,1845,1833,1821,1805,1785,1765,1749,1729,1697,1665,1641,1637,1657,1721,1813,1953,2098,2230,2326,2382,2402,2398,2374,2350,2326,2294,2258,2214,2166,2106,2046,1973,1909,1861,1817,1785,1761,1737,1721,1709,1697,1681,1661,1645,1633,1617,1593,1573,1565,1561,1545,1537,1525,1509,1505,1521,1585,1685,1813,1969,2110,2218,2286,2322,2322,2310,2274,2226,2174,2126,2094,2042,1981,1909,1845,1797,1757,1729,1713,1697,1685,1685,1685,1677,1669,1665,1657,1649,1645,1641,1641,1641,1637,1629,1613,1629,1637,1653,1709,1817,1965,2102,2238,2358,2426,2462,2466,2454,2426,2390,2342,2298,2250,2206,2170,2130,2073,2018,1965,1929,1913,1905,1905,1913,1917,1913,1909,1897,1885,1873,1857,1833,1817,1805,1781,1749,1717,1689,1681,1701,1777,1905,2061,2210,2334,2418,2478,2510,2518,2506,2478,2446,2402,2362,2318,2274,2218,2162,2106,2057,2009,1973,1941,1925,1913,1897,1893,1893,1893,1885,1885,1881,1865,1853,1837,1821,1809,1797,1781,1765,1769,1821,1905,2038,2198,2358,2490,2586,2638,2654,2646,2642,2630,2606,2574,2530,2486,2434,2386,2338,2290,2238,2182,2126,2086,2053,2026,2013,2013,2001,1977,1949,1925,1909,1897,1881,1869,1853,1833,1813,1793,1777,1769,1729,1781,1897,2022,2158,2290,2394,2474,2518,2534,2534,2526,2506,2474,2422,2358,2286,2202,2118,2034,1961,1881,1825,1769,1721,1673,1621,1573,1545,1525,1505,1481,1449,1433,1429,1417,1401,1385,1365,1341,1333,1325,1325,1329,1361,1445,1573,1713,1877,2018,2114,2162,2182,2178,2150,2110,2073,2053,2026,1985,1925,1845,1769,1709,1657,1621,1593,1577,1577,1573,1573,1573,1573,1577,1577,1573,1573,1573,1573,1565,1549,1537,1537,1537,1541,1541,1553,1601,1697,1837,1961,2094,2210,2286,2310,2294,2262,2230,2198,2154,2110,2065,2013,1961,1897,1833,1785,1753,1741,1745,1761,1781,1797,1809,1809,1801,1789,1781,1793,1793,1781,1769,1765,1773,1769,1757,1745,1745,1849,1941,2049,2194,2354,2510,2606,2670,2694,2686,2658,2626,2594,2558,2518,2466,2410,2362,2310,2250,2198,2162,2130,2110,2098,2094,2082,2065,2049,2034,2022,2001,1981,1961,1945,1933,1921,1913,1897,1885,1869,1865,1893,1949,2049,2182,2306,2410,2490,2534,2546,2538,2522,2498,2450,2410,2370,2326,2282,2238,2182,2126,2090,2057,2030,1997,1969,1945,1941,1941,1941,1937,1933,1929,1921,1913,1901,1885,1873,1869,1857,1837,1813,1813,1853,1941,2069,2198,2338,2462,2546,2594,2618,2618,2614,2590,2554,2514,2474,2438,2398,2354,2310,2254,2202,2166,2138,2110,2077,2049,2026,2005,1993,1973,1957,1941,1929,1921,1909,1897,1885,1869,1841,1805,1765,1737,1725,1749,1685,1745,1853,1957,2038,2094,2122,2122,2110,2077,2034,1993,1961,1921,1861,1805,1745,1689,1637,1585,1541,1509,1485,1469,1465,1461,1461,1461,1461,1453,1441,1429,1421,1409,1401,1389,1385,1381,1357,1329,1317,1329,1381,1485,1637,1805,1949,2077,2166,2214,2226,2218,2190,2150,2090,2046,1985,1917,1853,1793,1733,1681,1629,1581,1557,1545,1545,1545,1533,1517,1501,1489,1477,1465,1465,1461,1461,1461,1461,1461,1461,1453,1429,1425,1453,1541,1697,1885,2065,2218,2298,2334,2330,2302,2274,2258,2234,2194,2146,2094,2038,1981,1921,1861,1797,1745,1733,1729,1729,1733,1737,1737,1729,1725,1721,1721,1713,1709,1693,1681,1665,1653,1649,1641,1645,1677,1757,1853,2134,2354,2514,2634,2706,2726,2726,2698,2654,2598,2546,2490,2442,2386,2322,2254,2194,2138,2082,2026,1977,1945,1925,1921,1925,1933,1929,1913,1897,1881,1865,1853,1837,1817,1793,1765,1749,1737,1741,1785,1881,2026,2198,2342,2478,2590,2670,2714,2734,2730,2726,2706,2666,2614,2554,2514,2466,2418,2366,2314,2266,2222,2190,2162,2154,2150,2146,2134,2122,2106,2086,2061,2030,1997,1981,1965,1949,1929,1901,1881,1877,1909,1985,2126,2294,2470,2610,2710,2790,2846,2874,2870,2838,2790,2750,2714,2678,2634,2570,2506,2438,2390,2342,2282,2226,2190,2158,2130,2110,2082,2053,2030,2001,1981,1957,1941,1921,1909,1893,1881,1865,1837,1813,1801,1821,1865,1953,2077,2046,2086,2138,2178,2186,2166,2126,2069,2009,1969,1917,1861,1773,1717,1669,1617,1557,1505,1469,1437,1429,1429,1429,1429,1429,1425,1417,1417,1413,1405,1385,1365,1357,1353,1333,1305,1277,1257,1253,1261,1305,1401,1549,1725,1897,2022,2102,2158,2182,2178,2162,2138,2102,2061,2005,1945,1881,1801,1737,1677,1629,1589,1565,1549,1545,1545,1545,1537,1521,1497,1481,1477,1473,1465,1449,1437,1433,1429,1413,1389,1365,1361,1393,1465,1589,1749,1909,2042,2142,2186,2202,2194,2174,2138,2102,2069,2030,1985,1945,1893,1841,1801,1761,1733,1713,1701,1709,1721,1721,1725,1721,1713,1701,1689,1685,1673,1665,1657,1653,1649,1649,1637,1625,1629,1665,1749,1873,2102,2466,2674,2810,2890,2930,2926,2894,2850,2806,2770,2734,2686,2630,2562,2502,2430,2354,2306,2270,2238,2210,2198,2194,2182,2166,2146,2122,2098,2065,2042,2030,2013,1997,1981,1957,1925,1909,1893,1909,1973,2098,2266,2422,2582,2722,2826,2894,2930,2934,2918,2890,2850,2806,2770,2738,2694,2638,2570,2506,2442,2386,2342,2310,2298,2286,2262,2242,2226,2214,2202,2182,2154,2134,2118,2094,2065,2038,2018,1997,1997,2018,2073,2182,2338,2510,2674,2810,2934,3026,3082,3110,3106,3074,3042,3006,2970,2926,2862,2798,2734,2670,2598,2534,2478,2426,2382,2338,2306,2282,2262,2238,2210,2186,2158,2134,2106,2073,2049,2030,2009,1981,1957,1941,1949,2001,2106,2266,2330,2226,2274,2334,2390,2422,2434,2430,2418,2402,2370,2326,2270,2194,2118,2053,1977,1893,1817,1745,1681,1633,1581,1533,1485,1449,1421,1397,1377,1353,1321,1285,1257,1241,1241,1237,1229,1217,1205,1197,1213,1257,1345,1477,1625,1757,1845,1909,1949,1969,1969,1957,1933,1909,1877,1845,1797,1733,1677,1621,1565,1521,1489,1465,1453,1453,1453,1453,1453,1453,1453,1453,1449,1437,1421,1405,1389,1373,1353,1329,1313,1297,1285,1285,1305,1373,1497,1653,1813,1937,2018,2061,2069,2065,2053,2038,2013,1985,1945,1897,1841,1789,1745,1701,1673,1653,1641,1629,1629,1641,1653,1657,1649,1641,1633,1633,1625,1613,1597,1585,1573,1565,1561,1549,1533,1529,1561,1621,1789,2053,2214,2330,2406,2442,2450,2438,2422,2398,2378,2354,2318,2278,2238,2190,2138,2090,2057,2022,1993,1965,1941,1925,1921,1917,1913,1909,1909,1901,1889,1877,1861,1853,1841,1829,1821,1805,1793,1781,1801,1861,1957,2057,2182,2298,2390,2446,2478,2490,2502,2510,2506,2490,2462,2434,2398,2354,2310,2270,2238,2202,2170,2138,2102,2073,2057,2053,2053,2049,2034,2013,1989,1969,1953,1933,1917,1901,1889,1881,1877,1869,1869,1893,1949,2046,2162,2270,2382,2482,2554,2594,2606,2602,2602,2594,2582,2554,2522,2486,2438,2394,2350,2298,2254,2218,2186,2154,2122,2094,2069,2049,2030,2005,1973,1933,1897,1865,1833,1793,1761,1733,1713,1689,1665,1645,1633,1649,1689,1741,1833,1961,2086,2186,2250,2286,2298,2298,2286,2274,2250,2214,2166,2114,2061,2009,1961,1913,1865,1837,1805,1785,1773,1761,1749,1741,1729,1721,1709,1693,1673,1669,1661,1657,1641,1621,1605,1601,1593,1589,1593,1625,1705,1817,1929,2053,2154,2226,2266,2286,2274,2258,2234,2206,2174,2138,2094,2042,1997,1949,1905,1861,1825,1809,1793,1793,1801,1801,1793,1789,1773,1757,1737,1717,1697,1681,1669,1657,1653,1649,1649,1653,1653,1665,1717,1817,1945,2082,2194,2302,2374,2410,2422,2406,2378,2350,2318,2286,2246,2206,2174,2138,2090,2042,2005,1973,1949,1925,1905,1881,1869,1857,1845,1837,1825,1809,1793,1773,1753,1737,1717,1693,1673,1665,1661,1677,1713,1797,1941,2106,2254,2354,2434,2482,2502,2518,2510,2494,2470,2438,2394,2342,2290,2246,2202,2150,2098,2057,2026,1993,1969,1941,1921,1909,1889,1873,1857,1841,1829,1813,1801,1785,1777,1761,1745,1733,1721,1725,1761,1829,1937,2077,2238,2386,2498,2574,2634,2670,2678,2670,2650,2626,2598,2562,2522,2470,2402,2338,2278,2230,2186,2142,2102,2073,2053,2034,2009,1989,1973,1953,1933,1909,1881,1853,1833,1809,1793,1773,1753,1741,1733,1753,1801,1897,2038,2206,2358,2482,2562,2610,2638,2650,2642,2622,2586,2546,2510,2474,2430,2366,2298,2250,2198,2150,2106,2069,2042,2018,1989,1961,1925,1873,1829,1789,1757,1705,1645,1589,1533,1485,1449,1421,1393,1361,1385,1497,1549,1613,1701,1813,1929,2034,2102,2154,2182,2194,2198,2186,2162,2130,2094,2061,2022,1977,1933,1893,1845,1805,1773,1753,1745,1745,1741,1737,1733,1733,1725,1717,1705,1689,1685,1677,1669,1669,1657,1645,1633,1625,1621,1621,1641,1697,1793,1905,2013,2106,2170,2218,2238,2242,2238,2226,2206,2174,2130,2082,2038,1997,1961,1929,1909,1889,1877,1865,1857,1849,1849,1849,1853,1853,1845,1837,1825,1813,1801,1793,1781,1773,1765,1761,1749,1745,1757,1785,1845,1937,2057,2178,2282,2354,2398,2426,2438,2442,2430,2406,2382,2342,2302,2258,2218,2182,2150,2114,2086,2061,2038,2013,1993,1977,1961,1949,1929,1917,1909,1897,1881,1865,1845,1829,1809,1793,1777,1785,1789,1801,1833,1893,1993,2118,2242,2350,2430,2474,2502,2510,2502,2482,2458,2430,2394,2350,2314,2270,2226,2182,2146,2118,2094,2065,2038,2018,1997,1981,1973,1965,1953,1941,1933,1925,1913,1893,1877,1861,1853,1845,1833,1817,1821,1865,1937,2034,2162,2294,2414,2502,2554,2578,2590,2590,2582,2566,2538,2510,2482,2454,2414,2366,2318,2274,2230,2190,2166,2150,2138,2134,2126,2118,2110,2098,2086,2069,2057,2042,2018,1997,1977,1965,1957,1949,1953,1969,2013,2094,2178,2294,2422,2534,2626,2694,2734,2750,2750,2738,2718,2682,2650,2614,2578,2530,2482,2426,2366,2322,2282,2242,2202,2162,2126,2090,2049,2009,1973,1937,1901,1873,1845,1809,1781,1749,1657,1493,1433,1397,1377,1373,1405,1465,1557,1693,1837,1969,2065,2126,2150,2154,2146,2134,2114,2082,2049,1997,1941,1877,1817,1761,1717,1677,1641,1601,1581,1569,1565,1565,1557,1549,1545,1533,1521,1521,1521,1513,1505,1497,1485,1477,1457,1437,1429,1441,1493,1589,1705,1849,1985,2094,2162,2194,2198,2182,2162,2142,2118,2082,2042,1989,1933,1881,1825,1777,1749,1737,1721,1713,1717,1729,1737,1733,1721,1709,1697,1685,1673,1661,1645,1633,1621,1601,1577,1565,1553,1553,1573,1645,1761,1881,2013,2142,2246,2310,2334,2326,2302,2278,2250,2214,2170,2130,2086,2034,1977,1921,1881,1853,1833,1805,1781,1765,1753,1741,1741,1737,1737,1729,1717,1701,1677,1653,1665,1721,1717,1709,1705,1705,1733,1805,1917,2061,2210,2346,2474,2566,2618,2642,2642,2626,2602,2582,2550,2506,2442,2390,2338,2290,2238,2186,2146,2114,2086,2061,2042,2034,2022,2009,2005,1989,1965,1941,1925,1913,1905,1893,1881,1865,1849,1849,1865,1921,2030,2194,2358,2506,2606,2674,2734,2774,2798,2806,2794,2770,2730,2678,2622,2562,2502,2446,2390,2330,2274,2226,2182,2154,2142,2126,2106,2082,2053,2038,2009,1981,1961,1941,1925,1913,1901,1881,1861,1837,1833,1857,1917,2022,2174,2338,2490,2614,2682,2730,2746,2742,2718,2674,2626,2566,2486,2394,2298,2206,2126,2057,1981,1909,1849,1793,1749,1713,1681,1653,1625,1605,1585,1573,1557,1537,1509,1481,1465,1473,1481,1473,1461,1449,1449,1477,1529,1629,1757,1893,2022,2106,2150,2174,2182,2174,2150,2118,2086,2057,2013,1957,1901,1845,1809,1773,1737,1701,1677,1665,1665,1669,1669,1669,1669,1665,1657,1645,1637,1629,1621,1609,1597,1589,1581,1565,1557,1557,1577,1625,1721,1853,1997,2122,2214,2266,2282,2282,2274,2254,2226,2190,2158,2110,2057,2009,1957,1909,1877,1845,1829,1817,1813,1817,1817,1817,1817,1809,1801,1789,1781,1773,1765,1753,1741,1729,1717,1709,1697,1697,1725,1805,1909,2022,2142,2254,2338,2394,2414,2406,2386,2354,2318,2278,2242,2202,2150,2098,2057,2018,1969,1921,1889,1873,1857,1845,1833,1821,1813,1801,1789,1777,1769,1749,1733,1709,1709,1741,1741,1729,1733,1745,1785,1869,1993,2150,2302,2418,2518,2578,2602,2606,2606,2602,2594,2570,2534,2486,2442,2394,2338,2286,2242,2206,2174,2150,2122,2090,2061,2049,2049,2042,2022,1993,1977,1961,1945,1933,1921,1909,1901,1885,1873,1861,1869,1925,2034,2182,2338,2474,2562,2634,2678,2690,2686,2670,2642,2614,2586,2554,2506,2458,2410,2350,2282,2230,2194,2158,2130,2106,2077,2057,2038,2018,1997,1989,1977,1961,1945,1933,1917,1905,1893,1877,1865,1857,1865,1893,1949,2042,2154,2246,2326,2386,2418,2426,2414,2390,2350,2298,2238,2182,2122,2061,2005,1953,1917,1865,1797,1737,1701,1689,1689,1693,1693,1673,1653,1625,1601,1581,1557,1545,1537,1529,1509,1477,1461,1445,1429,1429,1445,1481,1565,1685,1829,1965,2077,2142,2162,2162,2158,2158,2142,2122,2082,2030,1969,1921,1877,1833,1797,1757,1725,1705,1697,1697,1709,1721,1721,1717,1709,1697,1689,1685,1685,1685,1689,1697,1697,1701,1697,1677,1673,1693,1753,1857,2005,2158,2286,2378,2418,2418,2398,2370,2334,2290,2246,2210,2170,2130,2086,2038,1985,1941,1921,1905,1901,1909,1921,1929,1925,1917,1913,1909,1897,1881,1877,1865,1853,1841,1825,1809,1801,1793,1793,1809,1865,1973,2110,2234,2354,2442,2494,2514,2502,2474,2446,2414,2370,2326,2274,2222,2170,2122,2065,2009,1961,1933,1913,1897,1897,1901,1893,1885,1873,1861,1845,1833,1817,1793,1777,1757,1753,1765,1757,1753,1761,1789,1865,1985,2130,2278,2394,2502,2586,2638,2654,2662,2654,2646,2618,2574,2518,2470,2438,2402,2358,2318,2274,2238,2202,2174,2146,2134,2122,2110,2090,2069,2042,2013,1993,1981,1973,1973,1969,1953,1929,1901,1885,1897,1945,2053,2206,2366,2510,2622,2686,2730,2754,2766,2766,2754,2734,2706,2670,2618,2562,2502,2458,2410,2342,2266,2198,2126,2061,2018,1969,1925,1877,1825,1785,1749,1713,1673,1641,1609,1577,1557,1537,1529,1529,1533,1541,1569,1645,1761,1913,2065,2202,2298,2354,2374,2370,2354,2322,2286,2250,2214,2166,2110,2049,1989,1937,1885,1833,1789,1757,1749,1753,1753,1753,1753,1753,1753,1757,1761,1757,1753,1729,1705,1681,1637,1613,1589,1569,1573,1605,1681,1805,1961,2110,2230,2310,2342,2346,2322,2290,2262,2234,2210,2174,2138,2102,2057,2005,1961,1929,1909,1893,1885,1893,1905,1913,1909,1905,1897,1885,1865,1853,1841,1829,1813,1797,1769,1753,1737,1737,1765,1841,1961,2102,2230,2354,2450,2510,2538,2542,2526,2502,2470,2422,2370,2322,2286,2238,2178,2122,2065,2022,1993,1965,1937,1925,1917,1913,1913,1909,1901,1893,1885,1869,1857,1849,1833,1817,1801,1785,1773,1785,1833,1921,2042,2182,2318,2406,2474,2518,2538,2542,2542,2522,2494,2462,2422,2374,2330,2290,2238,2174,2122,2090,2057,2030,2005,1993,1977,1961,1949,1933,1917,1913,1905,1889,1877,1861,1853,1841,1829,1801,1765,1793,1869,1977,2138,2298,2434,2534,2602,2638,2658,2658,2642,2614,2582,2550,2502,2442,2386,2326,2266,2206,2150,2106,2069,2034,2018,2009,2009,1993,1973,1945,1925,1913,1893,1873,1845,1805,1757,1705,1661,1621,1593,1585,1625,1725,1845,1977,2106,2214,2286,2322,2322,2322,2310,2294,2278,2246,2206,2158,2098,2034,1965,1905,1849,1809,1765,1729,1701,1677,1653,1641,1625,1613,1601,1577,1545,1517,1497,1485,1477,1469,1461,1457,1441,1437,1469,1573,1741,1925,2069,2190,2270,2314,2322,2294,2258,2222,2178,2134,2082,2009,1941,1873,1817,1769,1733,1709,1693,1677,1657,1645,1641,1641,1633,1629,1629,1625,1613,1597,1585,1581,1569,1545,1513,1493,1493,1525,1625,1777,1949,2110,2238,2318,2366,2374,2366,2334,2302,2262,2218,2170,2126,2077,2026,1969,1913,1877,1845,1825,1809,1805,1817,1829,1841,1841,1825,1817,1793,1777,1761,1741,1725,1713,1693,1677,1677,1729,1833,1945,2090,2230,2338,2406,2446,2458,2450,2426,2386,2358,2314,2274,2226,2170,2114,2053,1989,1929,1893,1873,1849,1833,1817,1817,1809,1797,1785,1765,1745,1729,1717,1697,1665,1653,1649,1637,1629,1633,1657,1725,1845,2001,2146,2266,2370,2426,2454,2458,2450,2426,2394,2362,2330,2290,2246,2206,2158,2110,2053,2005,1961,1925,1897,1877,1861,1849,1837,1829,1821,1805,1793,1777,1761,1745,1721,1689,1669,1661,1661,1673,1709,1801,1941,2118,2326,2490,2582,2646,2678,2690,2694,2694,2690,2678,2658,2610,2526,2426,2330,2246,2162,2082,2001,1925,1857,1809,1765,1737,1701,1657,1613,1577,1541,1501,1461,1421,1389,1365,1353,1341,1333,1333,1353,1433,1557,1745,1949,2134,2254,2310,2310,2286,2234,2194,2158,2122,2086,2026,1949,1881,1805,1721,1641,1589,1561,1553,1553,1553,1553,1561,1557,1541,1521,1505,1501,1505,1501,1485,1481,1461,1433,1417,1397,1397,1437,1545,1713,1869,2026,2154,2234,2270,2266,2234,2194,2154,2114,2065,2009,1949,1893,1837,1777,1709,1645,1605,1585,1577,1577,1581,1589,1593,1597,1585,1573,1573,1573,1573,1573,1573,1573,1573,1573,1573,1581,1621,1733,1921,2134,2330,2486,2542,2514,2494,2466,2434,2398,2362,2322,2278,2230,2182,2134,2077,2034,1993,1961,1949,1949,1949,1949,1945,1945,1941,1929,1925,1925,1925,1913,1893,1877,1861,1853,1841,1829,1833,1885,1973,2090,2206,2330,2434,2510,2558,2574,2562,2522,2466,2418,2378,2334,2298,2246,2194,2138,2077,2005,1969,1949,1929,1917,1905,1909,1909,1897,1885,1869,1857,1841,1829,1817,1793,1761,1733,1721,1725,1745,1797,1897,2030,2174,2314,2410,2490,2542,2566,2574,2566,2542,2506,2462,2426,2382,2338,2282,2222,2170,2134,2102,2073,2049,2022,1997,1985,1981,1969,1965,1953,1945,1929,1917,1901,1885,1873,1861,1849,1837,1853,1901,1981,2122,2250,2398,2530,2614,2658,2670,2666,2654,2610,2518,2470,2434,2390,2334,2278,2222,2166,2114,2065,2026,1993,1961,1929,1909,1897,1885,1861,1837,1813,1797,1781,1765,1733,1689,1645,1609,1573,1545,1541,1569,1649,1777,1905,2038,2142,2210,2238,2258,2254,2242,2222,2186,2138,2090,2046,1993,1933,1869,1809,1753,1697,1649,1613,1585,1569,1557,1553,1549,1541,1521,1497,1485,1481,1481,1469,1453,1437,1421,1405,1385,1385,1397,1469,1601,1781,1941,2069,2170,2234,2266,2274,2266,2246,2214,2170,2122,2057,1993,1937,1877,1817,1765,1721,1693,1677,1681,1681,1693,1697,1693,1689,1681,1665,1649,1633,1617,1601,1593,1577,1561,1541,1525,1529,1561,1645,1785,1961,2174,2302,2398,2450,2478,2470,2446,2414,2382,2366,2366,2334,2286,2222,2162,2118,2082,2049,2030,2018,2013,2013,2013,2001,1981,1961,1933,1913,1897,1873,1853,1837,1821,1805,1785,1765,1761,1789,1873,1993,2122,2274,2410,2530,2606,2638,2634,2606,2574,2546,2514,2482,2438,2386,2338,2290,2226,2166,2122,2086,2057,2018,1985,1957,1941,1933,1921,1909,1901,1885,1869,1853,1833,1817,1801,1785,1773,1761,1769,1809,1901,2046,2218,2386,2518,2634,2706,2742,2750,2742,2730,2734,2734,2714,2674,2610,2558,2498,2438,2378,2330,2286,2250,2218,2190,2162,2138,2126,2122,2118,2098,2069,2042,2013,1985,1961,1933,1913,1897,1881,1881,1905,1981,2110,2270,2442,2602,2706,2786,2818,2826,2822,2810,2794,2774,2746,2706,2590,2386,2298,2230,2154,2098,2053,2009,1965,1933,1913,1893,1869,1841,1801,1757,1701,1653,1609,1565,1525,1469,1421,1377,1345,1313,1289,1297,1345,1445,1597,1761,1913,2018,2094,2138,2158,2162,2146,2118,2082,2042,2001,1949,1885,1825,1765,1701,1645,1601,1561,1537,1521,1513,1505,1493,1485,1477,1465,1449,1437,1433,1433,1421,1409,1393,1377,1361,1345,1345,1373,1441,1569,1729,1893,2034,2122,2170,2190,2190,2170,2142,2114,2082,2034,1973,1905,1845,1789,1741,1701,1669,1649,1637,1625,1621,1629,1637,1641,1633,1625,1613,1601,1581,1561,1537,1513,1489,1473,1457,1449,1445,1461,1509,1609,1741,1925,2102,2238,2330,2370,2378,2374,2350,2318,2290,2258,2214,2278,2270,2218,2162,2118,2086,2053,2030,2005,1993,1989,1989,1977,1961,1941,1921,1905,1893,1873,1849,1829,1813,1797,1773,1757,1745,1761,1817,1913,2049,2178,2310,2430,2514,2566,2586,2582,2566,2534,2502,2478,2442,2398,2350,2298,2250,2202,2154,2114,2086,2057,2034,2018,2005,1993,1977,1961,1937,1913,1901,1889,1881,1869,1857,1837,1813,1797,1789,1805,1857,1945,2077,2230,2374,2490,2594,2662,2702,2722,2730,2718,2702,2674,2634,2578,2518,2470,2418,2366,2318,2274,2234,2198,2162,2134,2114,2106,2106,2102,2090,2061,2034,2001,1977,1949,1929,1909,1893,1865,1849,1841,1861,1917,2022,2170,2330,2478,2582,2666,2710,2726,2730,2714,2698,2678,2658,2622,2570,2402,2294,2230,2170,2122,2077,2034,1993,1957,1921,1881,1841,1789,1737,1693,1641,1593,1545,1493,1445,1401,1369,1333,1301,1277,1261,1261,1293,1361,1477,1621,1777,1929,2034,2110,2142,2142,2122,2106,2094,2077,2053,2018,1961,1905,1853,1801,1741,1689,1645,1605,1577,1565,1549,1537,1525,1513,1505,1501,1497,1485,1465,1449,1437,1433,1425,1413,1401,1389,1385,1385,1413,1489,1613,1773,1929,2053,2134,2178,2190,2182,2162,2134,2106,2069,2018,1965,1913,1857,1813,1761,1713,1677,1657,1653,1653,1657,1665,1677,1677,1669,1657,1649,1633,1613,1593,1565,1533,1513,1501,1497,1497,1497,1517,1557,1649,1785,1949,2110,2242,2314,2362,2382,2382,2358,2330,2298,2266,2338,2346,2318,2282,2234,2194,2142,2106,2082,2069,2069,2069,2057,2038,2013,1989,1965,1949,1937,1921,1905,1877,1853,1829,1813,1797,1789,1793,1829,1897,1993,2130,2270,2398,2498,2558,2582,2586,2578,2566,2550,2518,2490,2454,2410,2350,2290,2234,2190,2154,2122,2094,2057,2026,2013,2009,1997,1981,1969,1953,1941,1933,1921,1909,1897,1885,1873,1869,1849,1837,1849,1905,2001,2122,2246,2382,2514,2618,2678,2710,2714,2710,2694,2678,2662,2630,2598,2554,2506,2454,2394,2342,2306,2270,2242,2210,2182,2158,2142,2130,2110,2094,2073,2049,2026,2005,1977,1949,1925,1905,1893,1885,1877,1885,1929,2022,2154,2274,2406,2522,2614,2674,2702,2702,2694,2682,2666,2638,2490,2386,2306,2230,2142,2061,1981,1913,1861,1809,1757,1701,1649,1601,1565,1533,1501,1477,1461,1441,1425,1401,1373,1349,1325,1305,1301,1297,1285,1285,1313,1389,1509,1649,1813,1953,2061,2118,2138,2138,2122,2102,2077,2046,2005,1965,1913,1853,1793,1733,1685,1641,1605,1577,1557,1545,1533,1521,1513,1509,1509,1509,1501,1493,1485,1469,1453,1437,1425,1405,1389,1365,1349,1369,1437,1553,1677,1821,1949,2061,2138,2182,2198,2190,2170,2146,2118,2090,2046,1989,1929,1877,1825,1789,1761,1737,1717,1701,1701,1705,1709,1709,1705,1697,1685,1677,1665,1657,1645,1633,1629,1621,1605,1593,1585,1597,1649,1745,1877,2026,2138,2242,2322,2362,2382,2382,2362,2330,2390,2398,2370,2322,2270,2218,2166,2118,2077,2049,2030,2005,1985,1957,1929,1909,1897,1889,1877,1869,1853,1829,1805,1793,1777,1757,1745,1737,1733,1741,1769,1833,1937,2069,2210,2322,2402,2470,2510,2530,2530,2514,2490,2466,2442,2418,2382,2334,2286,2246,2202,2154,2114,2086,2065,2053,2034,2022,2009,2001,1989,1973,1949,1929,1909,1897,1885,1881,1873,1853,1837,1829,1845,1889,1969,2082,2218,2342,2450,2522,2566,2590,2606,2610,2598,2574,2542,2506,2466,2418,2362,2306,2258,2202,2154,2118,2094,2086,2082,2077,2065,2049,2026,2001,1981,1953,1913,1877,1833,1781,1737,1701,1673,1641,1609,1585,1585,1617,1693,1797,1917,2026,2110,2158,2186,2202,2206,2202,2162,2126,2086,2049,2001,1949,1897,1857,1821,1777,1737,1701,1673,1661,1661,1661,1661,1653,1645,1633,1629,1617,1609,1605,1605,1593,1589,1577,1557,1533,1521,1545,1613,1709,1833,1965,2082,2174,2222,2238,2234,2214,2182,2138,2090,2046,1993,1945,1893,1853,1813,1785,1761,1745,1729,1725,1729,1733,1733,1729,1721,1709,1697,1685,1677,1657,1641,1625,1613,1605,1589,1565,1553,1569,1637,1753,1873,2009,2142,2242,2314,2354,2362,2350,2326,2302,2266,2230,2194,2158,2130,2098,2057,2005,1961,1933,1921,1929,1945,1949,1949,1945,1945,1941,1929,1905,1889,1881,1869,1861,1853,1849,1845,1849,1861,1901,1985,2102,2230,2334,2418,2490,2530,2546,2538,2506,2458,2410,2390,2350,2302,2254,2214,2166,2110,2053,2001,1961,1929,1905,1877,1857,1853,1849,1845,1837,1821,1809,1789,1765,1729,1709,1689,1673,1657,1641,1665,1729,1845,2001,2158,2298,2406,2458,2490,2498,2502,2494,2470,2446,2410,2362,2310,2262,2214,2170,2118,2069,2030,1997,1969,1941,1925,1917,1905,1893,1873,1857,1849,1837,1821,1809,1789,1773,1761,1749,1737,1733,1761,1841,1957,2090,2242,2374,2470,2518,2530,2522,2518,2506,2478,2454,2422,2386,2338,2282,2222,2162,2110,2069,2042,2005,1977,1949,1925,1913,1905,1889,1869,1841,1801,1769,1737,1701,1661,1609,1561,1517,1485,1445,1421,1425,1477,1581,1697,1805,1909,1993,2049,2069,2073,2061,2038,2009,1981,1945,1941,1921,1881,1837,1793,1733,1685,1657,1629,1613,1609,1609,1613,1617,1605,1589,1565,1549,1533,1533,1533,1533,1517,1493,1481,1469,1469,1477,1509,1601,1745,1901,2022,2126,2202,2238,2242,2218,2186,2154,2114,2061,2005,1949,1905,1869,1829,1777,1729,1709,1705,1705,1705,1705,1705,1705,1705,1705,1705,1705,1705,1701,1697,1693,1689,1673,1661,1641,1629,1625,1653,1721,1849,2005,2162,2282,2362,2410,2422,2414,2390,2374,2350,2314,2274,2234,2186,2130,2082,2038,2001,1969,1949,1945,1941,1941,1941,1933,1929,1921,1917,1909,1893,1881,1869,1857,1853,1845,1837,1821,1809,1809,1865,1945,2082,2238,2378,2490,2574,2602,2602,2598,2586,2562,2518,2462,2414,2366,2326,2286,2234,2178,2126,2069,2022,1985,1969,1965,1961,1957,1941,1925,1909,1893,1885,1873,1857,1837,1817,1793,1769,1753,1737,1737,1797,1913,2057,2198,2334,2442,2522,2578,2606,2614,2610,2606,2582,2558,2526,2478,2426,2378,2334,2294,2250,2206,2170,2138,2118,2106,2102,2102,2094,2073,2049,2022,1993,1961,1941,1925,1909,1893,1881,1865,1865,1885,1941,2042,2182,2334,2474,2578,2662,2702,2706,2698,2682,2662,2634,2602,2570,2530,2474,2422,2374,2330,2286,2238,2174,2126,2077,2030,1981,1933,1889,1857,1825,1785,1741,1705,1669,1641,1625,1617,1613,1597,1581,1577,1597,1669,1789,1945,2098,2218,2286,2338,2366,2374,2362,2330,2298,2254,2210,2158,2102,2042,1925,1849,1789,1733,1681,1637,1613,1609,1609,1609,1609,1609,1609,1601,1581,1565,1561,1557,1557,1561,1545,1521,1493,1485,1517,1589,1701,1857,2005,2110,2170,2198,2202,2194,2174,2142,2102,2053,2009,1957,1901,1849,1805,1769,1753,1729,1701,1681,1665,1661,1673,1681,1673,1665,1649,1633,1621,1613,1609,1609,1609,1609,1609,1609,1609,1625,1681,1797,1941,2073,2202,2294,2346,2362,2346,2322,2298,2270,2242,2202,2158,2118,2073,2030,1973,1913,1861,1837,1825,1817,1825,1829,1825,1817,1805,1793,1781,1765,1749,1725,1701,1681,1653,1629,1617,1613,1625,1665,1757,1885,2026,2150,2234,2274,2290,2294,2290,2274,2258,2234,2206,2170,2130,2077,2018,1965,1913,1865,1897,1901,1885,1861,1845,1825,1805,1785,1769,1753,1737,1721,1701,1669,1637,1617,1613,1613,1613,1621,1669,1773,1913,2102,2282,2442,2550,2594,2606,2586,2554,2526,2506,2486,2466,2442,2386,2310,2246,2202,2158,2114,2073,2038,2001,1969,1941,1937,1933,1933,1929,1921,1913,1901,1885,1853,1829,1805,1785,1769,1761,1773,1825,1929,2090,2278,2422,2550,2650,2706,2730,2718,2686,2650,2614,2574,2534,2482,2430,2374,2302,2230,2174,2118,2065,2026,1989,1953,1933,1925,1909,1897,1857,1805,1741,1673,1621,1577,1525,1457,1389,1341,1305,1289,1293,1341,1437,1585,1765,1925,2057,2170,2226,2238,2230,2218,2194,2158,2118,2073,2005,1941,1885,1813,1741,1669,1625,1585,1645,1677,1685,1685,1681,1681,1681,1685,1681,1657,1645,1641,1633,1621,1601,1585,1565,1545,1529,1533,1569,1657,1785,1941,2086,2194,2270,2306,2306,2270,2234,2210,2186,2158,2118,2061,2005,1957,1921,1877,1841,1821,1805,1789,1781,1781,1785,1781,1773,1765,1761,1757,1753,1741,1729,1725,1721,1725,1725,1725,1713,1713,1741,1801,1929,2090,2258,2406,2510,2558,2578,2574,2554,2522,2478,2450,2422,2378,2322,2254,2190,2138,2098,2061,2038,2013,1993,1989,1989,1989,1985,1981,1969,1957,1949,1937,1921,1901,1877,1857,1837,1817,1797,1785,1801,1873,1973,2118,2258,2378,2474,2542,2582,2586,2566,2542,2506,2462,2422,2390,2350,2302,2246,2194,2134,2086,2046,2009,1977,1957,1945,1949,1949,1941,1929,1913,1901,1889,1877,1865,1849,1837,1821,1809,1801,1789,1801,1841,1921,2042,2174,2326,2466,2570,2638,2678,2694,2706,2706,2694,2662,2630,2602,2570,2526,2474,2418,2366,2322,2282,2250,2222,2202,2186,2170,2154,2146,2134,2118,2094,2065,2042,2022,1997,1973,1961,1961,1961,1945,1925,1925,1969,2061,2190,2318,2466,2598,2694,2762,2794,2806,2818,2826,2818,2794,2758,2714,2654,2594,2534,2474,2422,2374,2330,2286,2242,2206,2182,2166,2142,2114,2069,2018,1961,1909,1861,1809,1761,1721,1677,1625,1581,1537,1497,1473,1477,1521,1593,1709,1853,2001,2142,2250,2318,2350,2366,2366,2354,2334,2298,2258,2206,2154,2098,2038,1985,1917,1865,1829,1801,1781,1765,1757,1753,1753,1753,1753,1753,1745,1733,1721,1713,1709,1705,1701,1693,1681,1669,1653,1641,1637,1649,1701,1797,1921,2046,2150,2214,2250,2270,2274,2258,2246,2230,2210,2182,2150,2102,2057,2018,1989,1961,1937,1925,1917,1917,1913,1917,1913,1909,1905,1897,1893,1885,1869,1849,1829,1817,1809,1797,1789,1773,1753,1741,1737,1745,1781,1861,1973,2102,2210,2282,2326,2346,2350,2346,2330,2314,2302,2278,2246,2210,2170,2138,2102,2069,2042,2022,2001,1989,1981,1977,1977,1981,1981,1969,1961,1949,1933,1917,1905,1897,1889,1877,1869,1857,1849,1853,1881,1941,2042,2166,2286,2386,2454,2494,2518,2542,2554,2554,2542,2518,2494,2466,2414,2366,2318,2274,2230,2190,2154,2118,2086,2069,2057,2046,2034,2013,1997,1981,1969,1953,1941,1925,1905,1881,1865,1849,1837,1837,1853,1901,1977,2090,2226,2370,2498,2598,2658,2702,2738,2754,2758,2758,2750,2726,2690,2642,2590,2542,2490,2438,2390,2346,2310,2274,2242,2222,2210,2198,2178,2154,2122,2098,2069,2046,2030,2009,1985,1965,1937,1905,1889,1889,1929,2005,2106,2242,2382,2510,2610,2670,2694,2710,2718,2718,2706,2682,2638,2594,2546,2490,2434,2382,2338,2282,2234,2194,2162,2134,2106,2077,2046,2013,1973,1925,1877,1837,1789,1737,1685,1641,1593,1561,1521,1481,1453,1453,1485,1549,1657,1789,1925,2042,2126,2178,2202,2214,2210,2190,2162,2126,2065,2013,1973,1933,1885,1841,1801,1761,1733,1717,1709,1705,1701,1693,1689,1681,1673,1669,1665,1657,1645,1633,1621,1605,1589,1581,1573,1573,1573,1581,1617,1677,1769,1873,1969,2046,2094,2110,2122,2118,2106,2086,2057,2034,2001,1969,1929,1881,1845,1821,1797,1785,1777,1773,1769,1769,1769,1765,1761,1753,1741,1725,1721,1717,1713,1709,1705,1705,1709,1701,1693,1697,1725,1789,1881,1973,2069,2158,2222,2266,2278,2274,2262,2242,2222,2194,2166,2142,2118,2090,2046,2009,1977,1957,1937,1917,1909,1905,1905,1901,1889,1873,1857,1849,1841,1833,1829,1821,1813,1801,1793,1781,1773,1773,1797,1857,1949,2049,2130,2202,2262,2302,2322,2326,2318,2302,2282,2262,2366,2398,2378,2338,2282,2230,2178,2130,2090,2057,2030,2001,1993,1985,1965,1949,1929,1913,1901,1889,1877,1865,1865,1861,1849,1825,1805,1797,1821,1889,2001,2138,2274,2386,2470,2542,2590,2606,2602,2594,2578,2558,2530,2498,2458,2410,2366,2314,2270,2222,2182,2138,2102,2073,2049,2038,2030,2013,1993,1973,1949,1933,1917,1905,1885,1865,1853,1837,1821,1805,1805,1833,1905,2018,2150,2282,2398,2470,2498,2506,2490,2454,2410,2362,2314,2254,2194,2130,2061,1989,1933,1873,1813,1765,1729,1701,1685,1669,1665,1661,1649,1637,1629,1617,1597,1573,1549,1533,1525,1521,1517,1517,1513,1517,1537,1581,1665,1789,1913,2049,2130,2182,2218,2230,2230,2214,2186,2154,2110,2069,2034,1989,1933,1877,1837,1801,1773,1757,1745,1737,1741,1741,1741,1741,1741,1737,1733,1721,1701,1693,1681,1665,1649,1629,1617,1605,1613,1649,1725,1825,1953,2077,2182,2250,2282,2286,2274,2258,2234,2214,2186,2162,2126,2086,2042,1993,1949,1921,1905,1893,1885,1889,1897,1909,1913,1917,1913,1901,1889,1881,1873,1861,1849,1841,1829,1817,1809,1809,1817,1857,1937,2057,2170,2278,2370,2426,2446,2446,2430,2410,2390,2366,2338,2298,2254,2206,2150,2098,2049,2005,1973,1953,1933,1917,1901,1889,1881,1877,1869,1861,1849,1841,1825,1813,1797,1777,1757,1741,1737,1741,1757,1817,1909,2030,2154,2258,2338,2418,2454,2466,2462,2454,2442,2426,2406,2382,2382,2350,2310,2266,2206,2154,2114,2086,2057,2038,2018,2005,1985,1961,1937,1925,1909,1901,1893,1881,1865,1857,1845,1833,1813,1801,1821,1873,1961,2094,2238,2374,2490,2566,2610,2642,2658,2658,2638,2610,2574,2538,2502,2454,2390,2326,2282,2230,2186,2138,2106,2073,2049,2038,2022,2001,1985,1965,1945,1921,1893,1857,1821,1781,1741,1705,1653,1601,1561,1545,1581,1645,1749,1869,1985,2086,2150,2178,2182,2174,2158,2130,2106,2077,2053,2013,1957,1897,1841,1793,1749,1701,1669,1641,1617,1597,1589,1589,1589,1585,1565,1545,1533,1513,1493,1477,1473,1477,1485,1485,1489,1489,1493,1521,1593,1709,1865,2018,2142,2234,2270,2282,2278,2266,2246,2214,2174,2138,2082,2026,1969,1921,1877,1849,1825,1809,1797,1793,1793,1793,1785,1777,1769,1761,1749,1741,1733,1729,1729,1721,1713,1713,1709,1701,1697,1709,1757,1849,1953,2090,2214,2314,2378,2414,2422,2414,2394,2370,2346,2314,2278,2242,2194,2138,2086,2034,1993,1969,1949,1937,1933,1933,1925,1917,1909,1905,1901,1901,1889,1881,1873,1857,1845,1833,1805,1781,1773,1793,1861,1965,2090,2206,2302,2390,2442,2454,2450,2430,2414,2398,2374,2350,2310,2266,2218,2166,2118,2082,2057,2034,2009,1989,1969,1945,1925,1909,1905,1901,1893,1881,1869,1857,1837,1825,1809,1801,1789,1777,1781,1805,1873,1973,2106,2234,2358,2438,2478,2506,2522,2522,2514,2502,2486,2458,2422,2382,2346,2294,2234,2174,2130,2073,2034,1997,1973,1957,1949,1933,1905,1877,1849,1825,1797,1769,1749,1725,1709,1693,1681,1665,1661,1701,1773,1877,2034,2198,2358,2490,2574,2614,2634,2630,2614,2594,2578,2542,2498,2438,2378,2306,2234,2170,2110,2057,2018,1985,1953,1925,1909,1889,1865,1837,1809,1777,1753,1737,1721,1701,1669,1633,1605,1585,1573,1577,1617,1709,1813,1949,2090,2214,2302,2338,2330,2294,2246,2198,2138,2065,1997,1941,1865,1781,1705,1625,1553,1497,1437,1389,1353,1325,1305,1297,1289,1281,1277,1265,1253,1237,1217,1201,1193,1189,1189,1189,1185,1173,1157,1153,1177,1253,1365,1521,1685,1845,1969,2042,2069,2082,2069,2057,2030,1997,1965,1953,1989,1953,1913,1873,1841,1809,1781,1757,1745,1745,1757,1765,1761,1757,1753,1745,1741,1741,1741,1741,1741,1741,1741,1729,1713,1705,1713,1749,1817,1913,2022,2150,2266,2346,2390,2410,2410,2398,2378,2346,2314,2278,2246,2198,2150,2110,2069,2034,2009,1985,1965,1957,1957,1957,1957,1949,1945,1937,1929,1917,1905,1897,1885,1873,1869,1865,1861,1853,1853,1877,1941,2042,2166,2274,2386,2478,2530,2546,2538,2518,2494,2470,2434,2394,2350,2314,2278,2226,2170,2122,2086,2061,2038,2013,1993,1977,1965,1961,1953,1945,1933,1921,1913,1901,1897,1885,1873,1861,1845,1825,1821,1841,1901,2001,2126,2254,2354,2434,2498,2538,2554,2550,2542,2522,2502,2478,2450,2414,2374,2326,2278,2226,2154,2077,2022,1985,1957,1925,1909,1897,1873,1845,1817,1793,1777,1761,1745,1729,1721,1709,1693,1673,1657,1661,1689,1773,1901,2073,2250,2414,2518,2594,2638,2666,2682,2678,2654,2606,2554,2498,2442,2378,2318,2258,2194,2134,2086,2042,2005,1985,1957,1937,1917,1889,1857,1833,1805,1785,1769,1753,1733,1713,1693,1665,1637,1613,1605,1629,1697,1829,2001,2178,2330,2450,2510,2538,2534,2498,2438,2358,2282,2190,2094,1997,1889,1777,1681,1601,1509,1425,1345,1285,1253,1237,1225,1209,1197,1193,1193,1197,1193,1181,1165,1149,1133,1125,1109,1093,1077,1061,1053,1073,1129,1245,1405,1581,1749,1873,1957,2013,2042,2046,2026,1997,1969,1981,2038,2022,1985,1937,1901,1857,1829,1805,1801,1809,1817,1817,1817,1817,1817,1817,1817,1817,1817,1809,1809,1805,1801,1801,1801,1793,1781,1773,1785,1817,1881,1977,2098,2214,2314,2374,2406,2414,2402,2374,2346,2322,2294,2262,2218,2166,2118,2073,2034,2001,1981,1969,1961,1965,1969,1969,1965,1957,1957,1949,1945,1929,1901,1869,1837,1817,1805,1793,1781,1769,1769,1797,1853,1941,2061,2190,2302,2390,2450,2486,2498,2494,2478,2458,2430,2402,2374,2346,2318,2278,2234,2194,2166,2142,2122,2102,2094,2094,2094,2094,2094,2090,2077,2057,2038,2018,2001,1993,1985,1981,1973,1965,1953,1953,1989,2065,2166,2266,2378,2482,2558,2606,2630,2634,2630,2618,2602,2570,2510,2466,2418,2358,2298,2242,2186,2138,2082,2034,1997,1973,1945,1917,1905,1901,1897,1885,1865,1841,1813,1789,1769,1753,1737,1729,1733,1745,1769,1829,1949,2110,2250,2398,2522,2606,2658,2682,2690,2678,2666,2650,2634,2602,2554,2494,2434,2362,2278,2198,2126,2065,2005,1945,1885,1829,1785,1749,1705,1661,1613,1569,1529,1501,1461,1429,1397,1365,1341,1317,1309,1309,1349,1445,1593,1753,1897,2022,2114,2174,2202,2210,2202,2190,2166,2126,2065,1997,1945,1881,1813,1757,1697,1649,1609,1585,1565,1553,1549,1541,1541,1541,1537,1525,1521,1517,1517,1521,1513,1493,1473,1449,1429,1429,1457,1529,1661,1821,1985,2098,2194,2246,2262,2258,2242,2210,2174,2138,2110,2061,2013,1965,1921,1877,1837,1805,1781,1761,1753,1753,1757,1749,1745,1741,1745,1741,1729,1717,1701,1677,1669,1665,1657,1649,1645,1649,1665,1709,1801,1921,2057,2190,2282,2326,2342,2330,2310,2286,2258,2238,2206,2170,2122,2069,2022,1977,1937,1901,1877,1857,1841,1829,1821,1813,1805,1793,1781,1769,1757,1749,1725,1705,1721,1685,1513,1333,1965,3423,3927,4055,4087,4095,4095,4095,4095,4095,4095,4095,4095,4095,4095,4095,4095,4095,4095,4095,4095,4095,4095,4011,3831,3687,3759,3771,2802,889,220,52,12,0,0,0,0,0,0,0,0,0,0,0,0,0,0,0,0,68,232,396,544,668,773,857,925,989,1049,1297,1793,1921,1953,1961,1965,1969,1969,1973,1973,1977,1977,1981,1981,1981,1985,1985,1985,1985,1989,1989,1989,1989,1989,1989,1989,1989,1993,1997,2005,2018,2030,2038,2046,2053,2053,2057,2057,2053,2053,2049,2046,2042,2038,2030,2026,2022,2018,2013,2009,2005,2005,2001,2001,1997,1997,1997,1997,1997,1993,1993,1993,1989,1989,1989,1989,1989,1989,1989,1989,1989,1993,1997,2005,2018,2026,2034,2042,2042,2042,2042,2042,2038,2034,2034,2030,2030,2026,2022,2018,2013,2013,2009,2009,2005,2005,2005,2005,2005,2005,2005,2005,2005,2005,2005,2005,2005,2001,2001,2001,2001,2001,2001,2001,2005,2013,2026,2034,2042,2049,2053,2053,2053,2049,2049,2046,2042,2042,2118,2270,2274,2238,2206,2186,2162,2142,2126,2126,2134,2146,2158,2166,2158,2142,2122,2114,2102,2090,2077,2065,2053,2046,2034,2018,2013,2053,2146,2266,2378,2490,2566,2614,2634,2634,2614,2594,2566,2538,2506,2470,2426,2378,2338,2294,2250,2214,2190,2174,2162,2150,2138,2126,2118,2114,2118,2110,2102,2090,2077,2061,2038,2013,2005,1993,1993,1997,2022,2082,2178,2298,2414,2502,2582,2634,2662,2670,2666,2650,2626,2598,2574,2546,2510,2466,2422,2382,2346,2314,2286,2262,2238,2218,2194,2182,2174,2182,2182,2178,2166,2154,2142,2126,2110,2090,2069,2053,2038,2038,2061,2118,2210,2330,2450,2558,2638,2686,2718,2726,2730,2726,2714,2694,2670,2638,2586,2538,2430,2238,2134,2061,2009,1965,1925,1889,1857,1837,1817,1797,1773,1757,1741,1725,1697,1649,1597,1541,1497,1461,1421,1381,1349,1373,1445,1565,1725,1885,2022,2118,2174,2198,2194,2178,2146,2106,2069,2034,1981,1913,1841,1777,1713,1661,1601,1541,1497,1473,1465,1469,1469,1457,1453,1453,1453,1441,1429,1413,1397,1381,1369,1365,1357,1329,1301,1293,1321,1401,1525,1709,1909,2086,2222,2314,2346,2342,2318,2286,2250,2198,2146,2082,2009,1933,1853,1785,1733,1693,1657,1633,1613,1597,1581,1577,1573,1565,1557,1541,1529,1517,1501,1481,1461,1453,1453,1457,1445,1437,1449,1505,1637,1817,2005,2206,2370,2470,2514,2522,2506,2474,2438,2398,2358,2310,2258,2198,2142,2138,2102,2069,2046,2018,1993,1989,1977,1961,1957,1957,1949,1937,1921,1905,1893,1881,1869,1853,1837,1821,1801,1793,1813,1877,1985,2138,2302,2414,2522,2594,2638,2650,2650,2638,2610,2578,2534,2478,2418,2354,2294,2234,2178,2130,2082,2042,2009,1977,1949,1941,1937,1933,1933,1921,1905,1889,1873,1853,1841,1829,1813,1793,1765,1749,1765,1825,1929,2077,2242,2402,2530,2618,2678,2718,2738,2742,2730,2706,2670,2634,2578,2522,2458,2410,2362,2314,2266,2218,2182,2150,2134,2118,2094,2073,2057,2034,2013,1985,1957,1937,1913,1893,1881,1869,1849,1829,1809,1801,1821,1901,2042,2218,2394,2542,2642,2706,2750,2766,2758,2746,2718,2678,2642,2594,2522,2434,2290,2090,1985,1905,1841,1777,1725,1689,1653,1621,1597,1577,1541,1509,1485,1461,1441,1413,1385,1369,1357,1333,1305,1277,1261,1257,1277,1341,1449,1593,1749,1901,2018,2114,2182,2214,2214,2198,2174,2134,2090,2038,1973,1913,1857,1801,1737,1685,1637,1593,1569,1553,1537,1525,1509,1489,1473,1473,1469,1469,1461,1441,1413,1405,1389,1377,1377,1369,1357,1357,1361,1389,1461,1577,1733,1881,2001,2110,2174,2194,2174,2134,2098,2053,2009,1957,1897,1837,1781,1721,1669,1621,1577,1545,1529,1517,1517,1513,1513,1525,1537,1533,1521,1509,1501,1497,1497,1497,1497,1497,1489,1469,1461,1465,1493,1569,1693,1849,2018,2158,2266,2354,2406,2414,2394,2370,2338,2306,2294,2318,2294,2262,2222,2178,2146,2118,2094,2073,2069,2073,2082,2082,2082,2082,2077,2061,2042,2022,1997,1973,1961,1953,1941,1929,1917,1917,1925,1949,2001,2090,2206,2330,2442,2514,2566,2594,2598,2590,2578,2554,2530,2506,2478,2434,2382,2338,2302,2266,2226,2190,2158,2134,2110,2094,2086,2086,2086,2073,2057,2038,2013,1989,1973,1957,1945,1937,1929,1917,1905,1893,1905,1953,2049,2170,2298,2410,2494,2534,2562,2570,2566,2554,2538,2514,2490,2454,2406,2342,2286,2242,2202,2162,2126,2090,2053,2026,2005,1997,1997,1985,1965,1949,1937,1925,1909,1893,1873,1857,1849,1837,1825,1809,1805,1837,1897,1993,2118,2242,2350,2438,2494,2522,2534,2530,2510,2490,2434,2338,2290,2242,2198,2154,2102,2057,2013,1981,1953,1933,1921,1905,1881,1853,1833,1821,1801,1789,1773,1753,1721,1685,1641,1605,1581,1553,1529,1505,1497,1521,1581,1669,1773,1877,1961,2022,2049,2061,2065,2057,2042,2018,1989,1965,1921,1873,1817,1765,1729,1697,1657,1621,1589,1573,1569,1573,1573,1577,1577,1577,1577,1577,1577,1569,1553,1537,1525,1517,1505,1497,1489,1497,1541,1621,1729,1861,1981,2069,2126,2154,2158,2150,2126,2090,2053,2005,1961,1913,1861,1813,1769,1729,1701,1677,1661,1649,1653,1657,1657,1653,1641,1629,1617,1609,1597,1593,1589,1585,1585,1585,1577,1577,1573,1577,1609,1689,1817,1941,2069,2178,2250,2282,2282,2266,2242,2206,2210,2258,2242,2206,2166,2122,2069,2018,1981,1953,1933,1921,1913,1909,1909,1909,1909,1901,1885,1877,1865,1849,1825,1797,1777,1761,1749,1733,1721,1729,1773,1869,2001,2134,2250,2330,2386,2418,2422,2402,2374,2342,2310,2270,2226,2186,2142,2106,2061,2013,1969,1929,1905,1889,1881,1877,1877,1865,1861,1853,1849,1837,1825,1809,1797,1781,1777,1769,1753,1741,1729,1753,1809,1913,2053,2206,2346,2450,2506,2534,2546,2550,2550,2538,2514,2486,2438,2386,2338,2298,2254,2218,2178,2130,2090,2057,2030,2018,2018,2013,1997,1969,1941,1921,1909,1893,1885,1873,1857,1845,1833,1817,1805,1809,1857,1941,2053,2198,2338,2454,2538,2578,2590,2602,2598,2586,2570,2542,2490,2406,2346,2290,2238,2186,2122,2065,2001,1937,1865,1789,1725,1673,1613,1549,1489,1433,1381,1349,1305,1269,1241,1221,1205,1197,1185,1169,1169,1205,1297,1433,1589,1757,1909,2026,2090,2110,2110,2106,2090,2069,2034,1997,1961,1913,1853,1789,1725,1661,1617,1569,1537,1525,1521,1521,1521,1521,1521,1521,1521,1513,1505,1501,1493,1489,1485,1473,1449,1441,1433,1441,1493,1597,1753,1909,2073,2198,2274,2302,2302,2278,2258,2222,2178,2126,2061,2001,1949,1885,1821,1773,1737,1717,1705,1693,1693,1701,1713,1709,1701,1685,1661,1637,1613,1593,1573,1541,1509,1481,1461,1445,1445,1469,1529,1641,1809,1993,2158,2278,2378,2438,2458,2454,2438,2414,2370,2314,2306,2350,2334,2306,2270,2234,2190,2142,2094,2057,2034,2022,2018,2013,2013,2009,2001,1989,1973,1953,1937,1921,1913,1905,1897,1885,1881,1905,1961,2049,2170,2302,2418,2506,2558,2578,2582,2566,2546,2514,2482,2442,2398,2362,2314,2262,2210,2166,2118,2082,2049,2026,2009,2001,1985,1965,1953,1941,1929,1921,1917,1909,1885,1857,1829,1817,1817,1817,1825,1857,1933,2046,2154,2278,2390,2490,2558,2594,2602,2598,2598,2598,2586,2562,2522,2474,2430,2386,2342,2298,2262,2230,2202,2174,2150,2126,2102,2082,2077,2073,2057,2038,2018,2005,1989,1977,1957,1937,1913,1897,1889,1909,1981,2094,2230,2358,2454,2542,2598,2622,2630,2630,2618,2602,2570,2522,2462,2394,2298,2142,2046,1965,1897,1829,1777,1713,1657,1613,1577,1545,1517,1505,1477,1449,1417,1393,1373,1365,1353,1337,1309,1289,1277,1289,1321,1413,1557,1729,1889,2001,2086,2138,2146,2138,2126,2098,2057,2022,1973,1913,1841,1777,1725,1665,1605,1561,1537,1529,1533,1541,1545,1545,1545,1537,1541,1541,1533,1529,1521,1501,1481,1469,1457,1453,1445,1445,1469,1541,1677,1837,1985,2102,2182,2230,2246,2230,2198,2158,2114,2073,2034,1993,1937,1877,1817,1773,1725,1689,1665,1649,1649,1657,1673,1681,1677,1665,1653,1641,1633,1605,1577,1557,1545,1545,1545,1545,1545,1553,1609,1729,1865,2026,2174,2282,2350,2378,2378,2354,2322,2286,2250,2214,2170,2110,2046,1981,1969,2034,2022,2005,1977,1949,1929,1909,1897,1893,1901,1897,1889,1869,1837,1817,1797,1789,1785,1781,1773,1773,1777,1797,1853,1961,2110,2266,2378,2474,2542,2582,2598,2594,2574,2558,2542,2522,2486,2438,2386,2334,2286,2242,2210,2178,2154,2126,2102,2090,2069,2053,2042,2034,2018,2005,1989,1977,1961,1949,1937,1925,1909,1897,1889,1905,1961,2061,2202,2354,2494,2606,2682,2742,2770,2778,2766,2738,2698,2666,2638,2610,2574,2522,2462,2402,2346,2298,2258,2222,2198,2182,2170,2154,2134,2106,2082,2057,2038,2018,2005,1989,1977,1965,1949,1933,1917,1905,1925,1969,2049,2166,2290,2414,2510,2574,2610,2618,2610,2582,2530,2486,2442,2394,2338,2262,2194,2134,2018,1825,1741,1689,1641,1597,1569,1553,1549,1549,1549,1549,1549,1529,1505,1481,1465,1453,1437,1429,1413,1389,1361,1341,1341,1373,1457,1585,1745,1909,2046,2146,2210,2238,2242,2230,2214,2186,2146,2094,2042,1989,1937,1889,1837,1785,1745,1717,1701,1685,1673,1661,1649,1645,1641,1637,1629,1617,1601,1577,1561,1549,1549,1545,1529,1505,1485,1481,1513,1581,1697,1853,2013,2154,2254,2314,2354,2358,2338,2310,2282,2246,2206,2162,2114,2049,1985,1929,1877,1841,1809,1785,1777,1773,1773,1773,1773,1773,1761,1749,1741,1725,1697,1665,1641,1617,1597,1581,1561,1553,1557,1597,1665,1785,1937,2098,2246,2358,2422,2454,2454,2450,2438,2414,2382,2346,2298,2246,2222,2230,2186,2142,2110,2077,2049,2022,1993,1969,1949,1937,1933,1933,1925,1921,1917,1905,1885,1865,1849,1837,1821,1809,1793,1793,1817,1885,1981,2118,2258,2394,2506,2594,2642,2674,2682,2674,2662,2646,2622,2586,2550,2502,2454,2398,2350,2302,2262,2226,2194,2166,2146,2134,2126,2114,2086,2065,2053,2049,2042,2026,1989,1957,1933,1925,1913,1901,1885,1889,1925,1989,2102,2246,2402,2542,2654,2722,2754,2766,2766,2754,2730,2702,2674,2638,2590,2538,2486,2434,2382,2330,2270,2206,2146,2094,2049,1997,1949,1905,1861,1813,1761,1721,1681,1645,1613,1581,1553,1533,1521,1505,1493,1477,1481,1521,1597,1713,1861,2013,2174,2258,2334,2382,2402,2406,2402,2374,2314,2218,2170,2130,2086,2046,2005,1965,1925,1889,1861,1845,1837,1837,1837,1833,1825,1817,1809,1801,1793,1785,1773,1761,1753,1745,1733,1725,1713,1709,1721,1777,1865,1973,2090,2190,2254,2306,2330,2338,2338,2326,2298,2262,2218,2170,2118,2073,2034,1997,1961,1925,1905,1889,1889,1897,1901,1901,1897,1889,1881,1869,1857,1841,1829,1817,1801,1777,1749,1729,1717,1709,1717,1749,1845,1961,2098,2222,2314,2374,2410,2430,2426,2422,2398,2378,2342,2302,2258,2218,2186,2150,2106,2069,2042,2026,2013,2005,2001,1997,1989,1981,1969,1953,1937,1913,1893,1869,1849,1837,1825,1813,1801,1801,1813,1833,1881,1969,2134,2238,2342,2430,2482,2518,2542,2546,2542,2530,2506,2474,2442,2386,2330,2278,2234,2178,2134,2098,2065,2042,2013,1989,1973,1957,1945,1933,1929,1925,1913,1889,1865,1833,1805,1785,1769,1753,1753,1785,1857,1953,2082,2230,2374,2506,2598,2650,2682,2702,2706,2702,2682,2654,2614,2566,2514,2454,2394,2342,2294,2242,2198,2162,2138,2118,2102,2082,2057,2026,1989,1965,1949,1937,1921,1897,1873,1845,1817,1789,1773,1773,1797,1861,1961,2077,2222,2362,2486,2562,2598,2594,2574,2542,2506,2454,2382,2322,2254,2178,2094,2005,1925,1853,1789,1741,1701,1665,1637,1617,1597,1573,1549,1537,1533,1529,1517,1497,1473,1449,1429,1417,1401,1389,1377,1381,1397,1453,1541,1673,1825,1969,2082,2154,2190,2198,2166,2146,2130,2110,2086,2049,2005,1965,1925,1885,1853,1829,1809,1785,1761,1745,1737,1741,1737,1729,1713,1701,1685,1677,1669,1665,1657,1641,1625,1613,1605,1593,1589,1609,1657,1745,1837,1941,2042,2118,2158,2174,2174,2162,2142,2118,2090,2053,2013,1981,1941,1901,1861,1833,1813,1797,1789,1777,1773,1777,1789,1797,1797,1793,1785,1777,1769,1761,1749,1729,1717,1701,1689,1685,1689,1705,1753,1829,1925,2026,2110,2190,2242,2266,2266,2254,2238,2218,2194,2158,2130,2094,2057,2018,1977,1937,1901,1877,1861,1845,1837,1825,1817,1805,1797,1789,1781,1773,1761,1753,1737,1721,1701,1693,1689,1689,1697,1713,1761,1845,1945,2049,2154,2226,2282,2310,2322,2322,2462,2510,2506,2482,2454,2410,2354,2298,2250,2198,2150,2106,2069,2042,2018,1997,1981,1977,1973,1961,1941,1917,1893,1877,1861,1845,1821,1805,1785,1765,1753,1761,1809,1897,2038,2198,2342,2462,2550,2598,2622,2638,2638,2626,2602,2566,2530,2494,2442,2378,2318,2274,2238,2194,2142,2094,2057,2030,2005,1977,1941,1905,1873,1837,1805,1769,1725,1681,1637,1601,1577,1553,1521,1489,1481,1505,1569,1681,1829,1985,2126,2230,2286,2306,2310,2302,2290,2274,2246,2214,2170,2110,2046,1973,1901,1853,1805,1761,1725,1701,1685,1681,1681,1681,1681,1681,1681,1677,1665,1657,1649,1641,1629,1617,1609,1605,1601,1605,1629,1693,1785,1921,2069,2202,2294,2342,2350,2342,2290,2250,2222,2190,2154,2110,2065,2013,1961,1909,1873,1853,1837,1825,1813,1805,1805,1801,1797,1789,1777,1761,1741,1729,1717,1705,1693,1681,1673,1657,1641,1633,1641,1693,1797,1921,2049,2182,2290,2366,2414,2430,2430,2418,2402,2370,2330,2286,2250,2202,2150,2102,2061,2030,2001,1977,1953,1929,1917,1913,1905,1897,1885,1873,1865,1841,1821,1809,1801,1785,1761,1729,1705,1701,1717,1769,1861,1981,2106,2198,2278,2342,2382,2402,2402,2386,2366,2342,2314,2274,2226,2182,2142,2090,2042,1997,1961,1929,1905,1893,1881,1869,1857,1849,1845,1849,1849,1837,1821,1793,1769,1753,1741,1725,1713,1713,1721,1753,1829,1937,2061,2186,2302,2378,2430,2458,2462,2454,2526,2550,2530,2502,2458,2398,2326,2262,2210,2150,2098,2053,2018,1989,1961,1929,1901,1881,1853,1833,1825,1813,1801,1781,1761,1745,1733,1709,1677,1641,1613,1605,1637,1717,1861,2038,2218,2366,2462,2518,2554,2574,2574,2566,2542,2506,2462,2406,2346,2282,2218,2158,2090,2022,1937,1861,1805,1765,1721,1673,1625,1577,1529,1493,1469,1437,1409,1377,1341,1317,1301,1277,1249,1225,1205,1205,1237,1313,1433,1597,1769,1921,2026,2102,2150,2178,2174,2150,2110,2073,2038,1985,1933,1877,1829,1789,1725,1661,1617,1597,1593,1589,1589,1589,1589,1589,1581,1577,1569,1557,1549,1545,1537,1525,1513,1497,1485,1461,1445,1445,1477,1565,1705,1881,2046,2182,2262,2314,2382,2398,2386,2358,2326,2290,2250,2206,2154,2102,2053,2013,1977,1953,1937,1921,1917,1925,1933,1937,1937,1929,1917,1905,1897,1881,1869,1845,1825,1813,1805,1797,1789,1789,1793,1813,1881,2005,2154,2302,2430,2518,2562,2586,2594,2578,2554,2530,2494,2446,2402,2346,2282,2226,2190,2154,2118,2090,2061,2038,2018,2001,1981,1977,1977,1965,1957,1949,1937,1917,1889,1861,1837,1821,1805,1797,1797,1805,1833,1889,1997,2138,2282,2398,2486,2538,2574,2590,2594,2578,2558,2530,2506,2470,2426,2370,2314,2258,2222,2190,2162,2138,2114,2090,2065,2042,2026,2009,2001,1993,1985,1973,1961,1949,1937,1921,1909,1901,1889,1877,1881,1905,1973,2073,2206,2350,2482,2590,2646,2670,2690,2698,2686,2666,2626,2582,2538,2486,2430,2366,2290,2214,2150,2090,2042,2005,1969,1937,1909,1885,1857,1829,1801,1781,1765,1745,1729,1701,1673,1653,1637,1605,1561,1513,1497,1521,1585,1705,1861,2022,2158,2266,2318,2330,2318,2298,2278,2246,2202,2138,2061,1985,1917,1845,1777,1733,1685,1633,1581,1533,1505,1493,1489,1489,1485,1477,1461,1437,1421,1401,1389,1373,1357,1345,1325,1297,1261,1237,1233,1277,1369,1525,1721,1909,2057,2166,2226,2262,2282,2274,2238,2186,2126,2061,2001,1933,1861,1797,1737,1685,1625,1577,1549,1529,1509,1497,1493,1489,1485,1469,1457,1449,1441,1433,1429,1429,1429,1417,1397,1365,1341,1345,1405,1509,1657,1853,2082,2246,2342,2390,2406,2406,2394,2374,2350,2322,2286,2250,2206,2146,2086,2038,2009,1981,1953,1925,1897,1873,1857,1849,1841,1833,1825,1813,1801,1777,1745,1721,1701,1685,1673,1673,1669,1673,1701,1781,1897,2009,2130,2242,2318,2362,2370,2354,2330,2294,2262,2222,2182,2142,2106,2061,2005,1941,1877,1829,1805,1789,1773,1761,1745,1733,1733,1733,1725,1713,1697,1685,1677,1665,1649,1633,1625,1617,1617,1621,1653,1725,1841,1985,2118,2214,2298,2358,2390,2402,2406,2398,2382,2346,2306,2266,2226,2190,2154,2118,2073,2026,1981,1945,1917,1901,1889,1885,1881,1873,1865,1853,1845,1845,1841,1829,1817,1809,1793,1781,1765,1765,1785,1841,1941,2073,2214,2330,2562,2690,2758,2778,2778,2770,2738,2698,2646,2586,2530,2470,2410,2354,2286,2210,2150,2094,2053,2022,2005,1985,1949,1913,1877,1853,1817,1777,1721,1661,1605,1557,1529,1489,1449,1413,1377,1381,1429,1537,1697,1873,2038,2158,2222,2254,2258,2238,2206,2182,2158,2126,2073,2001,1921,1845,1769,1697,1633,1577,1533,1501,1493,1497,1505,1509,1509,1505,1489,1469,1449,1429,1405,1389,1385,1385,1389,1393,1385,1373,1385,1441,1549,1721,1909,2069,2170,2214,2218,2198,2170,2138,2102,2061,2030,1989,1933,1869,1809,1753,1713,1681,1649,1625,1609,1617,1633,1645,1637,1621,1593,1565,1557,1553,1545,1541,1541,1525,1505,1497,1485,1481,1493,1541,1649,1789,1981,2182,2294,2370,2410,2418,2402,2378,2354,2322,2278,2230,2190,2146,2098,2042,1977,1925,1893,1873,1861,1869,1873,1873,1877,1869,1857,1849,1837,1825,1809,1801,1785,1769,1749,1725,1701,1693,1697,1737,1833,1965,2114,2234,2342,2430,2494,2518,2510,2486,2454,2410,2370,2330,2286,2238,2178,2122,2069,2022,1977,1941,1913,1885,1865,1857,1853,1853,1853,1853,1853,1845,1833,1809,1789,1769,1753,1737,1721,1705,1705,1729,1805,1929,2086,2254,2390,2494,2574,2610,2630,2622,2610,2590,2570,2542,2502,2446,2386,2338,2286,2218,2162,2118,2082,2057,2034,2005,1989,1981,1973,1957,1937,1917,1893,1873,1857,1845,1833,1817,1797,1777,1761,1749,1769,1845,1973,2134,2298,2442,2526,2614,2670,2686,2674,2646,2602,2566,2526,2478,2410,2346,2286,2218,2130,2049,1993,1949,1913,1877,1845,1813,1785,1761,1749,1733,1709,1685,1649,1605,1553,1497,1429,1365,1305,1249,1197,1161,1145,1177,1277,1437,1617,1781,1893,1973,2009,2005,2001,1997,1993,1965,1929,1889,1829,1757,1681,1605,1517,1449,1397,1357,1337,1333,1325,1313,1313,1321,1325,1329,1313,1285,1249,1217,1201,1197,1181,1157,1137,1121,1113,1113,1117,1153,1261,1437,1653,1841,1977,2090,2150,2178,2170,2146,2106,2049,1993,1925,1853,1769,1697,1641,1581,1533,1493,1465,1445,1429,1413,1405,1405,1405,1405,1397,1385,1377,1369,1349,1329,1317,1309,1297,1265,1229,1193,1173,1185,1253,1561,1789,1973,2110,2226,2306,2334,2338,2330,2322,2306,2294,2270,2234,2174,2122,2086,2049,2009,1965,1929,1909,1905,1901,1901,1901,1901,1901,1897,1893,1881,1869,1857,1853,1853,1853,1845,1833,1821,1809,1817,1845,1921,2046,2206,2362,2486,2550,2594,2614,2610,2594,2574,2546,2518,2482,2434,2378,2330,2290,2250,2202,2158,2118,2090,2061,2038,2018,2009,2001,1981,1957,1933,1909,1893,1877,1865,1845,1825,1801,1789,1773,1761,1785,1841,1945,2086,2238,2378,2498,2578,2630,2666,2686,2686,2674,2658,2638,2610,2570,2542,2498,2450,2398,2342,2294,2254,2218,2194,2174,2158,2134,2110,2082,2057,2049,2034,2022,2001,1981,1957,1925,1901,1885,1877,1893,1933,2026,2042,2154,2306,2442,2538,2602,2626,2634,2626,2610,2586,2558,2522,2478,2422,2366,2306,2250,2186,2138,2090,2046,2001,1973,1961,1949,1941,1917,1893,1865,1833,1809,1785,1765,1749,1741,1729,1713,1685,1657,1653,1693,1769,1873,1973,2073,2162,2214,2234,2222,2198,2158,2110,2049,1985,1929,1881,1825,1765,1717,1661,1605,1557,1509,1469,1437,1405,1381,1369,1353,1337,1313,1297,1277,1265,1257,1245,1229,1221,1209,1205,1201,1201,1213,1245,1309,1425,1549,1689,1829,1933,1989,2005,2001,1981,1957,1929,1897,1845,1805,1761,1717,1669,1613,1557,1521,1513,1513,1517,1521,1521,1521,1521,1521,1521,1521,1521,1509,1489,1477,1461,1449,1441,1425,1409,1405,1421,1489,1729,1893,2013,2090,2150,2190,2210,2214,2206,2186,2158,2130,2102,2082,2053,2018,1981,1941,1909,1889,1873,1869,1877,1885,1889,1893,1889,1881,1877,1873,1865,1861,1853,1845,1841,1837,1833,1821,1813,1825,1861,1941,2049,2158,2254,2326,2366,2386,2394,2394,2378,2358,2338,2310,2274,2230,2182,2134,2090,2061,2030,1997,1965,1933,1917,1909,1913,1913,1913,1909,1905,1897,1885,1869,1853,1841,1825,1805,1793,1777,1773,1801,1865,1957,2053,2150,2238,2310,2358,2382,2386,2374,2354,2334,2314,2294,2262,2230,2202,2170,2134,2098,2065,2042,2018,2001,1993,1989,1977,1965,1945,1929,1925,1921,1913,1909,1897,1889,1877,1861,1849,1845,1861,1913,1997,2102,2206,2290,2454,2570,2634,2666,2666,2650,2610,2570,2526,2466,2406,2342,2290,2226,2166,2098,2030,1977,1941,1917,1901,1881,1857,1825,1797,1781,1765,1749,1729,1705,1681,1665,1633,1597,1557,1541,1569,1637,1765,1941,2122,2282,2406,2474,2510,2514,2486,2442,2382,2318,2250,2170,2069,1969,1869,1785,1717,1645,1585,1537,1489,1453,1433,1429,1429,1429,1421,1405,1393,1381,1357,1325,1293,1273,1265,1265,1253,1237,1225,1237,1285,1377,1525,1697,1865,2009,2106,2146,2166,2158,2142,2110,2069,2038,1985,1925,1857,1805,1753,1709,1669,1625,1601,1581,1565,1553,1557,1561,1561,1545,1529,1513,1497,1485,1473,1469,1465,1461,1457,1453,1453,1453,1477,1549,1673,1821,1993,2146,2258,2310,2326,2318,2298,2266,2238,2210,2182,2150,2118,2077,2038,1989,1945,1917,1901,1889,1889,1897,1909,1925,1929,1921,1913,1901,1889,1877,1869,1857,1849,1837,1825,1809,1801,1793,1809,1869,1969,2086,2190,2286,2366,2414,2442,2454,2446,2430,2406,2370,2330,2290,2254,2210,2162,2114,2073,2038,2001,1977,1957,1941,1929,1917,1909,1905,1901,1893,1881,1869,1853,1841,1829,1817,1805,1793,1781,1769,1777,1813,1893,2005,2134,2254,2342,2418,2470,2494,2502,2494,2482,2470,2450,2426,2390,2346,2306,2270,2230,2190,2154,2122,2098,2077,2057,2046,2034,2030,2026,2022,2005,1989,1965,1945,1929,1921,1905,1889,1869,1849,1837,1841,1877,1957,2073,2206,2330,2422,2534,2626,2686,2730,2746,2734,2698,2662,2618,2570,2522,2470,2410,2338,2266,2210,2158,2114,2077,2053,2022,1993,1965,1937,1909,1885,1865,1841,1813,1785,1761,1741,1717,1693,1673,1653,1641,1649,1709,1813,1957,2102,2238,2326,2402,2454,2466,2446,2398,2346,2286,2234,2182,2122,2046,1981,1905,1817,1749,1693,1645,1601,1569,1545,1525,1521,1521,1521,1521,1509,1485,1461,1445,1421,1405,1393,1385,1369,1345,1321,1297,1297,1325,1413,1561,1749,1929,2069,2190,2274,2318,2326,2310,2274,2230,2182,2134,2082,2018,1961,1901,1841,1781,1737,1709,1693,1677,1665,1665,1657,1645,1637,1625,1609,1593,1577,1561,1549,1537,1517,1501,1481,1473,1457,1453,1473,1537,1661,1869,2042,2158,2250,2318,2354,2370,2370,2358,2338,2318,2286,2246,2202,2154,2110,2069,2038,2009,1985,1965,1957,1949,1945,1945,1949,1949,1949,1945,1929,1901,1881,1865,1853,1845,1841,1829,1817,1809,1821,1853,1921,2030,2154,2270,2366,2422,2462,2490,2494,2474,2446,2418,2390,2366,2318,2262,2210,2170,2130,2090,2057,2030,2005,1985,1965,1945,1933,1917,1909,1897,1885,1869,1857,1845,1837,1825,1817,1809,1797,1781,1773,1789,1849,1929,2053,2190,2314,2418,2486,2530,2558,2570,2570,2562,2542,2518,2486,2454,2406,2362,2318,2274,2234,2194,2158,2122,2094,2073,2053,2034,2026,2022,2013,1997,1981,1961,1937,1909,1885,1873,1861,1849,1837,1833,1853,1913,1989,2018,2134,2274,2398,2490,2542,2578,2586,2570,2550,2534,2506,2466,2410,2346,2290,2226,2154,2098,2042,1989,1945,1905,1881,1865,1857,1841,1817,1789,1761,1737,1713,1685,1657,1629,1605,1573,1537,1485,1441,1413,1425,1477,1569,1697,1829,1941,2030,2090,2114,2114,2106,2090,2053,2005,1949,1881,1829,1777,1721,1669,1625,1577,1521,1481,1457,1445,1441,1441,1449,1449,1441,1421,1397,1385,1381,1377,1365,1345,1325,1309,1285,1261,1245,1241,1273,1341,1461,1613,1765,1901,2009,2082,2118,2130,2114,2094,2065,2030,1989,1933,1877,1817,1757,1689,1649,1609,1573,1553,1541,1541,1541,1529,1517,1501,1489,1473,1461,1449,1437,1433,1425,1417,1413,1401,1389,1365,1345,1521,1645,1741,1857,1981,2102,2198,2266,2298,2314,2314,2298,2278,2250,2214,2182,2146,2098,2046,2001,1969,1945,1921,1897,1885,1873,1865,1861,1861,1861,1853,1845,1829,1813,1797,1785,1773,1761,1745,1721,1705,1697,1701,1729,1789,1869,1965,2082,2190,2278,2338,2362,2370,2362,2346,2330,2298,2274,2238,2202,2170,2134,2082,2038,2009,1985,1973,1957,1945,1929,1917,1905,1897,1885,1877,1865,1857,1849,1833,1817,1805,1797,1785,1777,1773,1789,1829,1905,2013,2122,2238,2350,2446,2518,2562,2578,2570,2554,2534,2522,2514,2498,2462,2414,2362,2306,2262,2218,2190,2162,2134,2110,2094,2073,2057,2046,2030,2009,1993,1981,1969,1957,1937,1913,1889,1869,1857,1849,1805,1817,1897,2018,2154,2250,2346,2438,2502,2534,2546,2538,2518,2482,2434,2370,2302,2238,2170,2098,2026,1953,1881,1821,1769,1729,1685,1649,1617,1597,1585,1569,1557,1545,1529,1513,1501,1481,1469,1449,1437,1425,1417,1413,1425,1469,1553,1673,1801,1913,2022,2106,2154,2170,2170,2154,2134,2114,2082,2046,1997,1957,1909,1857,1809,1773,1737,1713,1685,1661,1649,1637,1637,1633,1629,1617,1617,1609,1593,1585,1585,1581,1577,1565,1553,1533,1525,1533,1577,1665,1793,1929,2034,2118,2166,2186,2186,2174,2154,2142,2122,2082,2030,1977,1925,1877,1825,1785,1749,1713,1681,1669,1657,1645,1629,1621,1617,1613,1605,1593,1577,1565,1549,1537,1533,1529,1529,1553,1625,1665,1725,1821,1941,2042,2166,2238,2278,2298,2306,2310,2298,2274,2242,2214,2186,2158,2118,2069,2034,1997,1965,1945,1925,1905,1893,1881,1869,1861,1849,1841,1833,1821,1809,1797,1785,1765,1745,1729,1721,1721,1729,1757,1821,1901,2013,2130,2234,2310,2354,2366,2378,2386,2386,2374,2354,2330,2294,2258,2218,2182,2150,2118,2090,2057,2034,2009,1993,1981,1977,1969,1957,1949,1945,1929,1917,1897,1881,1869,1861,1849,1845,1849,1857,1877,1925,2009,2106,2194,2290,2358,2398,2414,2418,2406,2394,2370,2350,2322,2282,2234,2182,2134,2094,2057,2034,2009,1985,1965,1945,1925,1909,1893,1881,1877,1877,1873,1869,1861,1849,1825,1801,1781,1765,1749,1741,1733,1749,1833,1965,2114,2234,2338,2414,2454,2470,2466,2466,2458,2442,2410,2362,2314,2266,2226,2170,2118,2065,2018,1969,1925,1873,1833,1797,1769,1737,1705,1669,1637,1605,1577,1549,1533,1513,1489,1461,1441,1433,1437,1453,1513,1613,1741,1881,2001,2082,2138,2166,2170,2158,2134,2102,2065,2034,1997,1949,1893,1845,1797,1749,1705,1665,1641,1629,1629,1629,1637,1641,1641,1641,1641,1637,1633,1625,1609,1593,1589,1581,1569,1557,1545,1545,1573,1633,1737,1869,1997,2102,2166,2190,2186,2170,2142,2110,2073,2046,2018,1969,1909,1845,1801,1765,1737,1709,1689,1673,1657,1649,1641,1641,1641,1641,1641,1641,1641,1641,1641,1641,1641,1641,1637,1629,1621,1629,1681,1813,1941,2114,2282,2410,2482,2510,2506,2482,2450,2418,2382,2346,2306,2258,2202,2146,2086,2030,1985,1953,1933,1913,1893,1877,1865,1853,1845,1837,1829,1817,1805,1793,1773,1749,1725,1705,1685,1681,1681,1705,1761,1869,2009,2158,2278,2382,2458,2498,2506,2498,2474,2446,2410,2374,2334,2290,2250,2210,2170,2134,2086,2042,2005,1977,1949,1933,1929,1925,1921,1925,1921,1905,1893,1877,1865,1853,1841,1825,1793,1761,1741,1749,1797,1897,2042,2202,2346,2446,2530,2590,2610,2614,2614,2610,2590,2554,2502,2446,2394,2350,2306,2250,2202,2158,2126,2094,2069,2042,2013,1997,1985,1965,1945,1933,1925,1917,1909,1897,1889,1877,1849,1821,1785,1749,1729,1729,1737,1765,1905,2057,2178,2246,2286,2294,2278,2238,2190,2154,2110,2065,2022,1953,1877,1801,1729,1661,1597,1541,1501,1481,1465,1449,1445,1449,1453,1453,1441,1425,1413,1389,1353,1321,1309,1297,1285,1273,1249,1233,1241,1289,1405,1577,1789,1985,2134,2226,2294,2326,2326,2310,2282,2242,2194,2142,2082,2009,1933,1869,1797,1737,1685,1657,1649,1653,1657,1653,1637,1617,1601,1585,1573,1557,1537,1517,1489,1461,1449,1437,1425,1421,1429,1489,1577,1737,1933,2130,2294,2406,2458,2478,2466,2434,2394,2342,2290,2238,2182,2126,2073,2018,1953,1897,1853,1817,1809,1805,1805,1805,1805,1793,1781,1769,1753,1741,1733,1733,1737,1733,1717,1697,1665,1641,1649,1721,1901,2166,2350,2526,2662,2746,2786,2790,2774,2758,2746,2718,2690,2642,2586,2526,2470,2418,2358,2290,2234,2186,2146,2114,2086,2073,2061,2049,2026,1997,1977,1961,1945,1933,1917,1893,1857,1829,1805,1797,1805,1861,1973,2138,2314,2462,2598,2694,2742,2750,2746,2746,2738,2718,2686,2646,2594,2534,2482,2422,2366,2302,2242,2194,2162,2142,2138,2138,2122,2098,2077,2057,2038,2018,1997,1977,1965,1949,1925,1905,1889,1873,1889,1941,2046,2202,2374,2538,2674,2762,2826,2858,2862,2854,2842,2814,2774,2730,2670,2606,2542,2486,2438,2390,2338,2290,2246,2226,2210,2202,2182,2154,2114,2073,2030,1989,1941,1893,1845,1797,1753,1709,1661,1621,1585,1573,1601,1689,1793,1869,1993,2102,2182,2230,2258,2258,2238,2210,2178,2146,2106,2053,1989,1917,1853,1809,1757,1709,1665,1633,1621,1617,1617,1617,1617,1617,1613,1605,1589,1577,1569,1565,1565,1565,1569,1553,1545,1537,1545,1597,1677,1817,1969,2106,2214,2274,2286,2278,2262,2242,2206,2154,2102,2053,1997,1941,1881,1833,1801,1785,1773,1757,1749,1757,1765,1773,1769,1757,1741,1729,1713,1705,1689,1673,1653,1633,1617,1613,1617,1617,1637,1709,1841,1989,2126,2262,2362,2422,2454,2458,2454,2438,2410,2378,2342,2298,2262,2218,2174,2126,2077,2046,2018,1993,1981,1973,1961,1941,1921,1901,1873,1849,1829,1817,1801,1789,1773,1757,1741,1721,1701,1701,1737,1829,1965,2122,2294,2466,2574,2650,2686,2686,2666,2630,2598,2562,2522,2466,2414,2362,2306,2230,2158,2090,2042,2009,1993,1981,1977,1965,1957,1957,1949,1933,1909,1877,1837,1805,1785,1785,1785,1769,1769,1801,1881,2001,2186,2398,2590,2750,2858,2910,2938,2958,2962,2950,2934,2910,2866,2806,2726,2650,2578,2510,2446,2386,2334,2290,2262,2242,2222,2202,2166,2134,2114,2098,2077,2046,2009,1969,1929,1901,1877,1853,1837,1841,1873,1969,2094,2274,2478,2654,2774,2838,2850,2826,2778,2726,2666,2598,2526,2438,2338,2222,2106,2001,1913,1841,1761,1681,1621,1585,1569,1569,1569,1553,1529,1505,1477,1453,1429,1397,1361,1325,1297,1281,1277,1277,1285,1309,1373,1513,1677,1881,2049,2130,2182,2210,2222,2222,2210,2182,2146,2106,2065,2026,1977,1929,1877,1837,1801,1773,1745,1729,1717,1717,1717,1713,1705,1693,1681,1669,1665,1665,1661,1661,1657,1649,1641,1637,1637,1645,1681,1761,1881,2013,2126,2226,2294,2326,2334,2326,2310,2286,2254,2214,2178,2134,2086,2046,2001,1961,1921,1893,1873,1865,1865,1865,1865,1865,1865,1857,1849,1837,1825,1813,1801,1793,1781,1769,1761,1753,1753,1761,1805,1893,2026,2174,2306,2398,2458,2490,2498,2482,2454,2426,2402,2378,2338,2286,2234,2182,2130,2077,2046,2013,1977,1949,1929,1913,1901,1889,1873,1861,1849,1837,1821,1801,1785,1769,1757,1741,1713,1689,1681,1697,1749,1837,1961,2094,2210,2310,2410,2502,2538,2558,2558,2542,2518,2482,2426,2366,2310,2266,2218,2166,2114,2061,2022,1981,1945,1917,1893,1881,1869,1865,1853,1825,1797,1777,1765,1761,1749,1733,1721,1697,1677,1681,1725,1825,1949,2122,2302,2466,2582,2662,2714,2730,2738,2730,2710,2674,2626,2578,2522,2462,2390,2310,2242,2190,2138,2086,2042,2005,1973,1957,1941,1913,1889,1857,1825,1801,1781,1765,1749,1729,1701,1681,1653,1621,1601,1613,1673,1789,1909,2057,2206,2322,2398,2430,2422,2394,2350,2294,2242,2182,2114,2042,1953,1865,1777,1701,1637,1589,1541,1505,1473,1449,1425,1413,1409,1409,1401,1381,1365,1353,1333,1301,1277,1257,1245,1241,1249,1241,1225,1225,1261,1337,1453,1621,1829,2022,2134,2194,2218,2222,2210,2190,2166,2134,2106,2077,2038,1993,1941,1889,1861,1829,1805,1793,1781,1769,1761,1753,1749,1745,1745,1737,1737,1737,1729,1717,1705,1697,1689,1681,1669,1657,1649,1661,1697,1765,1869,1997,2126,2222,2282,2310,2314,2310,2294,2262,2234,2206,2178,2142,2094,2046,2001,1961,1925,1909,1893,1889,1897,1905,1909,1913,1913,1913,1909,1897,1889,1877,1853,1833,1821,1805,1789,1773,1753,1749,1769,1833,1929,2030,2138,2246,2326,2382,2410,2414,2406,2386,2366,2338,2298,2258,2218,2174,2134,2090,2046,2013,1989,1965,1945,1925,1909,1905,1901,1897,1897,1889,1877,1865,1861,1849,1837,1821,1805,1793,1777,1769,1769,1805,1881,1989,2118,2270,2414,2538,2622,2670,2690,2694,2686,2674,2654,2618,2574,2538,2486,2414,2346,2294,2254,2226,2198,2170,2138,2114,2098,2090,2086,2077,2073,2053,2030,2005,1981,1953,1925,1897,1881,1865,1857,1853,1873,1937,2049,2206,2342,2498,2634,2738,2802,2826,2826,2806,2782,2762,2738,2702,2658,2602,2534,2466,2402,2346,2302,2262,2222,2182,2150,2118,2098,2086,2077,2057,2030,1977,1925,1881,1853,1813,1769,1709,1649,1601,1565,1541,1537,1581,1665,1797,1925,2065,2190,2286,2342,2370,2370,2350,2330,2306,2270,2226,2182,2122,2049,1965,1889,1829,1785,1749,1721,1705,1689,1673,1665,1653,1633,1621,1605,1589,1573,1561,1545,1529,1517,1501,1485,1473,1449,1441,1481,1589,1689,1797,1905,2009,2102,2162,2190,2190,2182,2162,2138,2110,2069,2022,1981,1933,1889,1857,1825,1793,1769,1753,1741,1729,1721,1717,1713,1709,1701,1701,1701,1697,1693,1689,1685,1677,1665,1653,1633,1621,1609,1621,1669,1753,1861,1961,2073,2170,2238,2282,2302,2298,2282,2262,2234,2202,2170,2142,2114,2082,2034,1993,1953,1925,1909,1901,1897,1901,1905,1913,1913,1909,1897,1881,1869,1857,1849,1845,1833,1817,1797,1777,1765,1773,1813,1897,2001,2114,2218,2290,2354,2398,2410,2402,2386,2358,2338,2314,2290,2254,2202,2150,2094,2042,2005,1977,1957,1933,1909,1889,1869,1857,1849,1845,1837,1829,1813,1797,1777,1753,1737,1721,1705,1701,1697,1701,1721,1785,1893,2038,2194,2326,2430,2490,2530,2554,2562,2554,2542,2522,2494,2458,2418,2366,2302,2250,2198,2158,2118,2086,2061,2046,2030,2009,1993,1973,1957,1945,1929,1909,1889,1873,1861,1849,1837,1821,1805,1793,1801,1849,1917,2030,2158,2290,2414,2514,2574,2622,2646,2646,2626,2598,2574,2542,2502,2454,2402,2338,2282,2234,2182,2130,2090,2061,2049,2042,2026,2001,1973,1945,1925,1909,1889,1873,1861,1845,1821,1793,1761,1737,1717,1721,1753,1821,1905,2018,2130,2234,2310,2354,2362,2350,2326,2286,2242,2190,2150,2102,2053,1993,1925,1861,1809,1757,1717,1685,1665,1645,1633,1629,1625,1617,1605,1585,1561,1545,1525,1505,1489,1473,1469,1469,1461,1449,1457,1485,1517,1573,1685,1829,1973,2094,2178,2226,2246,2254,2246,2230,2198,2166,2130,2086,2030,1969,1917,1877,1849,1817,1793,1773,1757,1745,1737,1725,1717,1713,1709,1705,1689,1681,1677,1677,1677,1673,1665,1649,1629,1609,1621,1665,1745,1841,1969,2102,2226,2318,2366,2378,2378,2366,2346,2322,2290,2254,2214,2158,2102,2057,2022,1993,1973,1957,1941,1929,1917,1909,1905,1897,1889,1881,1877,1865,1853,1829,1805,1789,1777,1761,1749,1737,1733,1757,1825,1933,2053,2174,2290,2382,2430,2446,2446,2446,2442,2426,2406,2374,2326,2286,2238,2182,2122,2082,2049,2026,2005,1981,1957,1933,1917,1905,1897,1889,1877,1865,1861,1853,1845,1829,1813,1797,1781,1769,1773,1801,1865,1981,2138,2314,2446,2578,2690,2770,2814,2830,2830,2818,2802,2770,2730,2682,2626,2570,2514,2458,2398,2342,2290,2246,2206,2178,2170,2170,2166,2154,2130,2110,2082,2053,2026,1997,1973,1953,1925,1889,1865,1849,1853,1905,2005,2162,2342,2510,2630,2734,2806,2846,2858,2854,2834,2818,2790,2750,2686,2626,2570,2514,2446,2378,2326,2278,2238,2206,2178,2162,2150,2138,2118,2094,2065,2038,2001,1961,1933,1921,1897,1873,1853,1825,1809,1801,1825,1905,2034,2186,2342,2462,2542,2598,2614,2614,2602,2578,2538,2478,2406,2334,2250,2166,2098,2022,1957,1893,1841,1785,1749,1721,1693,1685,1685,1681,1677,1665,1641,1613,1585,1565,1549,1537,1517,1501,1485,1465,1453,1457,1477,1529,1621,1749,1893,2005,2102,2166,2210,2226,2222,2202,2174,2146,2114,2073,2030,1981,1933,1877,1833,1793,1765,1745,1733,1721,1709,1697,1685,1681,1677,1665,1661,1661,1657,1645,1629,1613,1597,1577,1553,1529,1517,1521,1549,1617,1725,1857,1977,2065,2126,2154,2158,2150,2138,2122,2094,2061,2034,2009,1985,1953,1913,1881,1861,1853,1845,1849,1857,1861,1861,1861,1861,1857,1853,1837,1821,1801,1785,1769,1757,1741,1729,1717,1705,1717,1749,1833,1957,2094,2214,2310,2382,2422,2442,2430,2406,2378,2346,2310,2270,2230,2198,2162,2118,2065,2018,1977,1953,1929,1913,1905,1889,1873,1861,1849,1837,1825,1817,1809,1801,1789,1777,1765,1773,1793,1785,1793,1849,1961,2086,2242,2394,2526,2618,2678,2702,2706,2698,2674,2638,2602,2570,2538,2490,2438,2374,2306,2254,2210,2174,2154,2134,2110,2094,2082,2069,2049,2022,1997,1981,1969,1953,1937,1925,1909,1889,1877,1865,1869,1909,1993,2126,2266,2390,2514,2606,2666,2694,2694,2678,2650,2622,2590,2562,2518,2470,2414,2354,2290,2234,2186,2158,2134,2110,2094,2077,2057,2030,2005,1965,1929,1901,1877,1845,1813,1769,1733,1705,1669,1637,1617,1605,1629,1709,1833,1989,2122,2242,2326,2366,2370,2358,2342,2310,2270,2230,2182,2134,2086,2034,1969,1905,1845,1789,1741,1721,1701,1693,1689,1685,1673,1665,1649,1633,1617,1605,1589,1569,1557,1537,1529,1509,1473,1465,1473,1505,1589,1725,1877,2026,2126,2198,2238,2254,2242,2210,2174,2138,2094,2042,1989,1937,1893,1857,1817,1777,1737,1709,1693,1685,1685,1685,1681,1681,1681,1681,1681,1681,1681,1681,1669,1657,1637,1621,1613,1609,1617,1645,1713,1829,1977,2126,2254,2346,2390,2410,2394,2366,2326,2290,2254,2218,2178,2130,2082,2042,2009,1977,1945,1917,1897,1893,1893,1889,1885,1881,1881,1873,1865,1853,1833,1801,1773,1749,1733,1721,1701,1689,1689,1725,1805,1905,2030,2158,2262,2338,2378,2382,2370,2342,2314,2290,2270,2238,2194,2138,2086,2034,1981,1941,1909,1889,1877,1861,1849,1837,1825,1821,1817,1809,1797,1793,1789,1781,1769,1757,1745,1725,1709,1713,1745,1781,1861,1981,2134,2282,2430,2550,2630,2678,2706,2706,2690,2662,2630,2598,2558,2510,2466,2422,2366,2302,2242,2206,2174,2142,2110,2086,2082,2077,2065,2042,2013,1989,1973,1957,1945,1925,1897,1873,1853,1837,1825,1817,1821,1869,1977,2142,2282,2430,2554,2654,2714,2734,2726,2710,2678,2654,2622,2590,2554,2494,2418,2350,2282,2218,2158,2102,2046,1989,1937,1885,1837,1801,1765,1737,1705,1665,1613,1581,1553,1513,1481,1461,1445,1433,1425,1421,1433,1473,1561,1705,1857,2018,2166,2262,2310,2318,2310,2294,2278,2254,2222,2174,2118,2065,2005,1945,1889,1837,1793,1757,1725,1713,1709,1709,1713,1729,1737,1737,1737,1737,1729,1725,1713,1697,1685,1685,1685,1681,1669,1665,1677,1725,1817,1945,2073,2214,2322,2382,2398,2390,2366,2342,2306,2270,2230,2182,2138,2077,2013,1965,1921,1893,1877,1865,1849,1837,1825,1821,1833,1845,1845,1837,1821,1801,1785,1769,1757,1745,1737,1729,1725,1729,1725,1733,1769,1865,2013,2150,2290,2414,2514,2574,2594,2586,2566,2538,2510,2462,2410,2370,2330,2290,2246,2198,2150,2102,2073,2053,2049,2046,2046,2038,2022,2001,1977,1961,1949,1933,1917,1905,1893,1885,1873,1857,1841,1841,1869,1945,2065,2210,2350,2446,2534,2598,2626,2626,2618,2594,2566,2530,2494,2450,2402,2362,2318,2262,2210,2154,2110,2077,2053,2030,2018,2005,1989,1973,1957,1945,1933,1921,1917,1909,1901,1845,1737,1693,1665,1653,1673,1741,1853,2013,2190,2366,2510,2606,2674,2706,2710,2698,2678,2638,2594,2558,2526,2478,2418,2362,2310,2258,2198,2142,2094,2061,2034,2022,2009,1993,1989,1981,1961,1925,1877,1841,1817,1801,1789,1773,1749,1729,1713,1737,1797,1909,2073,2246,2406,2542,2610,2658,2686,2686,2674,2658,2642,2610,2566,2506,2442,2366,2290,2218,2138,2065,2001,1945,1877,1821,1757,1697,1641,1589,1541,1497,1449,1397,1357,1317,1277,1245,1229,1213,1197,1181,1169,1193,1265,1385,1577,1725,1877,1989,2057,2094,2106,2094,2069,2038,2009,1981,1945,1889,1825,1745,1665,1605,1553,1521,1509,1505,1505,1509,1509,1509,1509,1509,1517,1517,1505,1497,1493,1625,1677,1681,1673,1649,1633,1633,1661,1725,1837,1969,2098,2206,2286,2322,2330,2326,2302,2270,2238,2210,2174,2130,2082,2030,1981,1945,1917,1889,1869,1853,1849,1849,1849,1845,1837,1829,1817,1805,1789,1781,1777,1773,1773,1773,1777,1777,1777,1785,1805,1865,1961,2082,2226,2358,2458,2510,2518,2514,2514,2494,2470,2430,2382,2342,2306,2270,2234,2194,2150,2118,2090,2065,2049,2034,2009,1989,1973,1965,1961,1949,1937,1921,1913,1897,1881,1861,1837,1817,1805,1805,1825,1885,1985,2110,2218,2330,2418,2478,2510,2518,2514,2502,2474,2446,2418,2394,2354,2314,2258,2198,2150,2118,2090,2069,2046,2022,2005,1993,1981,1969,1965,1965,1961,1953,1941,1933,1925,1865,1825,1801,1785,1785,1813,1881,1989,2142,2322,2494,2622,2730,2802,2842,2850,2846,2826,2802,2770,2726,2678,2614,2558,2498,2430,2370,2322,2278,2242,2210,2182,2154,2130,2110,2094,2082,2065,2038,2009,1977,1945,1921,1901,1881,1865,1853,1853,1877,1949,2086,2266,2446,2602,2706,2770,2822,2846,2850,2842,2826,2798,2754,2702,2634,2566,2486,2414,2354,2302,2250,2198,2154,2122,2094,2069,2046,2013,1965,1917,1873,1821,1761,1701,1645,1597,1557,1501,1449,1409,1385,1385,1421,1497,1629,1785,1937,2077,2158,2214,2246,2254,2250,2226,2190,2150,2118,2077,2013,1941,1881,1829,1765,1709,1665,1637,1621,1617,1617,1617,1617,1605,1597,1601,1601,1585,1561,1537,1601,1633,1641,1629,1617,1601,1593,1601,1637,1721,1833,1957,2065,2142,2178,2194,2194,2182,2158,2126,2094,2053,2013,1969,1921,1881,1853,1825,1793,1765,1753,1741,1741,1737,1737,1737,1737,1737,1737,1733,1721,1709,1701,1697,1697,1693,1685,1673,1665,1661,1681,1733,1833,1961,2098,2214,2302,2346,2370,2374,2362,2342,2310,2274,2238,2198,2158,2118,2077,2042,2013,1981,1961,1937,1925,1925,1921,1917,1905,1893,1881,1873,1865,1857,1845,1833,1817,1797,1777,1761,1745,1741,1757,1805,1877,1969,2090,2210,2302,2366,2394,2398,2394,2394,2378,2358,2338,2310,2270,2234,2202,2170,2134,2090,2057,2034,2018,2005,1997,1985,1973,1961,1949,1941,1933,1921,1909,1897,1901,1897,1885,1869,1861,1853,1857,1905,1993,2126,2270,2402,2534,2642,2710,2750,2758,2754,2750,2742,2730,2706,2674,2630,2574,2502,2434,2378,2334,2298,2258,2218,2182,2154,2134,2122,2106,2086,2065,2042,2022,2001,1977,1953,1933,1917,1889,1873,1861,1869,1941,2057,2254,2378,2502,2606,2690,2738,2746,2738,2726,2694,2650,2590,2534,2478,2410,2338,2270,2194,2122,2061,1997,1937,1889,1837,1793,1753,1713,1669,1633,1597,1569,1541,1505,1477,1453,1441,1425,1417,1409,1401,1417,1477,1589,1729,1865,1997,2102,2170,2210,2226,2218,2210,2190,2162,2126,2082,2042,1993,1937,1877,1821,1773,1737,1721,1705,1701,1701,1705,1709,1713,1713,1709,1709,1697,1717,1725,1721,1717,1713,1713,1701,1689,1681,1685,1717,1785,1885,1989,2073,2154,2210,2234,2234,2222,2210,2190,2166,2138,2098,2057,2026,1985,1949,1917,1897,1881,1873,1869,1877,1885,1897,1909,1909,1905,1901,1897,1893,1885,1877,1865,1857,1845,1837,1825,1821,1825,1845,1897,1977,2082,2186,2262,2330,2378,2398,2394,2378,2358,2338,2314,2278,2246,2210,2170,2126,2086,2049,2013,1989,1969,1953,1941,1933,1929,1921,1913,1909,1901,1893,1885,1873,1861,1849,1833,1817,1805,1797,1789,1805,1837,1909,2001,2110,2218,2306,2366,2406,2426,2430,2426,2414,2402,2390,2378,2350,2314,2274,2234,2194,2158,2118,2090,2065,2049,2034,2018,2013,2005,1993,1981,1969,1957,1897,1861,1837,1817,1801,1785,1769,1753,1745,1753,1797,1893,2042,2214,2382,2522,2606,2666,2694,2702,2694,2678,2654,2618,2570,2514,2454,2394,2342,2298,2242,2190,2130,2090,2053,2030,2013,1989,1961,1933,1901,1865,1821,1777,1733,1685,1633,1585,1549,1505,1457,1413,1393,1397,1429,1509,1637,1805,1981,2126,2222,2290,2318,2318,2302,2266,2230,2186,2138,2077,2018,1957,1889,1825,1757,1705,1657,1625,1613,1613,1613,1613,1609,1605,1593,1589,1577,1561,1545,1533,1525,1521,1521,1509,1485,1461,1453,1457,1501,1605,1765,1941,2102,2222,2294,2334,2346,2330,2306,2266,2230,2182,2122,2061,1997,1933,1885,1837,1793,1749,1709,1689,1685,1693,1689,1677,1665,1653,1677,1685,1681,1677,1677,1677,1677,1677,1669,1665,1661,1673,1697,1749,1853,1997,2158,2302,2414,2474,2506,2514,2506,2490,2462,2422,2378,2326,2282,2230,2174,2114,2073,2030,1989,1957,1929,1905,1889,1881,1877,1873,1861,1849,1841,1825,1805,1773,1749,1725,1701,1685,1669,1665,1677,1721,1809,1917,2053,2198,2322,2418,2478,2494,2502,2498,2490,2470,2446,2418,2382,2330,2282,2230,2182,2138,2102,2069,2042,2018,1989,1965,1945,1933,1929,1913,1893,1877,1865,1857,1841,1821,1805,1789,1781,1765,1749,1749,1793,1885,2013,2150,2290,2414,2510,2578,2614,2626,2622,2610,2594,2574,2538,2502,2458,2406,2354,2306,2258,2214,2162,2118,2086,2069,2057,2046,2022,2001,1905,1841,1801,1777,1753,1733,1717,1701,1677,1657,1645,1633,1633,1673,1761,1901,2034,2186,2334,2454,2542,2590,2602,2606,2594,2574,2538,2494,2446,2398,2338,2274,2202,2126,2049,1989,1937,1889,1837,1781,1729,1689,1645,1585,1517,1461,1417,1385,1353,1305,1257,1217,1189,1173,1165,1153,1145,1173,1241,1357,1501,1681,1841,1965,2049,2098,2110,2098,2086,2065,2026,1981,1937,1889,1829,1769,1697,1629,1565,1513,1473,1453,1453,1461,1469,1477,1477,1469,1465,1457,1457,1457,1457,1449,1429,1401,1377,1365,1357,1357,1389,1457,1573,1709,1873,2042,2182,2282,2338,2362,2354,2330,2294,2238,2182,2110,2042,1973,1909,1845,1785,1729,1705,1689,1673,1657,1653,1661,1797,1853,1865,1857,1845,1833,1825,1817,1805,1789,1777,1761,1753,1749,1753,1777,1857,1981,2138,2262,2382,2474,2526,2538,2534,2518,2502,2482,2454,2410,2358,2302,2250,2198,2146,2106,2073,2046,2018,1989,1965,1949,1937,1937,1937,1929,1917,1893,1861,1833,1805,1789,1773,1761,1749,1741,1745,1769,1841,1949,2090,2230,2346,2430,2490,2526,2538,2530,2510,2486,2462,2438,2406,2362,2318,2270,2214,2158,2114,2086,2057,2038,2022,2013,2005,1993,1981,1961,1949,1937,1933,1925,1921,1909,1901,1881,1865,1857,1869,1921,1989,2102,2242,2374,2490,2586,2642,2686,2710,2702,2694,2678,2654,2618,2582,2530,2482,2430,2370,2322,2278,2242,2202,2166,2134,2114,2098,2082,1929,1849,1813,1793,1765,1737,1709,1685,1657,1633,1613,1597,1597,1629,1701,1813,1941,2098,2250,2378,2466,2522,2542,2550,2542,2522,2486,2446,2394,2338,2270,2202,2146,2098,2053,2018,1973,1937,1897,1857,1817,1777,1729,1685,1641,1593,1529,1477,1425,1381,1349,1313,1273,1249,1225,1201,1193,1237,1337,1465,1625,1777,1909,2005,2065,2086,2077,2065,2042,2005,1965,1921,1869,1809,1741,1681,1617,1565,1529,1489,1457,1433,1425,1421,1425,1425,1425,1425,1421,1417,1413,1409,1397,1373,1357,1345,1333,1321,1317,1341,1413,1541,1693,1817,1937,2030,2077,2098,2098,2090,2069,2030,1973,1913,1857,1809,1761,1713,1669,1629,1601,1585,1573,1565,1565,1561,1557,1545,1677,1733,1737,1729,1721,1717,1717,1717,1717,1717,1717,1717,1721,1753,1833,1961,2114,2254,2358,2422,2462,2474,2470,2450,2426,2402,2374,2334,2290,2238,2182,2138,2086,2042,2009,1981,1957,1933,1917,1901,1889,1877,1865,1853,1837,1813,1777,1745,1721,1709,1705,1693,1685,1693,1713,1769,1841,1949,2077,2202,2302,2370,2402,2410,2402,2386,2374,2366,2346,2322,2294,2258,2226,2206,2194,2182,2170,2158,2150,2142,2146,2154,2162,2174,2170,2162,2150,2138,2126,2098,2077,2065,2057,2046,2034,2022,2030,2069,2142,2230,2318,2414,2490,2530,2546,2542,2518,2486,2458,2434,2406,2366,2318,2270,2210,2150,2102,2061,2022,1993,1965,1941,1917,1901,1889,1881,1869,1857,1741,1669,1621,1593,1561,1533,1517,1501,1477,1473,1481,1529,1637,1785,1953,2098,2206,2306,2382,2422,2442,2430,2406,2366,2318,2266,2206,2126,2038,1945,1845,1753,1669,1589,1525,1465,1425,1393,1361,1317,1289,1261,1241,1225,1209,1193,1181,1173,1161,1145,1129,1113,1101,1093,1093,1137,1249,1409,1581,1713,1833,1921,1969,1981,1969,1949,1921,1889,1845,1797,1741,1673,1617,1557,1505,1465,1433,1405,1381,1369,1361,1361,1361,1361,1365,1361,1345,1329,1309,1289,1281,1277,1277,1277,1265,1253,1253,1273,1333,1457,1621,1789,1933,2038,2106,2130,2122,2086,2042,2009,1977,1921,1841,1749,1657,1589,1533,1485,1449,1417,1385,1357,1337,1321,1321,1321,1333,1349,1573,1669,1689,1693,1697,1689,1685,1673,1657,1637,1625,1633,1673,1773,1917,2077,2226,2346,2422,2466,2478,2466,2454,2442,2426,2414,2390,2350,2314,2274,2246,2218,2194,2166,2146,2134,2130,2122,2106,2090,2077,2057,2042,2030,2013,2001,1985,1973,1953,1925,1893,1857,1841,1861,1929,2026,2134,2266,2390,2494,2566,2598,2598,2578,2554,2526,2490,2450,2418,2386,2342,2286,2226,2170,2114,2082,2053,2034,2005,1981,1973,1981,1993,1993,1981,1965,1953,1941,1925,1905,1889,1877,1861,1853,1845,1849,1893,1993,2146,2298,2426,2554,2650,2702,2718,2710,2694,2678,2662,2634,2606,2566,2518,2470,2426,2378,2334,2294,2262,2234,2214,2198,2186,2178,2174,2174,2174,2166,2069,2005,1977,1953,1933,1921,1905,1893,1881,1877,1909,2001,2134,2286,2426,2522,2598,2646,2670,2666,2654,2634,2606,2574,2542,2498,2430,2362,2298,2222,2150,2090,2034,1981,1937,1893,1857,1825,1801,1781,1769,1749,1729,1705,1689,1673,1665,1653,1641,1625,1601,1593,1605,1657,1757,1889,2042,2166,2254,2294,2314,2314,2306,2290,2258,2222,2186,2142,2086,2030,1969,1921,1881,1837,1801,1785,1789,1793,1789,1777,1769,1757,1745,1733,1721,1705,1693,1669,1649,1625,1609,1589,1577,1569,1569,1605,1673,1789,1937,2090,2198,2254,2266,2258,2234,2214,2190,2154,2126,2098,2049,1993,1941,1893,1853,1829,1817,1801,1785,1765,1753,1757,1761,1765,1765,1761,1757,1757,1693,1657,1641,1633,1629,1621,1613,1605,1621,1677,1797,1949,2086,2214,2290,2330,2338,2322,2294,2262,2230,2198,2162,2118,2077,2026,1969,1909,1861,1829,1805,1789,1765,1745,1733,1721,1725,1721,1705,1677,1649,1629,1605,1597,1585,1573,1557,1545,1541,1557,1605,1709,1841,1981,2094,2174,2218,2246,2262,2254,2226,2190,2158,2118,2077,2046,2009,1965,1929,1877,1829,1797,1765,1749,1737,1729,1721,1713,1701,1693,1685,1677,1665,1649,1637,1617,1605,1605,1605,1605,1605,1617,1665,1745,1873,2018,2150,2250,2302,2318,2322,2314,2290,2274,2254,2226,2190,2150,2102,2049,2001,1965,1937,1909,1881,1853,1833,1821,1809,1797,1797,1805,1813,1809,1801,1789,1757,1725,1693,1653,1613,1565,1533,1529,1557,1637,1765,1909,2061,2190,2278,2322,2314,2274,2226,2166,2090,2030,1981,1929,1873,1809,1741,1661,1597,1557,1525,1501,1485,1469,1461,1461,1469,1469,1469,1465,1449,1429,1413,1385,1365,1349,1337,1317,1293,1261,1249,1281,1397,1585,1769,1965,2146,2262,2310,2314,2290,2250,2206,2162,2114,2042,1965,1905,1837,1769,1705,1645,1593,1573,1565,1565,1569,1573,1573,1565,1565,1565,1565,1565,1561,1557,1565,1565,1561,1549,1529,1517,1525,1561,1657,1829,2053,2274,2438,2558,2626,2654,2650,2618,2578,2522,2458,2386,2290,2206,2142,2077,2001,1925,1881,1853,1845,1841,1853,1857,1861,1861,1857,1849,1829,1809,1789,1757,1705,1661,1729,1749,1745,1741,1749,1785,1865,1993,2154,2310,2454,2546,2594,2614,2610,2586,2554,2530,2506,2474,2430,2378,2310,2246,2194,2130,2065,2026,1997,1977,1973,1973,1969,1965,1957,1953,1953,1945,1933,1917,1897,1877,1853,1841,1821,1813,1817,1845,1917,2018,2170,2350,2522,2666,2774,2822,2850,2850,2838,2818,2790,2758,2726,2678,2614,2550,2502,2450,2406,2354,2306,2262,2230,2206,2194,2190,2190,2174,2146,2114,2086,2053,2026,2005,1993,1989,1981,1965,1949,1937,1961,2038,2166,2318,2494,2670,2814,2926,2994,3026,3038,3030,3014,2998,2970,2930,2870,2802,2734,2658,2582,2526,2474,2426,2374,2322,2274,2250,2226,2198,2154,2094,2030,1981,1937,1889,1837,1781,1613,1525,1485,1445,1417,1397,1405,1469,1557,1689,1837,1973,2086,2158,2198,2202,2186,2162,2146,2130,2102,2069,2013,1945,1885,1833,1777,1741,1701,1669,1645,1633,1617,1609,1601,1597,1589,1577,1565,1549,1533,1513,1505,1501,1501,1505,1505,1497,1477,1473,1497,1573,1681,1829,1977,2110,2202,2262,2286,2290,2278,2250,2210,2162,2122,2069,2005,1945,1889,1845,1801,1769,1745,1729,1721,1725,1733,1729,1725,1717,1721,1717,1709,1701,1689,1677,1665,1649,1637,1629,1617,1605,1597,1621,1697,1813,1953,2118,2274,2398,2474,2510,2514,2506,2478,2442,2402,2366,2330,2286,2230,2170,2114,2057,2013,1973,1937,1917,1909,1905,1905,1901,1885,1861,1837,1809,1785,1765,1813,1833,1829,1809,1785,1769,1761,1781,1837,1933,2065,2186,2318,2442,2538,2598,2638,2650,2646,2638,2618,2594,2566,2522,2470,2418,2370,2322,2274,2226,2186,2150,2118,2102,2086,2073,2061,2042,2030,2026,2022,2001,1981,1961,1941,1925,1901,1877,1857,1853,1865,1925,2030,2170,2318,2446,2570,2686,2746,2790,2822,2826,2822,2806,2778,2754,2710,2666,2614,2554,2498,2438,2386,2350,2322,2290,2258,2230,2210,2190,2166,2142,2114,2090,2065,2042,2022,1997,1965,1941,1913,1885,1861,1857,1885,1973,2106,2262,2410,2526,2630,2702,2750,2766,2762,2742,2714,2670,2622,2558,2482,2406,2318,2234,2150,2073,2005,1949,1889,1833,1789,1745,1713,1689,1665,1649,1629,1605,1549,1517,1497,1477,1465,1453,1441,1429,1429,1433,1465,1529,1629,1757,1865,1969,2057,2110,2134,2138,2122,2102,2073,2049,2026,1993,1953,1909,1861,1809,1761,1729,1713,1701,1693,1681,1677,1673,1669,1661,1653,1645,1633,1625,1613,1609,1597,1577,1565,1557,1549,1545,1545,1561,1609,1693,1809,1937,2034,2118,2178,2210,2214,2206,2186,2162,2134,2102,2065,2030,1989,1945,1897,1857,1821,1793,1777,1769,1765,1765,1765,1757,1749,1741,1733,1721,1709,1697,1689,1677,1661,1645,1633,1621,1617,1621,1653,1725,1837,1961,2082,2178,2242,2286,2302,2302,2294,2270,2242,2214,2182,2138,2094,2049,2009,1965,1925,1885,1857,1829,1809,1793,1785,1773,1765,1753,1749,1745,1837,1869,1869,1849,1833,1825,1813,1797,1785,1781,1809,1869,1973,2110,2262,2398,2510,2582,2622,2650,2658,2658,2646,2622,2598,2566,2530,2486,2442,2390,2342,2290,2254,2218,2186,2150,2126,2110,2094,2086,2082,2065,2049,2030,2009,1989,1965,1945,1925,1909,1901,1901,1913,1953,2034,2142,2282,2446,2546,2634,2698,2730,2746,2742,2726,2706,2686,2658,2618,2582,2530,2470,2414,2366,2314,2270,2234,2202,2166,2134,2106,2086,2065,2049,2038,2018,1997,1973,1953,1925,1901,1881,1861,1849,1837,1853,1905,1997,2102,2230,2370,2490,2586,2638,2658,2658,2654,2638,2618,2594,2542,2486,2438,2366,2318,2254,2206,2174,2134,2098,2082,2069,2061,2046,2030,2005,1985,1921,1801,1797,1833,1889,1949,1989,1985,1961,1921,1873,1825,1769,1705,1645,1577,1501,1433,1377,1337,1313,1305,1297,1285,1277,1277,1273,1273,1269,1261,1249,1237,1225,1217,1205,1193,1181,1169,1161,1157,1145,1125,1109,1105,1105,1105,1113,1125,1129,1129,1125,1125,1137,1185,1293,1445,1617,1773,1881,1957,2005,2026,2026,2005,1977,1933,1881,1821,1761,1705,1661,1633,1597,1569,1553,1537,1529,1521,1509,1497,1497,1493,1493,1493,1493,1485,1469,1453,1445,1445,1441,1433,1421,1401,1385,1373,1373,1413,1501,1637,1789,1929,2038,2126,2186,2218,2226,2226,2206,2186,2150,2110,2057,1997,1949,1893,1849,1821,1797,1773,1761,1753,1749,1749,1749,1749,1749,1737,1813,2001,2038,2034,2030,2026,2013,1989,1969,1961,1977,2022,2102,2210,2342,2462,2566,2630,2678,2714,2722,2714,2694,2662,2626,2578,2534,2490,2442,2394,2350,2302,2254,2218,2194,2170,2158,2146,2134,2122,2106,2082,2065,2053,2042,2026,2009,1989,1973,1953,1937,1929,1937,1973,2046,2150,2282,2418,2538,2642,2714,2750,2766,2774,2774,2758,2734,2702,2670,2630,2582,2538,2494,2454,2410,2374,2342,2310,2282,2258,2242,2230,2226,2222,2206,2186,2170,2150,2126,2106,2090,2069,2057,2046,2042,2057,2110,2202,2314,2434,2562,2674,2746,2794,2818,2830,2834,2826,2806,2770,2734,2694,2638,2578,2526,2478,2430,2390,2350,2314,2282,2250,2226,2206,2190,2174,2154,2134,1997,1729,1625,1545,1485,1437,1397,1365,1333,1297,1277,1297,1373,1501,1629,1761,1877,1969,2030,2057,2061,2053,2038,2005,1969,1929,1881,1833,1761,1681,1613,1545,1481,1441,1409,1385,1373,1369,1369,1373,1357,1337,1317,1301,1293,1289,1277,1253,1225,1205,1189,1181,1185,1197,1229,1305,1429,1577,1717,1861,1973,2042,2069,2069,2057,2046,2013,1977,1929,1873,1825,1765,1697,1641,1597,1557,1525,1509,1493,1489,1485,1477,1469,1461,1445,1433,1417,1405,1389,1385,1373,1361,1341,1313,1289,1281,1289,1337,1437,1585,1761,1905,2046,2150,2218,2254,2262,2246,2218,2186,2146,2098,2053,2009,1957,1901,1845,1805,1773,1737,1713,1689,1677,1669,1657,1645,1637,1625,1689,1853,1869,1845,1813,1789,1761,1745,1733,1733,1741,1781,1873,2013,2170,2322,2450,2526,2590,2622,2630,2618,2594,2566,2538,2498,2450,2398,2350,2298,2242,2190,2146,2110,2073,2046,2022,1993,1973,1961,1953,1953,1949,1937,1925,1909,1893,1865,1841,1817,1797,1785,1797,1837,1917,2022,2162,2326,2478,2602,2686,2738,2770,2782,2774,2758,2722,2682,2642,2598,2550,2490,2426,2366,2310,2262,2218,2182,2150,2130,2106,2077,2049,2034,2013,1993,1969,1953,1941,1921,1897,1869,1845,1813,1793,1793,1837,1929,2038,2190,2354,2502,2610,2686,2722,2730,2722,2702,2670,2638,2598,2546,2470,2390,2318,2246,2174,2102,2026,1957,1901,1849,1805,1769,1729,1693,1653,1613,1553,1469,1429,1405,1385,1373,1357,1337,1329,1317,1305,1313,1361,1457,1581,1741,1897,2022,2110,2162,2182,2190,2182,2170,2142,2102,2061,2009,1953,1889,1825,1761,1709,1669,1637,1625,1621,1621,1621,1625,1621,1617,1613,1601,1585,1577,1561,1541,1521,1509,1497,1485,1461,1441,1441,1481,1581,1709,1845,1985,2102,2182,2234,2250,2242,2222,2186,2146,2102,2053,2009,1953,1893,1833,1781,1741,1725,1713,1697,1693,1693,1693,1689,1685,1681,1681,1669,1657,1645,1637,1629,1629,1629,1629,1629,1633,1633,1653,1717,1829,1973,2098,2226,2322,2378,2398,2398,2378,2346,2310,2274,2234,2186,2126,2069,2013,1957,1905,1861,1837,1825,1813,1793,1769,1753,1737,1729,1717,1749,1841,1853,1841,1821,1809,1797,1789,1777,1769,1777,1801,1857,1957,2102,2258,2398,2502,2590,2646,2682,2690,2690,2674,2650,2622,2590,2542,2490,2446,2402,2350,2294,2242,2198,2166,2142,2114,2086,2065,2053,2042,2038,2030,2018,2001,1973,1953,1941,1925,1909,1889,1861,1845,1857,1917,2030,2182,2342,2482,2570,2650,2706,2734,2734,2722,2698,2670,2642,2610,2562,2506,2450,2402,2354,2310,2266,2230,2194,2158,2122,2094,2069,2053,2042,2030,2018,1985,1953,1929,1913,1901,1889,1877,1857,1825,1809,1817,1857,1949,2086,2238,2390,2514,2590,2642,2674,2682,2686,2670,2642,2614,2574,2522,2474,2426,2374,2326,2282,2250,2222,2194,2154,2110,2057,2018,1981,1941,1829,1633,1537,1477,1425,1373,1313,1273,1229,1185,1145,1117,1101,1101,1133,1229,1377,1553,1729,1873,1977,2049,2082,2077,2061,2046,2030,2001,1957,1893,1825,1749,1693,1633,1569,1525,1489,1477,1477,1481,1481,1477,1469,1465,1465,1469,1465,1449,1429,1425,1421,1405,1381,1361,1353,1349,1357,1385,1465,1597,1773,1965,2134,2242,2306,2330,2318,2286,2242,2194,2142,2065,1993,1917,1833,1765,1717,1665,1625,1597,1577,1557,1549,1541,1537,1537,1533,1529,1529,1521,1521,1521,1521,1517,1497,1477,1445,1425,1417,1425,1473,1565,1709,1873,2030,2162,2266,2322,2354,2358,2334,2302,2262,2222,2174,2118,2053,1997,1941,1889,1849,1809,1785,1769,1761,1769,1781,1785,1861,2026,2053,2061,2061,2053,2049,2046,2038,2026,2013,2001,1985,1985,2034,2138,2262,2414,2566,2698,2794,2850,2874,2870,2854,2822,2782,2726,2670,2614,2550,2474,2406,2346,2286,2246,2210,2178,2150,2122,2102,2090,2077,2061,2046,2034,2018,1993,1973,1949,1933,1917,1901,1881,1873,1873,1913,2009,2158,2326,2458,2574,2670,2730,2770,2782,2782,2770,2750,2718,2690,2650,2602,2558,2514,2462,2390,2326,2270,2234,2202,2170,2142,2114,2098,2090,2082,2069,2053,2038,2009,1985,1957,1929,1905,1889,1877,1897,1957,2065,2202,2350,2486,2586,2650,2694,2726,2746,2750,2738,2702,2642,2566,2498,2430,2358,2302,2238,2170,2102,2042,1989,1945,1917,1885,1861,1837,1821,1729,1541,1489,1477,1473,1473,1461,1445,1413,1393,1365,1349,1357,1405,1513,1669,1829,1977,2077,2122,2146,2150,2138,2110,2065,2026,1989,1933,1873,1821,1773,1729,1685,1637,1589,1561,1549,1549,1549,1545,1545,1545,1541,1537,1541,1545,1545,1533,1517,1505,1493,1485,1469,1465,1489,1565,1689,1833,1993,2134,2222,2262,2262,2250,2234,2198,2162,2122,2073,2030,1973,1913,1865,1817,1781,1761,1749,1749,1745,1741,1745,1753,1753,1749,1745,1745,1741,1733,1737,1741,1741,1737,1721,1709,1705,1729,1797,1929,2094,2246,2354,2418,2462,2470,2446,2398,2350,2302,2262,2222,2178,2122,2061,2009,1949,1885,1833,1793,1761,1741,1725,1709,1701,1689,1681,1673,1661,1645,1661,1717,1717,1701,1681,1677,1673,1681,1705,1773,1885,2046,2218,2366,2470,2530,2546,2542,2526,2498,2470,2438,2406,2366,2318,2262,2210,2170,2134,2102,2069,2038,2005,1973,1945,1933,1925,1925,1925,1925,1925,1917,1901,1881,1865,1849,1833,1821,1809,1813,1857,1945,2082,2238,2374,2502,2602,2662,2678,2674,2654,2622,2590,2558,2522,2470,2422,2374,2314,2254,2194,2134,2090,2053,2022,1993,1977,1965,1941,1929,1913,1897,1881,1873,1857,1845,1833,1817,1801,1769,1737,1717,1713,1753,1853,1997,2146,2250,2326,2374,2394,2394,2382,2350,2310,2258,2194,2130,2061,2001,1941,1889,1841,1793,1733,1689,1665,1641,1637,1633,1633,1633,1633,1617,1597,1573,1549,1525,1505,1469,1445,1421,1401,1393,1393,1401,1437,1521,1665,1837,1993,2106,2186,2226,2234,2222,2198,2170,2134,2098,2042,1981,1921,1881,1837,1785,1737,1701,1673,1649,1641,1637,1637,1637,1637,1637,1637,1637,1625,1601,1589,1585,1589,1581,1557,1529,1517,1521,1557,1633,1761,1925,2102,2242,2334,2366,2370,2358,2342,2326,2306,2282,2246,2198,2142,2077,2018,1973,1933,1893,1873,1865,1873,1877,1881,1877,1873,1861,1845,1833,1821,1805,1793,1781,1773,1761,1749,1733,1713,1713,1757,1853,1977,2138,2290,2414,2494,2542,2558,2546,2518,2490,2454,2410,2366,2310,2246,2174,2118,2061,2013,1965,1917,1889,1873,1877,1881,1877,1869,1853,1837,1825,1813,1805,1789,1773,1777,1801,1797,1781,1761,1761,1821,1933,2090,2246,2386,2534,2650,2722,2758,2758,2742,2726,2702,2670,2638,2594,2542,2482,2414,2354,2298,2250,2210,2174,2142,2114,2094,2086,2073,2061,2042,2022,1993,1965,1949,1933,1917,1901,1885,1869,1853,1853,1881,1953,2077,2242,2414,2546,2666,2758,2814,2842,2846,2834,2806,2770,2734,2682,2622,2562,2494,2430,2370,2310,2254,2202,2166,2126,2082,2046,2013,1977,1945,1905,1861,1809,1761,1713,1677,1641,1597,1553,1509,1481,1469,1473,1509,1601,1749,1913,2061,2186,2298,2370,2414,2426,2422,2410,2386,2346,2302,2242,2174,2122,2057,1993,1929,1873,1825,1797,1785,1769,1753,1745,1737,1725,1713,1705,1697,1689,1681,1673,1669,1645,1633,1625,1605,1585,1589,1613,1673,1773,1897,2038,2158,2246,2302,2326,2322,2302,2278,2250,2214,2174,2118,2061,2009,1965,1917,1873,1845,1829,1809,1797,1789,1785,1797,1801,1797,1789,1777,1757,1733,1717,1697,1681,1669,1657,1649,1645,1645,1657,1685,1753,1869,2034,2202,2346,2430,2478,2498,2502,2482,2458,2430,2406,2370,2318,2262,2198,2146,2098,2061,2034,2001,1977,1953,1941,1937,1933,1917,1893,1873,1861,1853,1837,1821,1797,1773,1753,1725,1701,1685,1681,1701,1753,1841,1969,2110,2242,2346,2418,2458,2490,2502,2494,2470,2442,2418,2390,2346,2298,2246,2190,2146,2102,2061,2030,2005,1997,1985,1973,1949,1925,1909,1897,1889,1877,1869,1857,1841,1817,1801,1789,1773,1761,1765,1813,1905,2018,2170,2338,2498,2634,2722,2766,2774,2778,2774,2754,2726,2686,2646,2602,2546,2490,2426,2362,2310,2266,2222,2182,2142,2106,2086,2069,2061,2049,2034,2001,1969,1941,1913,1885,1853,1825,1809,1789,1773,1761,1773,1833,1937,2069,2238,2406,2546,2650,2714,2738,2758,2758,2738,2706,2666,2626,2574,2518,2446,2374,2310,2262,2218,2174,2130,2090,2049,2013,1969,1925,1873,1825,1777,1729,1681,1625,1569,1521,1477,1437,1421,1409,1389,1369,1365,1405,1489,1613,1781,1949,2110,2238,2310,2342,2342,2322,2302,2274,2234,2198,2146,2086,2030,1965,1893,1841,1793,1753,1729,1709,1693,1677,1665,1649,1649,1653,1645,1637,1653,1697,1697,1693,1685,1681,1681,1673,1653,1637,1629,1645,1693,1781,1897,2018,2126,2206,2246,2262,2262,2254,2238,2218,2190,2166,2134,2086,2042,2001,1961,1929,1893,1865,1849,1837,1833,1841,1849,1849,1845,1841,1829,1825,1813,1805,1793,1785,1773,1765,1761,1745,1733,1729,1741,1777,1841,1941,2065,2190,2302,2374,2410,2422,2418,2394,2374,2350,2330,2298,2258,2218,2170,2118,2073,2038,2013,1989,1969,1949,1933,1917,1905,1893,1885,1877,1865,1861,1849,1833,1805,1785,1765,1753,1741,1729,1725,1733,1765,1829,1921,2038,2166,2274,2362,2414,2446,2466,2474,2458,2434,2410,2386,2366,2338,2302,2258,2210,2170,2134,2102,2073,2053,2046,2034,2030,2030,2026,2009,1981,1957,1937,1921,1909,1885,1861,1837,1825,1813,1813,1825,1853,1921,2005,2130,2274,2414,2534,2626,2674,2706,2718,2714,2690,2666,2630,2594,2558,2514,2458,2406,2342,2286,2238,2202,2170,2138,2110,2086,2061,2042,2018,1997,1981,1965,1941,1917,1893,1865,1841,1821,1797,1773,1761,1765,1805,1873,1973,2110,2258,2390,2494,2578,2614,2630,2626,2610,2590,2554,2514,2454,2386,2314,2242,2166,2102,2046,1981,1917,1861,1821,1789,1761,1737,1701,1673,1649,1633,1617,1605,1581,1561,1537,1513,1497,1485,1473,1461,1453,1473,1517,1597,1721,1869,2013,2130,2198,2230,2246,2238,2222,2194,2158,2126,2086,2034,1985,1937,1885,1849,1813,1777,1741,1725,1713,1705,1709,1721,1721,1717,1713,1713,1709,1697,1689,1677,1669,1665,1665,1653,1645,1637,1641,1681,1745,1845,1965,2069,2150,2198,2214,2222,2218,2206,2186,2158,2130,2098,2049,2013,1977,1945,1917,1889,1865,1849,1837,1833,1841,1853,1861,1861,1857,1849,1841,1829,1813,1801,1797,1801,1797,1785,1773,1761,1765,1793,1869,1965,2069,2182,2282,2354,2394,2398,2390,2370,2346,2318,2286,2250,2214,2174,2130,2082,2034,2001,1973,1953,1933,1913,1893,1881,1869,1861,1857,1849,1841,1821,1797,1773,1757,1745,1725,1709,1701,1701,1709,1741,1809,1909,2018,2110,2182,2250,2294,2318,2326,2318,2302,2286,2262,2238,2206,2170,2142,2106,2061,2022,1985,1961,1945,1925,1905,1885,1861,1841,1833,1829,1821,1809,1797,1785,1773,1761,1741,1721,1705,1697,1709,1745,1825,1953,2110,2254,2382,2454,2510,2542,2554,2546,2530,2514,2486,2450,2402,2342,2278,2226,2174,2122,2073,2038,2009,1989,1965,1945,1925,1909,1893,1877,1861,1845,1821,1797,1781,1765,1757,1745,1725,1697,1685,1705,1785,1877,2013,2170,2306,2410,2462,2482,2486,2478,2466,2446,2422,2394,2358,2310,2250,2186,2134,2086,2042,1993,1941,1889,1833,1781,1737,1693,1657,1625,1589,1549,1513,1473,1433,1405,1381,1357,1341,1321,1305,1293,1293,1337,1421,1549,1701,1841,1957,2038,2069,2086,2077,2065,2038,2013,1985,1953,1909,1853,1789,1725,1669,1629,1585,1561,1545,1541,1541,1545,1589,1685,1709,1713,1705,1701,1701,1701,1693,1681,1665,1657,1653,1633,1617,1621,1661,1737,1841,1957,2065,2154,2210,2242,2250,2238,2210,2178,2150,2118,2086,2042,1997,1953,1905,1861,1829,1801,1781,1777,1777,1777,1777,1769,1765,1757,1749,1733,1717,1717,1713,1713,1709,1709,1705,1701,1685,1681,1737,1817,1949,2094,2222,2330,2402,2446,2462,2454,2434,2410,2390,2362,2330,2306,2282,2250,2214,2182,2150,2126,2110,2102,2102,2106,2106,2106,2106,2106,2098,2077,2053,2030,2009,1989,1969,1949,1917,1893,1881,1889,1933,2013,2126,2250,2362,2442,2502,2534,2538,2530,2518,2498,2474,2438,2394,2350,2310,2278,2238,2186,2138,2094,2057,2038,2022,2001,1985,1973,1957,1925,1917,1905,1893,1877,1857,1833,1813,1797,1785,1769,1765,1789,1849,1945,2090,2262,2434,2574,2666,2718,2750,2770,2774,2766,2742,2706,2662,2618,2578,2526,2470,2410,2358,2310,2270,2238,2214,2190,2162,2138,2122,2102,2086,2061,2038,2013,1989,1965,1937,1917,1905,1893,1877,1873,1901,1977,2122,2254,2410,2542,2634,2698,2726,2730,2726,2710,2678,2638,2598,2566,2530,2478,2410,2350,2294,2234,2162,2082,2005,1941,1893,1861,1825,1785,1741,1685,1641,1613,1573,1525,1485,1461,1437,1421,1405,1389,1377,1389,1453,1561,1693,1849,1997,2114,2190,2226,2230,2222,2202,2174,2142,2110,2077,2030,1965,1905,1849,1793,1745,1709,1681,1669,1665,1665,1669,1677,1689,1717,1721,1717,1705,1705,1705,1701,1689,1673,1661,1657,1653,1649,1653,1689,1773,1885,1997,2110,2186,2234,2254,2254,2234,2198,2162,2122,2082,2034,1993,1949,1905,1857,1813,1781,1769,1753,1741,1737,1737,1737,1737,1737,1737,1737,1737,1737,1737,1737,1733,1725,1725,1725,1725,1729,1745,1785,1905,2026,2186,2270,2346,2406,2434,2446,2438,2414,2390,2366,2338,2314,2278,2238,2182,2150,2110,2086,2053,2030,2009,2001,2001,1997,1981,1961,1937,1921,1905,1893,1881,1869,1861,1849,1833,1805,1777,1777,1805,1853,1965,2061,2174,2290,2378,2426,2450,2442,2434,2410,2386,2362,2326,2286,2250,2210,2170,2130,2090,2049,2013,1981,1961,1949,1945,1937,1929,1921,1877,1853,1841,1825,1809,1797,1789,1789,1781,1765,1753,1765,1829,1933,2065,2238,2398,2522,2602,2634,2634,2630,2610,2582,2542,2498,2450,2398,2342,2294,2230,2154,2090,2049,2013,1981,1945,1913,1881,1861,1849,1845,1837,1825,1813,1801,1785,1761,1745,1725,1709,1701,1705,1721,1781,1889,2046,2190,2334,2462,2546,2590,2602,2586,2554,2510,2446,2382,2314,2238,2166,2098,2022,1937,1865,1801,1753,1709,1677,1653,1633,1617,1605,1593,1573,1565,1557,1533,1509,1497,1469,1449,1429,1401,1373,1365,1361,1381,1469,1617,1801,1957,2098,2194,2242,2250,2242,2222,2182,2138,2098,2053,2013,1961,1909,1853,1801,1753,1717,1697,1685,1669,1673,1677,1677,1673,1669,1657,1693,1693,1689,1685,1685,1685,1685,1685,1685,1689,1697,1733,1821,1961,2126,2294,2430,2518,2570,2586,2582,2562,2534,2502,2466,2414,2366,2314,2250,2190,2130,2073,2013,1957,1925,1913,1901,1893,1881,1865,1841,1817,1793,1761,1717,1685,1665,1649,1629,1605,1581,1577,1597,1665,1753,1885,2030,2158,2258,2326,2354,2370,2370,2354,2322,2286,2254,2214,2166,2110,2049,1989,1945,1905,1865,1833,1809,1793,1793,1793,1785,1769,1757,1737,1717,1705,1693,1689,1685,1685,1677,1669,1665,1665,1677,1717,1813,1941,2077,2214,2334,2422,2470,2490,2490,2474,2450,2422,2390,2354,2318,2270,2214,2162,2110,2061,2026,1997,1965,1933,1913,1905,1913,1913,1917,1909,1897,1881,1825,1797,1777,1761,1741,1721,1701,1689,1677,1669,1713,1821,1981,2154,2302,2438,2538,2598,2626,2634,2630,2610,2578,2546,2510,2454,2394,2338,2278,2222,2162,2110,2069,2034,1993,1957,1913,1861,1821,1777,1721,1657,1609,1569,1521,1473,1409,1353,1309,1273,1253,1245,1233,1237,1273,1357,1493,1641,1813,1973,2090,2154,2190,2190,2178,2146,2122,2098,2065,2034,1997,1937,1873,1821,1769,1721,1681,1641,1621,1605,1597,1597,1597,1597,1597,1597,1597,1597,1597,1597,1589,1577,1573,1573,1573,1573,1573,1585,1633,1737,1885,2049,2238,2382,2474,2502,2490,2458,2414,2366,2322,2274,2222,2162,2102,2030,1957,1893,1849,1825,1809,1797,1801,1813,1825,1829,1825,1809,1885,1913,1909,1901,1893,1885,1873,1857,1845,1829,1825,1829,1849,1909,2018,2170,2310,2450,2582,2674,2714,2710,2678,2642,2610,2578,2538,2498,2450,2406,2354,2290,2226,2182,2150,2130,2126,2122,2122,2122,2114,2102,2077,2053,2026,2001,1981,1965,1937,1909,1893,1881,1865,1853,1861,1901,1981,2106,2250,2382,2474,2558,2618,2650,2654,2642,2614,2590,2562,2534,2490,2430,2374,2326,2270,2214,2170,2138,2110,2077,2042,2013,1993,1985,1981,1981,1973,1961,1949,1933,1921,1909,1897,1885,1869,1853,1845,1865,1917,2013,2150,2306,2450,2566,2634,2678,2686,2678,2666,2654,2634,2614,2590,2554,2506,2446,2394,2342,2298,2258,2218,2186,2162,2134,2110,2082,2069,2061,1861,1753,1701,1669,1649,1625,1601,1569,1541,1521,1501,1489,1505,1561,1681,1849,2038,2218,2358,2442,2494,2510,2498,2474,2438,2406,2370,2322,2258,2182,2102,2030,1961,1897,1845,1801,1765,1729,1701,1677,1677,1673,1673,1673,1673,1665,1645,1613,1577,1549,1525,1493,1449,1401,1361,1341,1365,1429,1545,1701,1861,2001,2106,2162,2182,2174,2150,2110,2069,2026,1977,1925,1857,1781,1701,1633,1569,1505,1449,1405,1389,1389,1393,1393,1393,1381,1365,1337,1321,1305,1285,1269,1261,1245,1229,1201,1177,1161,1153,1169,1233,1353,1533,1733,1917,2057,2142,2182,2194,2182,2150,2102,2046,1981,1925,1857,1789,1721,1665,1625,1577,1541,1521,1501,1489,1497,1509,1525,1693,1753,1761,1753,1741,1733,1729,1725,1725,1721,1713,1701,1689,1685,1717,1813,1937,2102,2266,2398,2486,2534,2542,2530,2502,2458,2406,2350,2286,2230,2166,2106,2046,1989,1933,1901,1873,1857,1857,1869,1881,1897,1905,1909,1905,1901,1901,1893,1885,1885,1897,1909,1909,1909,1901,1897,1917,1981,2106,2254,2398,2546,2666,2742,2778,2786,2770,2734,2686,2638,2586,2534,2482,2422,2366,2298,2226,2158,2102,2069,2038,2009,1981,1949,1925,1917,1917,1917,1909,1893,1873,1849,1821,1805,1789,1773,1753,1741,1745,1801,1909,2065,2230,2358,2474,2566,2622,2646,2650,2638,2614,2578,2534,2494,2442,2386,2338,2290,2246,2194,2142,2102,2073,2046,2030,2013,1993,1969,1841,1773,1745,1725,1717,1709,1701,1689,1665,1629,1605,1589,1593,1621,1681,1797,1949,2102,2230,2306,2362,2394,2406,2398,2386,2362,2338,2294,2242,2194,2150,2110,2069,2013,1957,1909,1873,1845,1837,1821,1805,1781,1757,1741,1729,1729,1725,1717,1705,1693,1685,1673,1657,1637,1613,1601,1597,1633,1713,1813,1925,2018,2077,2102,2102,2090,2061,2026,1981,1949,1913,1865,1813,1761,1709,1673,1633,1585,1541,1513,1501,1501,1497,1493,1489,1477,1469,1461,1457,1453,1445,1433,1417,1397,1389,1381,1365,1341,1329,1337,1365,1441,1565,1713,1853,1961,2022,2061,2077,2069,2049,2013,1977,1949,1917,1873,1821,1769,1717,1673,1629,1597,1581,1569,1569,1569,1569,1565,1689,1745,1761,1761,1753,1745,1745,1741,1733,1729,1729,1729,1729,1729,1741,1785,1869,1993,2130,2250,2338,2390,2414,2418,2398,2374,2342,2314,2290,2262,2234,2194,2146,2106,2069,2042,2026,2022,2018,2026,2034,2038,2038,2026,2022,2013,1993,1973,1945,1929,1917,1905,1889,1881,1881,1889,1917,1977,2086,2194,2314,2426,2506,2550,2566,2546,2522,2498,2466,2430,2382,2338,2298,2246,2194,2142,2094,2057,2018,1985,1957,1937,1925,1925,1929,1925,1913,1901,1889,1877,1869,1841,1821,1801,1777,1753,1753,1785,1869,1985,2122,2242,2358,2442,2514,2538,2538,2526,2510,2494,2470,2446,2410,2366,2326,2286,2246,2202,2162,2130,2110,2094,2077,2061,2046,2030,1941,1897,1877,1857,1833,1809,1793,1781,1765,1749,1737,1733,1753,1785,1861,1985,2142,2302,2442,2538,2618,2666,2682,2674,2662,2634,2590,2546,2506,2462,2398,2322,2250,2194,2134,2077,2034,2001,1973,1949,1933,1921,1901,1877,1849,1821,1797,1781,1761,1745,1733,1717,1693,1669,1645,1633,1649,1701,1793,1913,2042,2158,2238,2286,2310,2298,2262,2214,2158,2106,2042,1981,1921,1861,1805,1745,1677,1617,1573,1537,1505,1485,1457,1441,1437,1433,1417,1397,1373,1345,1321,1305,1289,1277,1269,1265,1257,1241,1229,1217,1221,1253,1341,1489,1669,1845,1973,2073,2142,2174,2178,2166,2142,2106,2061,2009,1949,1881,1817,1765,1713,1669,1637,1617,1597,1585,1569,1573,1717,1781,1793,1789,1785,1777,1773,1769,1765,1765,1765,1765,1765,1765,1749,1749,1761,1805,1893,2009,2130,2222,2274,2314,2330,2322,2306,2286,2270,2254,2230,2198,2154,2114,2077,2042,2013,1993,1969,1953,1945,1945,1945,1941,1941,1937,1933,1933,1929,1921,1913,1905,1901,1901,1897,1893,1893,1901,1913,1937,2001,2094,2206,2310,2394,2442,2466,2470,2454,2438,2418,2398,2374,2338,2294,2254,2206,2158,2114,2069,2030,1993,1965,1945,1937,1929,1925,1925,1917,1909,1905,1893,1885,1873,1857,1837,1821,1805,1789,1777,1773,1789,1837,1917,2022,2134,2238,2326,2394,2426,2446,2454,2446,2430,2410,2390,2366,2338,2306,2274,2242,2210,2182,2150,2122,2098,2082,2073,2009,1969,1941,1921,1897,1873,1849,1825,1813,1801,1789,1773,1757,1737,1717,1709,1729,1793,1885,2018,2178,2334,2458,2542,2586,2606,2606,2598,2574,2542,2506,2470,2426,2374,2310,2242,2190,2142,2086,2042,2009,1993,1977,1961,1937,1909,1869,1825,1781,1741,1697,1645,1597,1549,1497,1445,1397,1349,1317,1297,1305,1353,1437,1553,1697,1829,1949,2042,2090,2122,2134,2126,2098,2061,2030,2005,1961,1905,1841,1773,1709,1657,1601,1561,1529,1517,1509,1513,1513,1513,1513,1513,1513,1517,1517,1509,1489,1461,1441,1429,1425,1425,1421,1405,1397,1425,1509,1645,1809,1953,2061,2134,2166,2182,2174,2138,2098,2053,2022,1973,1917,1857,1801,1741,1697,1661,1621,1601,1697,1745,1757,1765,1761,1757,1757,1757,1757,1757,1757,1757,1757,1769,1809,1873,1969,2086,2206,2298,2354,2370,2374,2366,2350,2334,2314,2294,2270,2242,2210,2170,2130,2098,2073,2053,2038,2030,2026,2005,1989,1973,1957,1941,1929,1917,1901,1877,1861,1845,1829,1809,1789,1769,1753,1737,1725,1717,1713,1725,1761,1829,1933,2061,2186,2278,2362,2422,2458,2466,2458,2438,2418,2394,2370,2338,2302,2266,2238,2198,2154,2122,2094,2069,2049,2034,2018,2001,1989,1981,1969,1949,1937,1933,1933,1925,1917,1905,1893,1881,1869,1861,1861,1865,1885,1941,2030,2146,2254,2346,2438,2502,2542,2558,2554,2538,2518,2486,2458,2426,2386,2346,2298,2250,2206,2170,2134,2106,2018,1961,1929,1913,1905,1893,1873,1849,1825,1805,1793,1781,1761,1737,1717,1701,1685,1661,1637,1625,1645,1721,1837,1981,2106,2238,2350,2426,2466,2474,2462,2446,2438,2426,2398,2358,2306,2258,2214,2174,2130,2077,2026,1993,1965,1941,1933,1917,1893,1873,1845,1809,1765,1705,1641,1585,1549,1501,1453,1401,1373,1349,1325,1293,1277,1293,1365,1477,1601,1741,1877,1981,2042,2069,2086,2086,2065,2030,1997,1961,1925,1885,1837,1789,1745,1701,1657,1621,1585,1561,1553,1549,1549,1553,1557,1553,1545,1533,1521,1521,1521,1513,1505,1501,1489,1473,1449,1421,1417,1449,1529,1633,1753,1893,2022,2118,2178,2198,2198,2178,2146,2110,2069,2018,1973,1921,1869,1817,1889,1909,1909,1897,1889,1881,1869,1861,1845,1833,1813,1793,1769,1757,1753,1745,1725,1701,1677,1657,1641,1637,1633,1629,1637,1677,1769,1881,2026,2166,2278,2354,2398,2418,2414,2390,2362,2342,2326,2306,2282,2250,2210,2174,2154,2150,2142,2138,2142,2158,2166,2166,2162,2162,2162,2162,2162,2154,2138,2118,2086,2057,2030,2005,1989,1981,1985,2005,2065,2158,2278,2378,2490,2582,2646,2678,2682,2670,2654,2622,2590,2554,2514,2474,2430,2382,2334,2286,2238,2194,2162,2138,2126,2118,2110,2102,2086,2065,2046,2034,2018,1997,1985,1961,1949,1933,1929,1925,1929,1945,1989,2073,2202,2338,2458,2546,2630,2690,2726,2742,2742,2726,2702,2670,2634,2602,2566,2526,2378,2286,2226,2186,2162,2138,2110,2082,2061,2046,2038,2026,2013,1993,1973,1953,1933,1913,1897,1877,1857,1841,1833,1841,1865,1929,2026,2146,2258,2350,2410,2454,2482,2486,2482,2466,2438,2410,2378,2350,2310,2258,2206,2166,2130,2094,2057,2026,1997,1977,1957,1949,1941,1933,1917,1901,1881,1865,1853,1837,1817,1793,1773,1745,1717,1689,1669,1673,1705,1765,1845,1925,1993,2034,2046,2042,2026,2005,1985,1957,1929,1897,1865,1833,1797,1757,1725,1685,1653,1629,1617,1613,1609,1605,1601,1597,1589,1581,1573,1577,1573,1565,1549,1537,1537,1537,1533,1525,1521,1529,1557,1613,1701,1813,1925,2018,2077,2106,2114,2106,2086,2061,2038,2013,1989,1953,1909,1869,1857,1833,1809,1777,1757,1741,1733,1725,1725,1725,1721,1721,1721,1721,1721,1721,1721,1721,1717,1709,1705,1697,1689,1685,1713,1773,1869,1969,2077,2178,2250,2282,2290,2278,2262,2242,2226,2214,2194,2166,2126,2077,2034,2001,1973,1953,1941,1925,1909,1901,1893,1893,1893,1889,1893,1889,1877,1869,1861,1849,1841,1829,1817,1805,1801,1801,1841,1921,2034,2146,2234,2298,2342,2362,2354,2334,2310,2286,2254,2218,2186,2154,2106,2065,2026,1981,1949,1925,1905,1893,1885,1877,1873,1873,1869,1865,1861,1865,1861,1841,1821,1809,1801,1789,1773,1761,1761,1789,1837,1925,2038,2154,2254,2330,2378,2402,2406,2406,2394,2374,2354,2330,2306,2270,2234,2198,2162,2130,2102,2061,2030,2001,1985,1977,1977,1973,1957,1929,1897,1873,1845,1825,1817,1809,1793,1781,1769,1757,1745,1765,1833,1941,2069,2230,2378,2498,2574,2618,2626,2614,2598,2574,2542,2494,2446,2394,2342,2286,2218,2146,2094,2061,2030,1997,1969,1937,1909,1881,1841,1797,1761,1721,1681,1625,1565,1513,1461,1413,1369,1353,1329,1309,1301,1333,1413,1525,1685,1849,2001,2106,2162,2174,2166,2150,2126,2090,2049,2001,1949,1889,1833,1781,1721,1661,1621,1585,1557,1541,1529,1529,1533,1533,1533,1533,1533,1521,1509,1505,1497,1489,1481,1473,1465,1457,1453,1457,1509,1621,1789,1941,2094,2218,2286,2310,2302,2278,2246,2210,2166,2118,2061,2001,1949,1889,1829,1781,1837,1861,1861,1865,1877,1889,1889,1881,1873,1865,1853,1845,1837,1829,1821,1805,1793,1781,1769,1761,1761,1769,1813,1905,2030,2158,2274,2362,2434,2474,2490,2482,2462,2434,2398,2366,2338,2306,2278,2246,2214,2178,2142,2118,2106,2102,2102,2102,2106,2106,2110,2098,2082,2061,2038,2013,1985,1957,1933,1917,1901,1889,1893,1933,1985,2082,2198,2302,2386,2446,2478,2490,2490,2478,2458,2434,2410,2374,2330,2282,2222,2166,2126,2094,2069,2046,2022,1997,1973,1953,1941,1933,1925,1921,1917,1913,1905,1889,1869,1849,1833,1825,1817,1821,1833,1873,1953,2057,2166,2286,2394,2470,2510,2518,2506,2494,2478,2466,2450,2430,2402,2362,2314,2282,2246,2210,2166,2134,2042,1985,1957,1929,1905,1889,1869,1849,1829,1801,1777,1765,1745,1729,1713,1693,1665,1649,1645,1677,1761,1893,2061,2198,2322,2434,2506,2546,2550,2538,2518,2502,2478,2446,2398,2338,2282,2218,2158,2094,2034,1981,1945,1917,1905,1889,1869,1841,1813,1789,1769,1749,1709,1665,1617,1565,1513,1461,1405,1369,1333,1309,1301,1333,1417,1545,1685,1797,1905,1989,2018,2022,2022,2009,1989,1957,1913,1861,1805,1749,1697,1649,1589,1545,1513,1485,1477,1473,1473,1473,1473,1473,1477,1485,1485,1469,1445,1429,1421,1417,1409,1409,1393,1373,1361,1369,1421,1529,1697,1881,2038,2142,2214,2250,2250,2238,2214,2186,2154,2114,2057,1997,1909,1857,1797,1745,1717,1709,1805,1849,1857,1857,1853,1853,1853,1849,1841,1829,1817,1805,1793,1781,1773,1757,1741,1725,1717,1721,1745,1821,1941,2090,2238,2358,2426,2466,2478,2482,2466,2442,2414,2378,2342,2302,2262,2218,2174,2134,2094,2057,2038,2034,2030,2030,2030,2030,2013,2009,2001,1989,1965,1937,1921,1909,1893,1885,1873,1861,1857,1869,1909,1977,2073,2202,2326,2430,2498,2530,2526,2518,2506,2486,2462,2430,2390,2342,2302,2246,2194,2150,2110,2073,2038,2005,1981,1961,1945,1933,1929,1929,1929,1917,1905,1897,1881,1869,1857,1845,1829,1821,1817,1829,1869,1957,2082,2218,2334,2446,2530,2578,2602,2602,2586,2574,2554,2530,2506,2478,2434,2382,2314,2270,2226,2186,2154,2122,2018,1961,1937,1921,1901,1881,1861,1837,1809,1785,1773,1761,1749,1733,1721,1705,1693,1685,1705,1773,1893,2049,2206,2322,2426,2494,2526,2526,2518,2498,2478,2458,2434,2398,2342,2270,2202,2134,2061,1985,1905,1833,1781,1729,1685,1641,1597,1561,1537,1513,1485,1453,1425,1397,1377,1353,1329,1321,1313,1309,1309,1321,1353,1453,1557,1741,1869,1981,2077,2146,2174,2182,2174,2158,2138,2102,2057,1997,1929,1873,1801,1753,1701,1657,1617,1601,1585,1569,1561,1557,1557,1557,1557,1557,1557,1557,1557,1557,1557,1549,1537,1533,1525,1525,1537,1577,1669,1809,1961,2094,2186,2250,2274,2266,2246,2230,2210,2182,2138,2073,2009,1949,1897,1845,1805,1781,1765,1789,1885,1917,1929,1933,1937,1937,1929,1921,1905,1885,1865,1853,1841,1829,1821,1805,1781,1769,1757,1773,1821,1917,2046,2182,2298,2374,2410,2422,2410,2390,2366,2342,2318,2294,2258,2210,2158,2114,2077,2034,1989,1957,1937,1925,1913,1909,1905,1897,1885,1873,1865,1865,1869,1861,1849,1829,1813,1801,1789,1777,1777,1805,1869,1945,2057,2186,2302,2402,2470,2494,2498,2494,2494,2486,2466,2438,2402,2362,2318,2278,2242,2198,2158,2118,2086,2057,2042,2030,2026,2018,2013,2001,1989,1977,1969,1953,1937,1925,1913,1897,1885,1877,1877,1893,1929,1993,2086,2194,2326,2446,2534,2598,2642,2658,2666,2662,2650,2638,2606,2574,2538,2490,2442,2394,2342,2302,2262,2182,2049,1989,1961,1945,1937,1925,1905,1881,1853,1837,1825,1805,1781,1749,1721,1701,1689,1681,1681,1705,1761,1857,1961,2090,2222,2326,2394,2426,2442,2434,2410,2374,2330,2274,2202,2122,2038,1953,1873,1793,1721,1665,1601,1545,1509,1485,1469,1465,1469,1469,1461,1453,1445,1437,1429,1417,1405,1389,1369,1353,1345,1325,1313,1313,1337,1405,1505,1645,1801,1929,2026,2077,2094,2090,2077,2049,2013,1981,1957,1929,1889,1841,1789,1741,1701,1673,1641,1613,1593,1577,1573,1573,1569,1557,1545,1533,1529,1525,1521,1513,1509,1509,1505,1493,1473,1453,1445,1465,1525,1625,1749,1893,2022,2114,2158,2166,2154,2138,2114,2090,2061,2026,1989,1945,1905,1865,1821,1829,1905,1917,1917,1917,1917,1917,1917,1917,1917,1917,1913,1905,1897,1893,1889,1885,1889,1893,1893,1889,1885,1897,1937,2013,2122,2230,2354,2462,2530,2554,2550,2522,2490,2462,2438,2402,2354,2310,2274,2222,2166,2114,2073,2046,2026,2001,1985,1969,1945,1925,1913,1905,1893,1877,1857,1833,1817,1797,1769,1741,1729,1729,1729,1733,1757,1825,1925,2046,2150,2238,2314,2370,2394,2402,2394,2374,2350,2322,2290,2254,2222,2190,2146,2102,2065,2038,2009,1981,1957,1933,1921,1917,1917,1917,1913,1905,1893,1881,1869,1857,1849,1837,1821,1797,1781,1781,1805,1869,1973,2102,2230,2350,2434,2482,2514,2518,2514,2502,2490,2466,2446,2422,2398,2362,2322,2286,2250,2194,2090,2013,1953,1905,1861,1817,1777,1737,1693,1649,1609,1557,1505,1461,1421,1393,1373,1345,1321,1317,1317,1329,1377,1477,1629,1789,1937,2046,2106,2134,2134,2118,2086,2042,2005,1981,1949,1905,1849,1785,1725,1673,1629,1585,1545,1525,1517,1513,1509,1505,1513,1513,1513,1513,1509,1505,1505,1497,1485,1481,1469,1445,1425,1425,1457,1529,1633,1777,1925,2049,2130,2170,2174,2158,2122,2077,2034,1997,1969,1929,1873,1805,1737,1677,1637,1605,1585,1581,1577,1577,1581,1581,1577,1573,1561,1549,1545,1529,1505,1489,1481,1469,1445,1425,1401,1389,1421,1517,1673,1829,2001,2142,2218,2242,2242,2238,2226,2218,2198,2158,2118,2073,2034,1989,1937,1897,1849,1869,1989,2001,1989,1985,1989,1993,1997,2001,2009,2009,1997,1981,1953,1937,1921,1905,1889,1873,1869,1885,1949,2082,2258,2438,2594,2694,2758,2786,2782,2774,2754,2726,2694,2662,2626,2570,2518,2474,2426,2366,2302,2250,2210,2182,2154,2138,2130,2118,2102,2082,2061,2042,2030,2018,2001,1977,1961,1937,1917,1901,1905,1953,2030,2150,2306,2466,2602,2710,2770,2790,2794,2778,2750,2718,2686,2654,2610,2550,2498,2442,2382,2322,2274,2234,2202,2178,2154,2134,2110,2086,2057,2042,2034,2030,2022,2009,1993,1973,1945,1917,1897,1885,1893,1941,2042,2190,2334,2490,2638,2750,2814,2842,2838,2822,2790,2758,2710,2634,2554,2478,2374,2258,2142,2046,1961,1893,1817,1701,1529,1461,1421,1401,1381,1361,1353,1341,1325,1321,1317,1313,1317,1321,1321,1321,1313,1325,1373,1469,1609,1761,1893,2022,2110,2154,2162,2154,2134,2102,2061,2030,1989,1937,1881,1813,1753,1705,1657,1609,1581,1569,1565,1569,1577,1577,1581,1569,1557,1553,1549,1545,1541,1541,1541,1533,1517,1497,1485,1497,1537,1621,1749,1889,2030,2130,2206,2242,2242,2234,2214,2178,2138,2094,2046,1989,1929,1865,1805,1757,1713,1677,1657,1645,1649,1661,1669,1673,1665,1661,1661,1665,1673,1673,1661,1641,1621,1609,1597,1589,1589,1609,1669,1773,1929,2106,2258,2370,2430,2454,2458,2446,2414,2370,2322,2278,2234,2182,2118,2057,2005,1957,1913,1877,1845,1821,1805,1837,1925,1937,1933,1929,1917,1905,1885,1861,1833,1813,1793,1773,1769,1769,1785,1833,1917,2030,2146,2266,2374,2450,2502,2530,2530,2522,2498,2474,2450,2418,2378,2342,2290,2226,2178,2142,2118,2098,2082,2065,2046,2034,2018,2005,1993,1985,1981,1977,1977,1969,1961,1941,1917,1901,1897,1905,1933,1985,2077,2206,2354,2486,2574,2642,2686,2706,2718,2714,2698,2678,2650,2614,2578,2538,2490,2442,2390,2334,2286,2246,2210,2190,2182,2174,2158,2142,2122,2106,2082,2053,2034,2009,1985,1973,1961,1949,1937,1925,1933,1969,2038,2154,2294,2438,2562,2646,2694,2726,2746,2746,2734,2722,2698,2662,2610,2546,2470,2382,2302,2222,2130,2030,1949,1881,1833,1793,1749,1649,1489,1425,1385,1353,1329,1313,1301,1289,1281,1281,1277,1273,1265,1261,1289,1345,1445,1589,1753,1905,2026,2102,2150,2166,2158,2142,2118,2090,2053,2013,1965,1905,1837,1777,1733,1685,1645,1613,1597,1581,1569,1565,1565,1565,1565,1565,1565,1553,1541,1529,1509,1489,1481,1485,1485,1481,1481,1497,1553,1653,1801,1957,2110,2230,2298,2326,2326,2298,2250,2206,2166,2130,2094,2046,1981,1909,1845,1797,1765,1745,1729,1721,1729,1733,1737,1733,1729,1725,1717,1709,1701,1701,1697,1689,1677,1665,1657,1649,1649,1669,1729,1841,1965,2114,2254,2374,2458,2498,2506,2490,2462,2430,2390,2338,2286,2238,2190,2130,2061,2001,1953,1925,1897,1869,1841,1813,1789,1829,1921,1937,1933,1925,1913,1905,1889,1873,1857,1837,1817,1801,1793,1793,1829,1905,2013,2142,2246,2346,2422,2474,2498,2506,2494,2474,2458,2438,2418,2382,2342,2306,2270,2234,2194,2150,2122,2102,2082,2057,2042,2026,2013,2005,1997,1989,1973,1961,1945,1933,1925,1913,1901,1889,1877,1877,1897,1953,2049,2182,2318,2434,2518,2582,2622,2646,2658,2662,2654,2638,2614,2582,2550,2510,2470,2422,2362,2310,2274,2238,2206,2174,2146,2130,2122,2106,2094,2082,2065,2046,2022,1997,1973,1957,1941,1921,1905,1889,1873,1873,1905,1977,2082,2206,2314,2386,2442,2478,2490,2478,2458,2422,2378,2322,2266,2210,2150,2090,2030,1969,1913,1861,1817,1789,1773,1769,1765,1701,1565,1517,1505,1493,1481,1457,1433,1409,1401,1393,1385,1373,1361,1345,1337,1337,1357,1409,1509,1645,1797,1917,2022,2102,2146,2158,2158,2150,2130,2098,2061,2022,1969,1921,1877,1825,1777,1737,1705,1681,1665,1653,1641,1629,1621,1613,1605,1593,1577,1569,1569,1557,1553,1545,1537,