70,115,225,397,595,746,851,907,922,908,870,814,747,684,628,568,511,458,410,362,320,267,230,193,165,139,116,94,76,64,57,50,42,38,32,29,34,39,43,48,52,57,62,67,73,81,88,88,85,98,161,264,430,624,802,932,1003,1016,994,949,889,816,736,662,599,536,477,417,365,323,298,274,248,220,193,171,160,147,139,133,125,113,105,94,85,81,80,84,95,104,106,104,99,98,98,99,101,101,106,132,199,292,444,624,789,910,973,980,953,901,837,763,689,616,551,490,435,385,326,271,224,183,146,112,84,57,39,22,7,0,1,4,120,171,182,181,181,182,186,186,185,185,186,188,192,192,189,189,204,273,376,493,624,735,809,844,845,823,785,738,687,637,588,550,511,476,444,416,390,371,355,343,327,312,299,294,285,278,270,264,259,252,246,239,234,230,227,230,234,237,235,232,230,232,235,237,238,250,299,399,511,647,773,863,914,926,911,879,831,773,711,652,600,560,516,479,445,413,381,354,329,309,298,290,283,277,269,263,256,249,239,232,230,225,221,216,206,199,197,195,193,190,182,172,172,183,232,327,465,617,733,830,889,911,904,877,840,793,738,666,586,539,504,479,459,442,423,404,389,375,360,346,330,315,301,290,278,267,260,256,253,248,244,238,234,230,227,225,224,220,214,210,207,203,203,223,278,376,498,616,697,760,796,803,785,753,717,675,630,585,542,504,476,453,430,406,382,361,341,326,309,295,284,276,269,264,257,250,244,237,231,228,227,224,220,213,206,200,195,190,190,190,188,188,199,239,319,430,547,648,711,756,774,770,743,705,666,624,582,544,511,483,459,438,420,403,388,372,361,348,333,315,301,288,277,269,263,259,255,249,245,241,235,228,225,221,218,230,257,260,257,257,257,263,283,334,420,522,623,698,743,770,777,765,739,704,669,631,592,557,525,500,480,466,451,435,423,409,396,386,374,361,348,337,329,325,318,309,304,298,294,290,288,285,283,277,271,267,266,266,266,267,283,320,382,469,561,642,703,738,750,750,736,714,684,649,614,581,551,528,505,487,470,452,434,414,395,375,358,344,329,313,299,285,276,270,264,260,255,248,239,235,230,224,218,216,213,213,211,203,195,199,231,288,361,453,542,610,655,676,677,668,648,621,588,551,521,490,460,438,420,404,392,375,357,355,378,372,364,354,346,337,327,318,312,309,309,308,304,298,294,290,284,281,278,276,274,276,276,276,276,284,315,361,428,500,563,606,633,644,642,631,614,593,570,544,522,498,479,463,451,438,428,416,402,389,378,367,358,350,341,336,332,327,322,316,312,309,305,301,297,295,291,290,287,284,283,281,280,280,284,304,343,392,456,525,582,620,641,645,640,627,610,589,567,544,525,505,487,473,462,452,444,434,424,411,399,386,379,374,365,358,350,344,340,337,334,332,329,325,322,320,319,315,313,311,309,309,309,312,323,350,400,473,584,669,729,767,784,781,770,749,724,694,665,638,614,592,572,553,536,525,515,502,487,470,455,442,432,421,411,403,395,388,382,378,372,367,361,357,355,354,348,344,340,339,339,337,336,341,368,420,494,565,642,711,759,785,792,784,768,746,719,691,662,635,613,593,574,556,539,523,511,497,481,465,451,439,432,423,413,403,395,388,385,381,375,368,362,361,360,357,353,348,343,341,340,340,341,354,393,458,537,612,686,740,774,788,785,771,749,722,693,663,634,612,591,574,560,546,530,514,501,486,469,452,438,427,418,410,403,378,334,319,313,309,304,297,288,283,278,276,274,274,273,270,267,267,271,291,340,418,504,579,651,703,732,740,733,717,694,665,633,600,571,549,530,515,504,491,476,459,442,428,414,402,386,375,367,358,351,344,340,336,332,326,319,313,308,302,299,297,294,292,291,287,283,281,290,322,385,472,560,635,697,735,753,754,743,725,698,668,635,605,579,560,543,528,512,500,484,470,452,437,423,409,397,388,378,368,360,354,348,343,337,333,329,325,319,312,309,309,309,305,299,295,297,304,330,386,469,561,641,698,743,768,774,765,747,728,705,670,634,599,568,546,529,512,497,480,462,445,425,406,386,369,355,344,336,329,319,309,298,290,288,285,283,277,273,270,269,264,262,257,252,248,250,276,330,416,518,620,700,750,784,796,786,767,742,712,679,644,610,582,556,535,518,498,479,460,442,427,407,386,367,351,340,333,325,318,312,306,299,295,294,291,287,283,277,273,269,264,264,263,263,264,276,309,378,476,585,683,746,789,813,816,802,774,745,714,679,644,610,582,557,537,521,504,486,466,446,428,410,393,379,367,354,344,334,326,319,311,305,301,297,288,283,266,230,216,209,200,197,196,196,199,217,271,365,483,603,703,761,799,814,812,793,763,725,686,647,612,581,556,533,514,495,477,456,438,418,402,386,371,355,339,326,316,306,298,290,281,271,263,257,250,246,242,238,235,232,227,221,218,221,238,278,360,473,598,710,791,828,845,841,827,799,761,721,679,638,606,579,556,535,515,493,470,446,424,404,388,369,351,334,315,298,287,280,273,263,253,245,242,239,234,228,225,224,220,214,207,200,197,209,244,308,413,539,658,753,816,841,847,835,812,779,738,696,649,609,578,554,533,512,491,460,434,407,381,358,340,322,305,288,273,257,249,239,231,221,209,200,195,190,185,179,174,169,168,167,161,151,147,169,228,316,444,581,701,788,837,851,845,824,793,756,712,670,626,584,547,516,493,474,449,425,402,378,354,333,316,301,285,271,255,241,232,223,213,202,193,188,186,182,176,171,162,155,153,151,151,148,151,179,242,334,463,596,708,784,820,827,816,789,754,714,670,628,586,546,514,491,473,456,434,410,388,365,343,323,306,291,276,263,252,242,234,223,214,209,202,193,190,186,182,176,172,172,174,174,169,167,183,241,327,435,570,696,792,852,875,870,854,823,786,745,701,662,624,589,557,530,509,491,469,441,413,386,361,341,325,308,292,278,269,262,256,246,235,227,217,210,206,203,199,196,192,188,185,182,179,186,217,288,376,502,641,759,840,883,893,880,858,826,785,736,690,648,610,579,553,523,495,472,449,431,409,386,361,340,322,305,288,274,266,259,253,246,238,228,217,209,204,203,200,195,186,181,178,172,169,183,231,323,424,549,673,775,842,872,872,856,828,789,746,700,655,617,582,549,518,493,470,451,428,404,381,358,336,320,301,278,263,252,242,238,232,224,209,195,189,190,192,189,179,171,165,160,155,150,148,164,211,299,400,522,640,732,788,814,813,792,760,721,679,637,596,563,533,509,487,463,438,421,404,385,365,344,325,312,298,283,269,259,253,250,248,241,232,221,210,202,197,193,192,192,192,190,188,185,188,213,277,385,494,617,732,814,859,870,856,831,799,760,714,668,624,588,557,535,515,494,472,445,416,389,367,347,326,309,290,273,260,252,245,239,234,227,221,214,206,197,192,185,179,176,172,167,162,155,161,196,278,389,511,642,752,824,858,859,842,816,781,739,696,652,616,582,551,528,505,484,460,438,410,385,364,346,329,313,297,281,269,260,252,244,238,234,230,223,209,200,193,189,185,182,179,176,172,171,182,224,306,414,528,648,747,810,835,835,820,795,760,717,670,626,589,556,525,500,480,462,442,420,392,367,344,325,311,297,281,266,255,246,237,230,221,211,203,195,188,183,178,169,164,162,160,157,153,148,154,186,260,367,480,603,703,767,799,802,786,760,725,684,641,599,568,539,511,487,465,442,427,409,388,362,337,318,304,292,278,266,253,244,238,235,230,225,217,214,213,210,204,197,192,188,188,188,183,181,188,221,295,402,515,640,740,806,835,835,817,789,757,719,677,634,602,570,543,519,498,481,466,448,425,403,383,364,347,333,316,302,290,281,273,267,262,256,253,249,241,234,224,214,209,209,207,206,204,206,221,273,368,483,595,705,793,845,866,861,838,805,768,729,684,641,605,572,547,523,502,477,456,438,417,393,367,344,329,316,301,287,274,267,263,262,257,248,238,227,220,217,213,206,197,190,188,190,190,195,220,283,383,487,609,718,799,844,855,842,816,785,749,707,661,619,585,553,525,501,479,453,432,409,383,364,343,319,299,280,264,253,242,231,221,213,203,196,190,183,178,174,167,161,158,155,153,151,146,147,171,237,343,451,572,687,767,812,827,817,791,753,712,672,627,584,547,514,490,470,451,432,414,389,365,346,326,308,291,274,257,245,238,231,224,216,204,193,186,185,185,183,179,172,165,157,151,147,143,150,179,248,354,462,582,690,765,805,813,798,774,739,696,649,606,570,540,511,490,474,458,437,417,396,378,364,347,325,308,291,277,267,259,252,248,242,237,230,221,214,206,200,200,209,209,204,199,195,195,210,257,347,473,589,710,809,869,893,890,870,841,802,756,707,661,624,593,567,543,521,500,477,455,432,407,383,361,340,325,305,288,276,270,264,259,252,242,231,221,213,210,210,209,204,200,196,190,188,190,217,287,396,533,649,760,844,889,903,893,869,835,795,750,700,652,616,586,564,540,518,494,469,445,418,392,368,346,327,313,298,283,270,260,252,246,239,234,228,220,211,210,206,199,195,192,186,181,179,188,227,309,428,558,673,779,851,883,886,869,841,806,761,714,666,621,585,556,532,511,490,458,418,392,365,341,320,302,285,270,253,238,228,223,216,210,200,190,183,175,168,167,161,154,147,143,141,139,136,140,179,263,388,516,626,719,779,806,806,788,760,722,680,635,593,553,523,497,476,456,437,417,396,376,355,333,313,297,283,271,259,248,235,224,216,209,199,189,185,181,176,175,174,169,162,157,153,154,158,176,227,320,449,588,682,764,813,830,820,795,764,729,689,649,613,578,547,521,495,476,455,434,416,395,374,354,333,312,295,284,276,267,257,245,235,228,223,216,207,197,190,190,190,190,189,186,181,183,197,248,348,473,610,726,807,868,897,898,877,845,807,764,721,676,635,600,575,543,523,504,483,459,434,407,383,361,340,322,306,297,284,273,260,249,244,241,237,230,220,211,204,203,202,197,190,185,182,192,225,298,411,546,679,773,847,887,896,882,854,819,781,738,691,645,606,574,550,526,501,476,452,428,409,388,365,343,323,305,292,280,267,253,248,239,231,223,214,207,200,196,190,186,179,172,165,158,157,168,211,299,428,570,693,770,830,865,872,855,821,779,736,689,644,605,570,543,522,501,479,456,434,407,385,364,344,326,309,288,273,262,253,248,238,227,220,214,209,204,203,197,192,188,182,175,168,162,164,182,232,323,446,574,683,750,795,813,807,788,756,724,686,644,602,564,533,509,493,477,460,441,416,395,378,360,343,327,312,298,290,281,274,266,255,245,238,232,224,218,214,214,213,211,207,207,204,203,211,242,315,430,564,691,789,842,870,872,854,823,786,738,700,656,619,584,556,532,509,490,472,449,425,400,379,360,341,326,311,295,287,277,266,255,248,242,241,234,223,214,206,202,199,197,196,190,186,190,214,267,367,494,631,750,831,863,868,852,824,795,760,724,680,638,602,568,539,518,497,477,453,430,404,382,361,334,318,302,291,281,273,262,250,241,234,227,223,214,207,200,193,186,185,182,175,168,164,174,209,276,385,516,641,743,806,830,831,816,791,757,718,679,634,589,554,528,505,488,470,449,427,404,379,353,332,309,292,277,267,260,255,249,244,234,223,214,209,203,196,188,181,174,171,167,164,160,157,172,217,294,410,540,659,747,796,812,809,786,754,719,680,641,600,564,535,512,493,477,459,442,421,400,381,361,343,326,311,298,287,278,271,264,256,248,238,230,224,221,220,218,213,206,204,204,203,202,209,241,298,400,530,665,775,855,884,891,882,858,817,770,725,687,649,614,584,557,535,516,494,469,441,411,388,369,354,341,326,311,295,284,278,274,267,257,244,232,224,221,220,220,218,213,210,204,199,200,224,285,368,488,621,740,830,882,900,894,873,838,795,750,711,673,637,602,572,546,522,495,474,452,428,406,386,368,346,322,301,285,274,266,262,253,246,238,228,220,214,209,203,199,193,186,182,175,168,176,216,297,392,518,649,760,835,870,873,858,834,802,760,710,663,626,592,558,522,493,467,446,424,402,376,350,329,315,301,288,273,259,246,239,231,220,211,204,196,190,185,179,176,172,167,162,158,154,153,164,206,290,388,512,635,731,788,812,809,792,765,732,696,654,607,567,533,508,491,473,455,438,418,396,376,358,337,323,311,299,287,273,262,257,252,245,238,228,218,211,209,207,206,206,206,206,204,199,199,230,281,410,497,613,724,810,845,849,840,817,788,745,710,666,628,586,563,540,518,494,479,453,432,404,385,364,344,326,315,298,287,271,260,252,246,239,231,221,216,210,206,204,202,197,193,196,196,200,228,294,402,514,640,750,828,872,887,877,852,817,777,732,687,644,606,574,550,526,504,479,458,438,413,388,367,344,327,312,298,287,276,266,256,248,238,228,221,214,209,206,200,196,193,189,183,182,183,196,238,319,439,553,672,771,837,866,866,845,813,773,728,682,637,602,574,544,516,488,466,448,431,410,382,354,327,308,295,281,270,259,252,245,239,227,213,203,199,196,192,188,182,175,167,161,158,157,158,176,224,315,441,553,665,753,806,826,819,796,767,729,687,642,598,561,532,507,486,466,448,430,411,392,371,346,325,305,292,280,273,269,263,253,246,237,227,221,217,210,206,203,199,196,195,190,186,185,190,217,280,382,505,607,701,775,819,831,820,795,763,726,686,644,606,575,554,535,512,490,472,452,434,413,392,372,354,336,325,311,297,283,273,267,264,264,270,292,346,424,504,570,624,658,669,658,630,595,553,514,479,448,424,410,402,393,383,371,355,340,325,309,295,280,267,259,252,248,245,239,230,220,217,217,214,209,203,200,199,196,195,192,190,190,193,193,195,190,186,183,186,188,189,188,182,181,196,244,346,491,652,795,891,900,900,889,861,824,785,747,707,668,633,606,584,564,542,514,487,460,435,410,386,361,340,322,306,294,284,274,264,255,246,239,235,231,221,209,197,190,188,185,181,176,172,167,165,179,221,302,410,525,623,690,733,752,747,729,701,669,631,591,556,523,495,474,456,439,421,404,382,361,340,320,304,288,276,267,257,246,237,231,223,214,209,202,196,192,185,176,175,175,172,165,160,155,162,192,260,367,488,605,689,738,767,771,757,731,700,666,627,588,550,521,498,479,462,445,427,407,386,367,344,323,306,295,284,277,270,259,246,237,230,227,223,217,213,209,202,195,190,188,188,185,182,185,203,249,332,442,560,661,728,760,770,760,736,707,675,640,600,563,528,498,476,458,441,423,404,385,365,350,332,311,292,278,270,264,256,249,244,237,227,218,213,207,203,199,192,183,181,178,178,175,178,199,242,323,435,554,662,738,773,785,782,763,733,696,658,623,588,556,525,501,481,465,445,423,402,379,357,339,319,302,288,276,263,253,246,241,235,230,223,217,210,202,195,192,189,185,181,174,168,168,181,221,283,379,493,602,684,736,754,753,735,708,675,638,598,592,565,536,511,488,467,448,425,403,381,361,341,325,304,281,262,248,239,234,227,218,209,199,190,186,181,174,168,164,162,161,158,151,140,139,165,227,318,444,574,682,753,791,798,788,765,733,693,648,609,571,536,507,483,463,448,432,413,386,361,340,325,312,299,288,274,260,249,245,241,235,225,216,209,206,203,196,190,188,185,182,179,172,174,196,257,351,460,588,703,785,831,844,834,809,774,732,691,649,610,571,540,515,493,470,451,431,410,388,362,340,320,305,290,274,260,249,239,234,227,220,214,204,195,192,192,190,186,195,196,196,196,196,211,262,358,479,598,718,807,861,879,870,847,813,774,728,684,644,612,579,549,522,501,481,462,441,416,392,369,347,330,318,302,288,277,266,256,248,241,234,224,214,206,202,197,193,188,182,174,171,171,185,228,309,424,547,656,754,819,848,847,824,792,753,712,670,628,591,561,533,511,491,470,446,425,399,372,347,326,305,287,276,264,259,255,248,238,230,218,210,203,196,189,185,181,178,175,169,162,160,161,186,250,357,487,610,705,781,820,828,814,788,753,714,670,627,588,556,533,512,490,466,446,427,410,389,368,347,330,315,304,290,276,266,260,253,248,241,230,221,217,214,213,211,211,210,206,200,193,193,213,269,369,497,624,714,789,837,854,847,823,792,754,711,666,626,591,561,539,516,497,477,453,430,410,389,367,341,323,306,297,287,276,266,256,250,245,238,224,214,211,210,206,204,204,204,202,196,193,209,257,353,480,616,733,803,844,859,856,838,807,770,728,683,641,605,574,551,532,509,486,460,435,406,385,365,347,330,315,299,288,276,263,252,245,239,235,228,220,214,210,206,202,200,193,188,183,182,192,227,304,423,558,676,767,813,837,838,823,796,763,725,682,638,596,563,536,514,493,467,444,420,395,367,343,323,306,292,276,262,253,244,234,227,221,214,210,204,197,190,183,176,171,168,164,158,153,154,178,232,330,458,586,697,774,809,816,802,777,743,703,663,623,582,546,515,493,473,455,435,417,396,375,353,330,308,288,276,269,263,259,248,234,223,214,209,206,200,195,188,181,176,175,172,167,161,161,176,217,290,403,532,649,738,788,807,807,786,750,711,670,634,598,564,533,508,488,473,455,438,418,396,375,355,340,323,308,295,290,299,320,375,427,472,504,521,519,504,477,444,410,379,358,343,334,329,325,322,318,313,306,298,288,278,270,264,257,249,244,242,241,242,241,237,235,234,234,237,235,234,231,228,227,228,227,223,221,221,221,223,225,224,224,224,224,224,227,232,235,235,235,235,237,238,255,312,423,571,717,830,922,975,985,966,931,893,851,812,771,736,708,683,662,641,619,593,567,542,518,491,465,442,421,407,396,381,364,348,337,329,325,316,306,297,287,280,273,269,264,262,259,255,249,242,242,262,315,403,497,606,707,778,820,834,826,805,777,745,705,600,533,494,466,448,431,417,402,383,365,347,329,312,297,284,271,259,249,238,227,217,213,206,199,190,182,176,175,174,171,168,165,160,157,157,171,218,306,418,516,609,680,722,735,725,704,676,642,607,568,532,498,473,452,435,421,404,385,367,348,330,315,298,283,271,263,252,241,230,224,221,218,211,203,197,195,190,186,179,178,176,172,168,168,179,217,292,397,512,600,673,721,738,731,703,666,633,599,565,532,498,473,448,430,411,393,374,358,340,320,301,281,266,255,245,238,230,221,211,200,193,186,182,178,176,171,169,168,169,167,161,160,169,204,280,396,535,670,774,834,869,872,852,820,784,745,703,655,613,577,549,523,495,470,449,428,403,374,347,315,292,274,259,250,241,232,224,218,210,202,189,179,175,171,165,158,154,147,140,133,132,141,181,294,459,595,710,775,816,830,819,793,757,717,673,624,579,542,508,484,466,448,430,407,383,357,336,313,295,278,263,249,242,235,225,217,207,197,188,178,169,165,164,162,158,154,148,143,136,136,157,203,294,423,563,683,767,805,820,813,791,756,717,675,633,591,554,522,497,481,466,445,418,392,374,364,350,334,319,304,294,284,276,266,256,249,242,238,231,224,214,206,199,197,197,200,200,197,199,218,273,351,502,630,759,821,847,845,828,802,767,728,686,648,612,578,549,525,502,486,467,445,420,390,365,347,330,315,299,285,271,263,259,253,244,234,227,220,214,209,202,195,192,190,193,190,188,196,235,319,418,542,668,770,837,868,866,845,814,778,738,693,652,619,585,553,526,502,483,466,444,420,395,371,348,330,315,301,288,274,262,252,246,241,235,227,217,211,209,202,192,182,176,174,172,171,175,203,270,381,493,614,718,791,828,835,821,793,756,712,668,626,592,561,533,507,480,455,430,409,388,367,341,318,295,281,270,257,246,237,227,220,211,202,193,186,178,174,175,172,167,158,148,144,143,143,160,213,309,438,550,661,746,793,810,802,779,747,708,666,623,581,547,522,500,479,460,441,421,400,378,358,339,318,297,283,269,260,252,242,231,224,214,204,199,195,190,186,182,179,178,175,169,164,164,179,227,313,435,568,669,753,812,838,837,814,784,749,710,666,623,582,551,529,511,490,467,444,421,402,381,358,336,318,302,292,280,267,257,250,263,267,264,256,246,237,234,232,231,230,230,227,221,220,234,277,362,480,610,718,792,842,865,861,840,809,777,738,697,654,613,578,554,533,514,493,472,449,428,406,382,361,344,332,319,306,292,280,273,266,260,255,246,237,230,224,220,217,211,206,204,203,204,218,259,344,466,599,714,793,833,849,844,823,792,757,722,680,633,591,556,529,511,493,473,451,430,404,381,360,340,325,309,295,285,278,269,255,244,235,232,231,225,217,210,203,196,192,190,188,182,179,193,235,305,414,540,659,752,803,820,817,796,764,725,689,654,616,570,536,509,491,476,459,442,424,406,385,369,355,341,327,312,299,290,283,278,271,263,255,249,246,241,234,231,227,223,221,216,210,206,217,257,320,417,530,638,719,767,784,778,761,736,707,675,640,607,574,546,525,509,491,473,453,435,417,399,382,369,355,341,329,318,306,298,294,287,280,274,266,260,257,255,252,248,242,238,238,237,237,253,304,393,487,596,693,763,803,819,810,789,759,724,686,647,612,582,557,536,519,501,481,463,442,421,403,386,368,354,340,326,313,301,291,288,284,281,274,264,255,249,246,244,238,234,231,227,224,225,250,311,410,529,627,719,788,824,831,817,795,765,733,696,655,614,578,554,536,521,504,487,469,449,424,399,376,358,343,333,320,308,297,285,277,271,264,256,249,244,238,232,228,224,218,211,206,202,209,239,306,409,528,637,710,763,789,791,775,749,719,684,647,609,574,544,519,500,483,466,446,425,407,392,371,350,330,315,302,295,287,276,264,255,249,248,244,238,231,227,221,218,213,207,202,200,200,210,241,311,414,530,635,710,752,775,775,759,731,696,662,626,592,561,535,512,497,480,465,446,428,406,386,372,357,334,312,295,285,281,277,273,264,257,253,250,245,238,232,230,225,223,217,209,203,206,230,280,357,470,592,698,774,814,826,819,798,768,735,694,656,616,582,557,535,514,494,473,451,428,406,385,367,353,339,325,311,297,285,278,271,264,259,252,242,235,230,224,217,214,213,214,214,211,218,253,326,424,528,642,736,800,831,834,817,791,757,711,675,638,607,575,547,523,502,486,470,449,424,399,375,354,340,327,315,302,290,274,264,256,249,241,235,232,228,225,218,213,209,204,199,196,197,213,259,344,462,567,673,754,800,817,812,806,782,743,698,654,613,574,540,511,487,470,451,430,409,383,357,330,306,285,274,263,252,241,230,218,207,200,195,193,190,185,179,175,169,164,158,151,146,150,172,230,325,451,581,676,753,802,817,805,777,743,707,665,620,575,539,514,494,474,449,428,410,392,375,353,329,306,290,273,262,252,244,235,230,223,217,209,200,193,189,185,181,175,169,162,157,154,161,192,263,376,512,640,742,798,830,835,819,789,752,715,675,633,596,563,536,514,495,474,449,427,404,383,365,347,327,309,294,278,269,260,253,246,241,232,225,216,204,207,207,204,204,204,203,199,200,220,274,362,493,634,756,840,884,893,883,854,826,789,747,707,663,621,585,558,536,516,498,474,445,414,386,364,348,332,316,301,287,274,266,256,248,239,232,224,220,213,203,195,192,190,192,188,182,190,230,315,427,547,680,792,865,896,893,873,847,812,770,725,680,642,607,574,547,521,494,470,445,418,392,358,334,315,301,287,274,260,249,239,231,220,211,204,197,190,188,183,176,169,162,157,157,157,168,211,299,424,553,662,761,827,856,856,835,803,765,722,676,631,588,556,526,504,481,460,441,417,393,368,343,323,305,288,276,263,250,241,234,227,220,213,204,197,190,182,179,174,167,161,155,151,155,171,217,305,424,556,668,742,789,806,799,777,747,715,675,631,591,556,529,509,490,473,453,432,410,390,372,354,337,323,306,292,283,276,267,256,246,239,235,228,220,213,209,209,211,211,210,202,192,195,220,284,389,516,644,750,810,847,854,840,813,779,743,705,662,620,586,560,540,522,502,480,452,425,400,381,361,343,327,312,298,287,276,264,259,255,248,239,234,224,216,207,200,197,196,192,185,183,199,245,313,423,556,693,796,856,875,872,854,824,789,747,704,666,630,595,565,539,515,495,473,445,425,400,375,354,336,319,304,291,281,274,264,253,244,238,232,228,221,213,203,197,192,186,182,176,176,197,250,337,442,574,693,782,834,852,842,820,788,750,705,656,616,578,549,525,500,474,453,435,416,392,368,344,326,312,297,284,273,264,253,246,237,228,220,209,202,197,195,190,185,178,171,168,167,167,189,250,358,481,614,707,791,828,840,827,795,765,726,682,638,596,563,536,512,490,469,451,427,403,378,361,339,320,308,294,283,273,264,256,249,242,234,221,209,202,202,203,200,195,193,192,188,189,203,250,340,465,598,698,779,827,840,833,812,784,749,708,662,616,578,551,530,512,495,474,451,425,404,385,361,337,316,299,290,278,267,256,249,242,239,234,225,218,211,206,202,202,200,195,188,183,192,221,288,396,528,659,765,824,855,861,844,816,781,747,708,663,623,588,556,533,514,495,476,452,425,400,375,348,329,313,299,284,276,267,259,252,245,235,228,223,217,210,203,195,188,183,178,174,172,188,231,305,421,554,679,773,828,844,840,819,788,749,708,669,627,586,549,515,490,472,451,428,406,382,357,333,315,298,283,269,256,246,238,227,214,204,197,189,185,179,175,169,164,155,151,147,143,143,158,209,295,403,536,662,757,810,827,817,795,764,725,679,630,591,558,530,504,479,455,435,416,395,375,357,337,318,304,287,273,260,248,238,231,220,210,200,193,185,179,174,169,168,167,162,158,153,151,168,224,322,444,558,676,761,810,827,817,796,767,732,690,645,602,568,539,518,500,483,460,439,418,396,374,353,333,320,309,295,278,263,253,249,246,238,231,223,216,209,203,196,189,183,182,181,185,203,238,318,441,584,698,800,870,907,912,896,868,830,785,739,691,649,613,585,561,539,518,493,463,437,413,392,371,348,329,315,301,288,276,266,259,252,246,238,228,220,213,209,209,204,197,190,188,189,204,248,336,466,616,749,831,886,908,905,883,849,810,770,724,677,633,596,568,543,518,494,472,449,425,406,383,358,334,312,292,283,274,266,256,245,234,225,220,211,203,196,188,182,178,171,164,160,162,185,237,334,467,609,732,821,862,876,866,840,805,765,725,679,633,593,564,539,515,493,469,448,423,396,374,354,336,318,297,277,263,256,246,238,230,221,211,204,199,195,189,182,175,171,168,164,161,164,189,244,330,455,586,697,773,809,814,805,781,746,708,666,627,588,550,521,498,480,462,442,417,395,375,357,339,326,312,298,284,273,263,259,252,244,235,227,218,214,206,202,200,199,197,193,192,190,197,231,308,414,529,656,760,827,855,855,835,803,768,729,690,654,619,585,554,529,508,488,469,448,424,397,375,355,339,325,308,292,280,270,263,259,250,242,234,227,221,220,216,210,203,196,195,196,199,214,264,358,483,606,707,791,845,870,868,844,809,768,728,683,640,599,570,544,523,501,479,453,435,414,389,364,340,320,306,295,283,270,256,244,234,230,225,218,213,209,203,200,190,181,175,171,168,172,197,260,364,495,627,726,788,826,835,823,798,763,725,679,635,593,557,525,501,480,459,438,417,393,374,354,333,312,291,274,266,257,249,241,230,217,209,204,202,196,189,182,176,175,172,165,157,148,160,190,260,368,497,624,726,782,812,813,798,773,738,694,651,609,574,543,515,494,476,458,438,417,393,369,348,330,315,301,287,274,266,259,253,244,234,224,217,213,209,203,202,203,200,200,199,196,196,210,257,332,449,588,714,803,849,859,854,834,806,771,732,693,654,614,582,557,535,514,497,477,455,431,406,382,364,347,332,320,308,294,285,278,271,264,257,248,238,234,230,225,221,214,211,213,213,217,245,315,420,537,668,774,847,886,896,882,855,819,777,731,687,652,619,586,560,536,515,493,470,444,418,395,369,348,334,320,309,298,287,274,263,252,244,238,234,228,225,218,211,204,202,199,193,190,203,252,346,472,599,705,800,861,889,884,863,834,799,759,715,672,631,599,568,540,515,493,469,445,414,372,341,318,299,284,273,260,246,234,224,217,211,200,186,175,168,161,158,154,148,144,140,139,143,162,220,322,456,593,700,764,803,816,807,782,749,710,666,621,579,544,516,495,477,456,434,410,385,367,346,322,299,280,264,255,246,235,224,213,203,197,196,192,185,178,171,164,161,160,157,150,143,147,172,239,348,481,612,715,778,803,810,800,777,742,701,661,617,578,546,516,494,476,458,437,416,390,365,344,323,308,292,280,267,260,257,253,246,241,237,232,230,220,210,203,200,200,202,202,202,203,217,266,337,451,584,711,819,896,919,912,887,852,814,774,732,691,652,620,595,577,558,540,518,490,462,434,409,392,374,355,339,323,311,302,295,285,274,263,252,242,238,231,221,210,199,192,186,181,182,209,280,396,516,654,771,851,889,897,883,858,826,786,745,698,655,613,568,530,502,480,462,442,416,389,365,344,323,305,287,276,271,274,274,273,262,245,225,203,183,171,167,165,165,165,161,154,154,162,202,283,404,544,659,760,827,856,855,835,807,771,726,680,637,596,563,536,512,493,467,441,417,397,376,354,334,316,301,290,278,266,253,244,235,230,223,217,210,203,193,186,183,181,175,169,161,161,176,221,305,423,551,659,732,781,798,788,765,736,704,666,626,582,542,508,488,476,460,441,421,400,382,365,347,329,313,299,288,280,270,260,256,252,245,239,232,224,217,210,206,207,207,207,203,199,203,227,280,381,509,635,736,798,824,827,810,785,754,719,684,647,612,581,551,523,500,481,463,444,421,395,372,353,333,319,305,292,283,274,264,256,249,244,237,231,225,218,211,204,200,200,196,192,195,217,276,367,472,596,707,788,834,847,835,813,782,747,708,668,630,595,567,540,515,495,476,453,432,410,385,361,340,320,301,287,278,273,267,260,252,241,230,220,214,210,203,196,188,183,178,175,171,175,206,281,397,509,628,728,795,828,833,819,791,754,715,673,631,593,560,529,505,488,473,451,428,403,381,360,339,322,311,297,284,274,263,252,241,232,220,211,204,197,190,186,181,175,174,171,168,171,182,223,305,424,558,662,746,798,816,812,795,770,739,700,654,609,570,540,519,498,476,452,431,409,389,367,343,325,309,294,283,271,262,252,242,231,225,220,213,210,204,197,188,181,175,172,171,168,174,197,257,361,495,633,747,813,849,856,841,812,777,743,705,662,619,582,553,528,507,481,460,441,420,396,374,348,329,312,294,280,271,263,255,248,239,230,223,216,211,209,203,196,188,183,178,174,176,199,255,341,467,606,731,820,870,883,876,854,819,778,733,694,656,621,588,561,535,511,488,463,437,409,382,360,341,325,306,288,274,262,255,245,232,223,214,207,203,197,190,183,176,168,164,161,155,161,196,274,382,501,637,752,830,865,868,851,824,791,749,700,649,609,574,543,518,494,470,451,425,400,376,351,329,311,298,284,271,256,241,230,225,221,216,209,202,193,190,185,178,176,174,168,165,162,168,204,284,406,533,641,736,796,820,816,795,767,732,691,648,607,570,542,514,493,473,455,437,418,396,371,346,325,308,295,287,276,266,255,244,234,227,220,216,210,206,203,202,199,192,185,181,179,185,207,263,365,498,635,743,810,849,858,842,814,781,746,704,659,617,578,549,526,507,484,462,438,413,392,371,350,333,316,301,290,278,267,257,248,237,228,225,223,217,210,203,197,193,188,183,178,178,192,228,306,427,567,696,795,845,869,870,849,820,784,745,704,659,616,581,554,532,508,483,458,434,409,383,365,347,326,305,287,274,266,256,246,241,235,225,216,209,202,199,195,188,182,178,172,165,167,192,255,343,469,607,726,809,849,855,842,819,786,749,707,662,620,579,547,519,497,477,456,430,402,376,351,327,311,294,278,266,255,244,237,227,218,210,203,195,189,182,175,169,164,162,161,161,158,162,192,260,362,477,609,722,796,828,828,810,784,750,711,668,621,584,550,525,505,486,462,439,418,395,369,344,323,308,297,283,270,257,245,234,228,224,218,211,204,197,193,186,179,174,169,165,162,162,171,210,295,418,546,655,750,813,840,838,813,779,742,704,663,620,578,547,522,501,484,467,448,430,410,389,365,340,322,308,297,285,277,271,264,255,249,241,230,221,214,214,217,216,207,197,192,192,199,225,290,396,529,662,764,828,869,880,869,844,807,768,722,676,633,598,567,544,523,500,474,451,428,410,390,368,346,322,301,284,274,269,260,249,239,232,227,221,216,209,202,196,192,190,186,182,181,196,238,325,449,586,712,806,858,876,870,849,820,784,743,698,649,607,577,550,523,501,479,453,431,407,385,365,343,319,297,280,263,249,239,230,223,216,209,202,200,195,188,178,169,164,164,161,157,157,179,246,337,463,599,711,786,821,826,810,784,750,712,672,631,595,557,522,494,472,455,437,416,392,369,346,326,311,295,278,267,255,241,232,223,216,209,200,193,189,188,185,181,176,169,164,162,162,172,211,291,409,522,640,738,796,817,813,793,765,731,690,647,605,568,539,511,490,472,453,435,417,396,378,357,336,318,304,290,277,269,262,255,249,241,232,224,216,209,202,200,199,196,189,182,179,188,216,281,388,519,651,742,810,852,862,847,816,782,743,703,662,623,588,561,540,516,493,467,446,425,404,381,357,337,319,304,292,280,269,257,250,246,242,234,221,213,207,204,206,202,195,188,182,182,200,246,339,469,610,731,807,845,862,855,833,802,765,728,686,642,605,575,550,529,508,484,459,432,403,378,357,334,316,299,285,276,267,257,246,235,225,221,220,214,207,200,193,182,178,172,167,162,171,207,278,374,502,633,740,812,842,841,821,792,759,717,672,631,592,558,529,505,486,467,445,421,399,375,350,329,311,295,280,269,257,248,239,225,214,209,204,199,196,193,186,178,172,165,162,160,158,169,211,295,396,523,649,745,802,824,819,795,763,725,682,637,598,563,529,502,483,463,444,425,406,386,367,346,326,312,301,292,288,287,283,283,283,283,283,285,290,297,304,311,319,326,330,333,337,348,379,445,551,682,786,886,957,994,996,978,947,907,859,807,760,718,682,651,623,600,578,551,521,494,463,434,409,385,367,348,326,308,292,278,266,256,248,238,228,218,206,196,192,185,179,174,168,169,185,234,326,455,598,724,802,855,877,877,859,831,796,759,717,677,641,616,599,584,565,550,533,514,481,438,413,393,375,357,346,339,330,315,299,288,278,270,260,249,235,221,209,202,197,192,186,181,176,192,235,316,420,521,596,637,647,637,613,575,529,480,442,406,374,348,330,322,322,327,336,344,351,354,354,353,348,344,336,327,318,308,297,281,264,246,227,210,190,168,141,116,92,74,63,53,45,46,71,129,207,311,410,484,526,536,528,498,470,438,406,372,347,322,301,287,278,274,273,273,273,271,267,262,259,257,256,255,252,249,248,249,248,238,225,218,218,221,224,225,227,227,224,223,220,217,230,274,354,453,549,638,739,855,880,870,844,810,771,731,687,645,612,584,563,546,529,502,476,445,417,390,375,358,346,334,322,315,311,306,302,298,294,290,284,277,269,267,271,277,283,284,284,285,297,340,425,543,670,773,835,876,890,886,868,841,809,770,731,691,656,626,602,579,557,536,515,495,479,458,437,418,403,390,381,374,360,346,327,302,274,248,220,193,169,144,126,115,98,83,69,56,56,78,134,231,357,486,592,652,686,694,683,662,637,612,586,557,529,504,488,477,467,455,444,431,418,400,388,372,358,346,337,333,334,334,334,334,334,336,351,388,396,400,402,399,396,395,395,395,396,410,446,501,588,691,791,866,912,928,928,915,893,865,830,795,765,736,710,689,672,658,644,628,612,598,584,571,564,557,551,550,551,551,549,544,540,537,533,528,523,519,515,512,511,507,498,487,479,477,494,536,606,682,770,849,905,938,945,935,917,893,863,830,798,771,747,726,710,694,682,675,672,676,682,693,707,722,739,757,774,784,785,781,760,693,572,438,339,294,291,311,336,360,372,378,378,379,385,410,465,551,649,740,826,882,907,907,890,865,833,796,759,721,683,654,628,607,560,480,442,423,413,404,395,382,371,364,361,361,361,360,354,350,348,347,343,336,332,330,330,330,329,326,323,320,322,327,350,409,502,614,708,773,816,834,831,814,788,759,724,684,645,609,577,553,529,502,483,465,446,430,417,403,388,374,362,354,346,336,326,319,313,311,311,311,311,309,305,298,291,281,276,276,276,278,288,319,385,479,588,711,777,817,835,834,820,800,774,745,710,672,634,602,578,558,536,511,493,467,448,428,404,382,362,344,334,332,326,318,308,295,283,273,269,267,262,255,245,238,235,230,221,214,211,224,234,298,406,529,637,714,750,763,756,738,711,682,649,616,584,556,529,507,490,474,455,435,420,404,392,378,362,348,334,325,319,315,308,298,292,287,278,273,264,257,253,250,248,246,246,244,238,238,259,311,389,504,624,725,795,831,844,838,819,789,756,718,684,651,620,593,567,546,528,511,490,465,438,411,393,381,365,347,332,319,309,301,291,281,276,270,260,252,246,244,244,242,241,238,234,228,232,263,334,432,540,659,761,827,854,851,833,809,781,749,711,669,633,599,571,550,532,512,497,477,455,430,406,383,365,353,339,327,284,256,242,234,225,218,210,202,196,190,185,178,172,169,162,155,147,151,186,266,388,518,633,735,799,828,827,810,781,746,707,665,620,572,536,505,481,462,444,425,410,388,364,339,312,290,276,262,248,235,224,213,206,202,195,188,179,174,172,174,171,165,158,151,148,148,153,182,252,362,495,606,704,771,802,805,786,757,721,679,635,592,549,512,483,465,452,434,413,389,369,346,322,301,281,259,244,228,220,218,216,209,202,196,189,182,175,171,172,172,169,162,158,157,158,171,206,283,399,539,672,760,823,855,859,847,821,789,747,701,659,624,598,579,565,550,535,519,500,481,466,448,430,413,399,386,378,368,358,351,344,336,329,322,315,309,305,301,295,291,284,277,270,269,281,320,399,512,637,749,830,868,883,876,854,821,784,745,701,656,616,582,556,536,516,497,474,451,428,409,392,378,365,350,334,319,306,292,281,274,267,260,255,246,237,227,218,211,206,203,195,185,179,193,238,312,427,553,663,742,782,789,779,756,724,687,647,610,570,528,493,466,446,431,416,395,372,351,330,312,295,277,264,253,245,235,227,217,209,204,203,197,195,189,183,176,175,174,171,171,168,171,186,228,301,393,507,614,693,736,749,739,717,689,656,617,575,542,512,487,465,444,424,411,397,379,361,341,322,306,295,283,273,263,253,246,239,231,224,218,211,206,206,203,197,195,190,186,182,179,181,199,246,329,430,529,633,708,749,760,749,726,697,663,626,586,550,521,491,466,444,424,404,385,364,341,320,302,285,274,267,257,249,239,230,227,225,223,216,209,206,206,206,202,196,189,183,178,179,183,204,259,350,466,579,668,736,774,785,778,757,728,694,655,617,582,551,526,504,486,467,446,425,407,406,395,378,357,340,329,316,304,294,285,281,278,276,267,257,246,237,232,232,227,221,214,207,204,207,227,280,376,500,628,717,785,823,833,821,800,774,739,698,654,613,577,546,521,497,477,458,438,414,395,372,351,336,320,306,297,288,277,267,257,248,242,241,239,234,230,223,217,213,207,202,195,190,190,206,253,340,456,581,690,756,798,813,805,784,757,725,687,644,603,567,535,514,497,481,465,448,427,406,388,367,350,334,320,308,299,292,287,280,273,266,262,256,250,245,237,225,220,220,220,221,220,221,238,277,360,479,607,728,812,851,866,859,838,806,768,732,691,655,621,592,567,544,525,505,483,458,432,411,393,374,357,341,327,313,306,298,288,280,271,264,259,255,249,244,238,232,227,221,216,214,218,238,287,367,488,623,742,826,870,880,872,849,819,779,736,696,655,617,584,558,537,518,501,480,455,428,403,385,368,350,327,309,298,290,284,277,270,260,250,241,238,234,228,223,216,210,206,202,193,190,210,267,357,463,591,703,786,833,848,841,823,793,757,714,666,624,588,557,529,505,484,463,444,420,400,379,355,336,319,304,290,278,269,259,253,238,228,220,213,206,203,197,195,190,186,182,179,174,171,181,223,306,413,521,631,715,764,784,781,764,736,703,662,621,579,546,515,493,477,463,446,431,413,392,371,351,334,322,311,297,284,273,264,257,253,246,239,234,228,223,221,216,213,210,209,207,207,209,216,250,326,441,561,662,750,805,824,819,798,770,740,705,663,621,584,554,528,505,487,470,452,435,414,390,367,347,330,320,309,299,288,277,264,256,252,249,242,234,227,221,221,218,217,216,211,204,206,221,264,347,462,588,683,763,814,833,828,807,777,742,703,662,623,599,572,549,528,507,484,460,434,414,392,371,347,325,305,292,280,271,266,259,249,239,231,223,216,209,202,196,193,188,181,175,172,174,189,231,313,432,564,683,757,807,828,824,805,773,735,696,652,609,568,535,509,491,469,445,424,399,375,354,336,322,306,292,277,267,257,250,245,235,227,220,210,200,195,192,190,188,185,179,172,164,160,169,203,278,396,530,652,743,789,812,810,789,761,726,691,651,606,564,529,502,483,469,452,432,409,386,369,354,334,316,299,287,276,270,263,255,248,241,231,224,217,211,209,207,204,203,202,199,192,189,202,242,313,431,572,707,809,869,890,890,872,840,799,753,711,666,624,588,561,539,518,501,480,456,430,403,381,364,346,332,318,304,288,278,270,266,259,248,238,234,227,221,214,210,204,200,199,195,195,209,253,336,445,582,714,814,875,897,891,873,845,809,763,714,672,631,596,570,546,523,505,483,459,432,404,379,357,337,318,302,288,280,273,266,256,245,234,224,216,211,207,202,196,189,182,181,175,171,181,221,311,430,554,684,785,845,872,868,845,812,775,736,691,644,605,567,533,508,488,465,446,421,395,372,351,320,295,278,266,259,252,242,232,224,216,209,202,196,190,189,185,175,164,158,157,157,155,158,186,257,369,494,606,708,778,812,817,802,777,738,694,649,609,574,543,514,491,472,452,431,413,390,371,353,330,312,299,284,273,264,260,253,245,239,231,221,214,211,209,207,203,200,197,192,185,182,186,216,288,406,544,655,753,826,861,862,840,810,775,736,694,649,607,572,544,522,501,480,456,432,413,393,371,348,330,313,301,284,269,259,253,249,244,239,232,224,216,209,204,204,203,200,195,188,182,183,206,264,368,502,638,736,812,856,873,865,840,806,771,728,679,630,591,561,540,518,495,470,445,420,397,376,353,330,312,297,287,274,262,248,239,234,232,224,216,209,200,193,188,185,185,182,176,167,160,162,186,250,358,494,628,719,786,823,830,817,789,757,721,682,640,593,551,518,495,479,460,439,413,390,369,348,327,309,295,280,273,267,260,250,238,227,223,217,210,203,196,189,183,182,178,176,175,172,169,171,192,252,355,487,619,708,778,817,826,812,786,759,724,683,641,600,568,543,525,508,490,470,446,425,407,388,368,350,333,323,316,311,301,288,278,271,269,263,256,248,242,234,225,217,203,193,185,175,167,172,203,276,390,526,642,725,782,812,816,802,774,740,703,665,628,592,556,529,507,491,477,459,434,410,390,371,353,336,320,306,297,288,280,269,259,248,242,238,232,225,218,214,213,213,210,206,200,196,200,223,278,379,511,645,753,820,863,876,868,844,814,781,740,696,651,613,578,550,522,494,472,449,425,399,375,351,327,306,287,276,270,266,262,253,244,234,225,218,211,207,206,204,203,197,192,185,179,172,175,200,262,365,495,624,724,785,820,827,814,789,759,721,679,627,584,547,519,498,479,456,434,411,390,372,353,332,312,295,280,269,260,252,245,238,225,213,203,192,185,178,171,165,164,160,155,154,154,155,164,197,269,381,514,638,729,781,813,817,799,767,731,693,649,605,565,535,511,494,476,452,430,407,385,368,351,334,316,301,285,276,267,257,248,237,227,217,210,202,197,195,189,182,179,174,167,160,154,155,175,230,326,453,584,693,765,800,816,809,789,760,724,686,644,603,567,536,512,495,479,455,427,399,375,360,343,326,311,297,283,273,264,260,256,248,238,231,227,218,210,202,197,203,207,207,202,195,189,199,234,315,438,582,717,816,866,890,890,870,838,798,756,712,669,628,592,561,537,516,491,466,439,410,386,365,341,319,299,283,270,262,252,241,230,221,214,210,207,200,192,185,179,175,171,165,158,151,153,172,217,311,444,585,708,793,831,840,826,800,770,732,691,651,609,568,532,507,487,469,452,431,406,379,354,336,319,302,283,267,255,248,241,232,224,216,209,207,206,202,193,183,175,169,165,161,157,154,158,186,246,354,491,627,735,806,834,840,824,793,754,714,677,635,596,564,537,514,494,477,459,438,417,392,369,350,334,323,312,298,285,281,276,266,256,249,241,235,228,225,224,224,220,216,213,207,202,203,223,270,350,470,602,719,803,852,863,854,828,798,761,718,677,635,596,563,537,515,498,481,460,438,416,393,371,351,333,320,309,295,283,276,266,256,249,245,237,231,225,221,214,207,202,199,200,200,202,209,242,312,411,543,673,774,838,865,863,847,817,777,733,690,651,612,578,550,528,504,484,462,439,418,396,372,350,330,315,299,284,273,263,257,249,239,230,221,216,213,209,206,202,195,186,181,176,172,174,193,250,334,439,567,684,767,813,826,816,791,757,717,672,626,586,547,512,484,463,444,430,411,389,367,347,327,309,292,274,262,250,242,234,227,218,211,206,200,193,190,185,178,172,171,169,168,161,155,158,183,250,350,462,585,691,764,803,810,792,764,729,687,645,603,571,540,511,488,469,451,438,421,400,378,358,340,327,316,304,288,277,271,264,259,250,241,232,227,224,221,216,211,209,204,200,199,196,197,213,260,350,453,581,701,792,844,861,851,827,792,756,717,672,627,589,557,536,516,495,474,453,432,406,382,361,343,329,315,299,287,276,267,262,260,255,246,237,230,225,224,218,211,204,200,197,196,190,192,228,311,432,546,666,767,835,866,869,849,820,784,742,697,652,613,581,551,526,504,480,455,437,417,397,376,353,333,320,306,292,278,264,255,249,242,232,223,216,209,204,202,199,193,186,181,178,178,178,192,239,334,465,581,694,782,833,847,833,806,771,735,696,654,602,570,539,512,488,466,444,423,403,382,357,333,313,297,285,276,269,262,252,241,231,223,214,207,203,202,200,197,192,185,181,176,171,167,165,185,245,354,488,599,698,770,807,816,802,771,733,694,652,612,574,544,516,488,465,448,434,417,397,372,348,330,313,298,284,276,266,259,250,242,235,225,216,209,204,203,202,203,202,199,192,185,183,186,202,245,329,449,575,683,777,833,855,851,827,795,756,714,669,626,589,560,533,509,488,466,446,428,410,388,362,337,320,311,301,290,278,269,259,250,246,242,238,230,218,210,206,203,200,197,196,190,188,193,223,297,413,547,666,753,821,859,868,854,823,786,743,698,655,616,581,553,529,508,488,467,444,421,400,381,361,339,319,302,290,277,267,260,255,248,242,232,223,199,188,182,179,174,167,160,154,146,146,164,217,313,442,575,686,761,814,831,817,798,763,725,680,635,592,550,516,493,472,452,427,399,372,354,333,309,288,271,260,250,242,232,221,210,199,190,189,186,179,171,162,154,151,148,146,141,134,130,134,160,227,339,477,613,712,774,810,819,806,779,745,707,662,617,574,537,505,483,463,444,421,397,367,351,333,316,301,285,271,257,248,237,228,221,213,207,202,193,182,174,171,169,171,165,161,157,153,153,168,214,304,432,574,700,786,828,840,820,796,767,733,679,634,571,530,514,504,487,459,435,413,393,369,347,329,316,306,297,284,271,263,255,245,241,238,235,227,218,210,207,206,202,196,193,193,206,241,316,435,575,707,810,863,889,887,869,840,805,765,724,676,631,593,564,540,518,497,474,451,424,396,374,350,330,313,298,284,276,269,259,249,238,228,220,214,209,204,199,192,185,183,182,179,174,175,199,248,341,500,617,732,814,852,862,847,816,779,742,704,668,626,585,547,516,495,477,456,434,411,388,361,340,319,302,285,274,264,257,248,237,225,218,214,209,206,203,197,190,183,178,175,172,167,160,164,193,257,364,497,626,726,791,819,828,817,785,740,694,655,614,577,544,512,490,472,455,437,416,395,376,357,340,322,305,290,276,266,259,249,242,237,227,217,213,207,204,203,199,193,190,188,185,182,181,199,249,332,458,595,714,798,841,849,840,819,785,743,696,652,610,572,543,516,491,467,446,425,404,383,364,347,332,313,294,278,270,266,263,256,246,235,228,221,217,213,207,204,202,197,192,188,178,172,185,232,341,458,572,698,798,844,852,842,820,785,740,691,645,606,568,536,508,487,466,446,424,399,376,353,330,316,304,290,276,263,253,249,246,244,238,234,227,220,214,210,210,210,209,206,202,197,196,207,252,343,451,584,711,806,861,882,873,851,819,781,743,700,654,610,571,542,518,495,473,451,425,397,375,355,336,320,304,288,276,264,255,246,241,235,225,216,209,206,203,196,189,185,183,185,188,185,182,195,246,344,452,579,697,781,826,837,827,805,774,736,691,647,607,572,540,514,493,474,456,437,414,390,365,341,326,313,299,287,276,264,253,248,242,235,228,224,218,214,209,200,192,183,179,179,179,178,183,211,283,388,507,638,749,816,837,831,809,775,732,684,637,586,546,507,474,449,430,410,392,374,354,333,313,297,283,271,257,246,241,237,228,221,214,209,206,204,200,199,193,188,186,186,186,186,186,189,210,271,375,497,613,728,813,862,876,866,841,807,767,721,675,630,593,561,530,505,486,466,444,423,399,375,350,327,311,298,283,270,263,271,301,343,403,469,529,571,588,581,556,518,472,425,388,364,346,336,332,327,318,306,295,281,267,253,241,231,223,213,202,193,190,189,192,192,193,192,189,188,188,183,179,174,171,168,168,167,164,161,160,160,158,157,155,154,154,151,151,153,151,150,147,147,147,155,190,271,407,575,733,842,900,925,921,893,852,806,764,721,679,644,616,592,571,549,525,498,472,445,424,403,382,361,344,330,316,306,298,291,284,276,270,263,252,238,227,220,217,216,211,203,195,188,183,182,186,207,262,358,483,588,684,757,800,813,805,779,749,712,668,621,578,544,521,501,487,473,453,430,411,390,367,346,326,309,298,285,273,262,250,239,231,225,218,209,199,192,192,196,197,195,190,185,178,178,195,245,341,472,606,704,781,828,847,841,820,789,752,708,665,617,564,530,505,484,465,445,423,402,383,362,344,327,308,291,281,273,263,252,244,237,232,228,223,213,203,197,193,192,192,190,190,185,182,189,218,284,386,505,619,694,749,773,770,753,728,698,666,628,586,546,512,487,469,452,435,418,400,381,361,339,318,299,285,276,269,259,249,241,232,225,221,216,210,204,199,195,192,190,185,179,171,165,168,190,246,341,462,579,676,729,760,764,747,722,690,659,621,582,542,508,480,459,444,425,404,385,364,344,326,306,290,276,262,250,244,234,224,214,207,203,202,199,192,186,183,178,174,168,164,158,151,147,160,202,290,414,554,679,770,814,830,821,795,760,719,682,638,593,554,522,498,479,458,437,416,395,374,355,340,320,302,287,273,263,257,249,239,228,217,207,204,203,202,202,197,192,188,182,178,174,172,186,227,302,421,558,687,786,844,863,865,847,813,767,717,673,634,598,565,539,516,498,479,458,434,409,383,362,346,327,311,295,278,267,263,257,248,239,232,223,218,211,206,203,202,199,195,188,179,178,193,239,320,427,564,694,796,859,882,875,854,823,784,738,691,649,612,578,549,521,497,477,453,431,407,386,364,346,330,313,295,278,267,262,259,253,246,237,227,218,214,211,206,200,193,192,193,190,185,188,223,305,403,530,658,757,819,844,841,823,795,759,715,666,623,585,551,521,493,472,452,435,416,392,367,341,322,309,295,280,267,255,241,231,225,218,211,206,202,197,193,186,182,176,171,167,165,164,164,185,246,351,460,585,696,774,813,821,807,782,747,707,662,619,579,544,511,486,469,451,434,417,397,379,361,340,322,308,294,280,267,259,250,242,237,230,224,218,211,209,207,204,197,190,185,182,182,185,202,253,351,483,596,710,803,851,865,854,828,796,757,714,665,619,579,551,528,505,486,467,451,434,411,389,368,348,332,319,306,298,309,341,389,438,494,540,564,563,542,509,472,427,386,355,336,329,327,327,329,325,312,295,284,274,267,257,246,234,225,220,216,213,211,211,211,211,211,209,203,196,192,192,192,192,192,192,189,190,192,197,200,202,202,202,200,200,200,200,199,197,199,202,204,203,209,242,319,460,635,800,925,1001,1023,1015,982,938,889,838,796,757,719,687,661,638,617,593,567,535,501,472,448,427,404,383,364,347,334,325,313,302,294,274,241,230,220,211,204,200,197,195,186,179,176,175,176,182,209,269,364,473,574,645,684,708,712,698,672,638,603,564,526,490,463,441,425,414,400,385,364,340,323,309,295,283,271,260,249,238,230,224,218,213,209,206,199,189,179,174,171,171,171,169,164,164,176,213,276,376,494,600,680,721,729,721,703,677,648,614,579,542,504,472,446,428,416,403,389,372,353,333,313,298,283,273,264,255,248,242,234,224,214,206,199,197,195,192,183,176,175,175,174,169,168,179,221,284,379,493,596,675,722,738,729,711,683,647,609,571,536,518,525,509,493,474,459,439,418,397,374,348,329,312,297,281,267,256,246,239,234,230,224,218,213,207,200,195,190,183,178,179,179,181,196,246,341,446,572,690,775,827,845,840,817,784,743,700,654,612,577,547,522,500,479,456,435,411,383,361,340,316,299,280,263,255,248,242,235,228,217,207,199,192,188,186,186,185,181,174,167,162,160,169,211,295,420,535,651,742,793,813,809,791,763,726,680,631,586,551,526,500,477,458,438,418,400,378,354,332,313,295,281,266,252,241,234,228,224,217,210,200,193,185,179,175,169,167,165,167,174,174,181,217,299,417,544,644,725,778,803,802,779,749,712,672,630,589,550,518,497,480,463,446,428,410,393,375,357,339,323,308,298,284,273,266,262,256,252,245,237,230,225,221,218,217,214,211,206,202,202,214,256,343,465,596,711,778,821,838,833,813,782,747,707,663,617,575,543,521,504,488,470,448,427,406,386,365,344,327,312,299,291,288,297,325,374,441,497,544,570,575,558,529,495,455,418,389,368,355,344,339,334,327,320,308,295,284,274,266,256,245,234,225,218,216,214,214,211,210,209,207,207,207,206,202,199,196,200,202,202,199,197,199,199,199,193,189,190,195,196,196,196,196,195,195,195,203,238,322,445,579,731,852,928,959,953,924,882,835,791,747,707,673,644,621,606,591,571,550,525,495,466,441,418,399,382,365,348,334,323,316,311,302,291,280,273,267,264,259,252,245,237,228,224,220,217,217,228,267,327,428,546,656,740,792,813,810,791,761,728,687,645,607,570,542,519,501,484,467,449,430,409,389,371,357,341,329,318,308,295,285,281,277,273,264,255,246,238,230,223,220,220,220,220,216,213,224,267,357,458,579,691,775,826,816,750,714,683,648,613,578,547,521,495,474,459,446,434,420,403,382,362,346,330,318,306,297,288,280,270,263,260,256,253,250,246,241,234,227,221,217,214,211,210,209,217,256,333,438,530,619,689,731,747,740,721,691,659,626,593,563,535,509,486,463,446,431,416,399,381,361,343,326,311,302,292,283,273,264,259,255,248,241,235,230,223,216,211,209,207,207,204,203,206,223,269,351,459,567,642,700,733,743,733,710,682,648,614,579,547,519,494,473,455,441,427,409,392,372,351,329,312,298,287,281,273,263,255,246,238,232,227,220,214,210,209,207,204,196,189,185,183,189,211,264,357,473,592,690,747,779,791,778,752,717,682,641,600,563,530,504,484,467,451,432,411,388,368,353,336,319,301,284,273,266,257,249,241,234,224,217,211,207,203,197,190,190,190,188,178,168,167,188,237,326,445,567,669,732,761,771,763,740,710,673,637,599,563,532,504,481,466,451,432,413,393,374,355,340,325,311,298,285,274,269,266,262,257,250,241,234,225,221,217,214,213,216,213,207,202,203,228,284,367,484,606,707,773,803,807,796,773,740,704,666,631,589,549,521,501,493,493,480,462,442,421,402,386,372,358,347,337,327,318,309,304,298,290,280,271,267,263,257,252,248,242,244,242,242,253,285,355,444,558,673,763,816,840,838,820,793,759,719,679,642,610,581,554,532,512,495,479,459,438,417,397,378,364,348,334,322,311,301,291,284,277,271,266,260,256,252,248,242,239,239,239,239,238,249,292,372,481,578,677,759,807,823,816,796,768,733,696,655,617,585,558,532,507,487,467,449,432,414,395,372,351,330,316,305,297,291,285,280,271,264,256,249,244,238,232,228,218,209,199,193,189,189,200,241,322,427,537,620,686,728,745,742,725,701,670,637,602,568,540,516,501,488,474,458,441,423,409,393,378,364,351,339,330,323,316,311,304,295,291,285,277,269,263,263,263,263,262,259,253,248,246,259,299,376,483,595,689,742,777,792,789,771,743,711,675,637,602,572,546,526,512,500,484,467,449,430,416,403,393,379,365,353,343,336,327,319,309,302,298,294,285,278,273,269,267,264,260,255,253,262,288,341,432,543,651,739,796,817,816,799,774,746,714,680,642,609,579,554,535,518,504,486,465,445,425,406,388,369,357,346,334,315,285,273,262,253,248,244,242,238,231,224,218,216,217,214,209,207,214,249,318,410,530,642,731,791,817,816,799,768,731,693,655,621,589,558,532,508,484,465,445,427,407,388,367,344,325,306,292,283,271,263,256,246,237,230,224,217,214,209,202,197,193,189,186,182,178,186,224,301,404,511,620,707,760,782,779,763,733,697,655,614,577,546,518,494,474,458,441,425,407,386,364,344,327,312,298,284,271,264,259,253,248,241,232,225,221,216,211,209,206,202,195,188,183,181,189,225,304,413,515,619,701,750,771,768,750,725,694,659,621,581,547,525,505,488,473,456,439,424,407,392,376,361,347,337,326,313,304,297,291,285,280,274,269,262,253,248,248,248,248,248,246,245,246,260,304,383,493,607,690,757,796,809,800,778,750,719,686,649,612,579,551,532,512,495,477,456,437,420,404,386,368,351,339,332,325,311,298,288,284,281,276,269,264,259,252,246,245,244,238,232,231,239,260,312,397,511,623,715,767,799,807,800,779,750,718,684,648,610,575,544,521,504,490,474,455,432,410,390,369,353,339,326,313,305,299,292,283,271,262,257,252,245,239,237,234,218,188,174,164,157,164,196,257,362,495,626,731,799,824,827,807,777,742,703,663,613,577,542,515,490,467,446,427,406,383,362,341,323,305,288,273,260,250,245,239,231,224,213,202,195,188,181,175,171,167,164,160,154,148,155,192,262,358,487,612,711,773,799,799,784,757,722,680,637,599,561,528,501,481,462,444,428,409,385,365,346,327,309,290,270,260,255,252,249,244,235,224,211,203,202,202,200,196,189,185,185,183,181,188,221,299,409,523,647,745,806,833,834,819,791,756,715,670,627,591,558,530,508,488,469,449,428,406,390,385,368,351,339,326,316,305,295,288,285,281,276,269,260,249,242,235,231,230,228,224,223,223,234,271,351,469,588,689,774,830,855,855,837,809,774,733,689,647,612,582,556,533,512,494,476,459,437,409,382,358,341,329,318,306,298,290,280,271,266,262,256,248,239,234,231,225,218,213,209,203,203,210,248,329,446,574,672,756,813,840,838,819,785,754,717,673,631,593,561,537,516,498,477,455,432,416,396,376,354,333,318,305,294,284,273,263,256,249,242,237,231,228,225,220,213,204,199,193,188,185,193,224,295,403,530,649,724,770,791,789,775,752,719,680,638,598,561,532,509,494,479,460,442,421,400,385,364,346,326,309,295,288,281,274,267,260,253,246,242,234,227,221,218,220,218,213,206,200,199,210,238,301,404,530,649,740,789,816,823,813,789,756,719,677,635,596,565,544,525,507,487,467,448,428,409,390,372,357,340,322,305,295,288,283,274,270,264,260,253,244,235,231,228,228,230,230,227,220,224,255,320,428,556,676,767,823,842,844,828,802,768,732,696,655,616,579,553,530,511,493,470,448,424,399,379,364,347,332,318,305,291,284,274,269,260,244,231,224,218,214,211,207,204,202,200,197,195,202,239,309,407,536,662,759,821,844,840,823,795,756,712,670,633,595,560,530,507,490,473,453,430,403,376,351,332,318,304,290,276,263,253,246,237,225,216,209,203,200,196,190,183,176,169,167,164,162,165,190,252,348,460,599,704,770,803,807,791,761,724,686,647,607,572,540,512,488,469,451,431,414,395,376,355,333,318,305,288,273,262,256,252,244,235,228,223,213,207,203,197,190,185,181,178,175,169,175,200,278,396,504,617,712,775,806,806,788,759,724,684,642,600,564,542,521,502,487,472,456,439,421,399,376,357,340,329,316,305,295,287,281,278,274,267,257,249,242,241,237,230,224,221,220,218,220,225,253,320,424,537,638,733,803,838,845,830,802,768,728,684,644,607,579,553,532,512,491,469,448,430,409,390,372,351,334,322,309,298,288,281,271,266,259,253,246,238,231,230,230,224,218,214,210,209,213,234,292,395,523,644,732,798,833,842,828,802,771,735,694,654,616,582,556,532,511,494,473,451,427,404,383,365,346,329,313,302,290,278,269,259,249,246,239,232,225,218,214,211,207,200,195,182,174,174,190,237,323,441,570,675,743,788,806,802,782,753,718,676,631,588,553,523,504,486,467,449,427,403,385,365,346,327,312,298,285,276,264,255,245,238,234,228,221,217,211,204,197,195,192,189,183,176,171,176,209,278,389,516,634,719,765,791,791,773,745,712,677,637,595,558,528,504,490,476,460,444,425,402,382,360,339,323,311,297,287,281,276,269,260,249,241,235,230,224,220,217,213,211,207,206,204,202,207,231,292,395,519,641,740,802,830,833,816,785,749,711,675,635,599,565,537,514,497,481,463,444,420,396,381,371,355,340,326,316,308,297,285,276,267,263,260,257,250,242,234,227,221,220,218,216,213,218,249,304,400,522,645,747,814,841,845,834,812,778,736,691,652,617,584,554,529,508,491,473,453,432,410,389,371,353,336,322,306,292,284,278,271,263,255,246,238,234,230,224,220,218,217,214,207,199,199,221,283,365,483,609,712,782,819,824,813,789,756,714,670,631,595,561,533,511,491,472,453,434,414,392,369,351,340,326,309,292,280,271,266,257,248,239,234,228,225,221,217,211,204,199,196,193,188,183,195,239,318,417,539,651,736,796,817,809,788,760,726,686,638,596,557,529,509,491,473,453,435,414,392,369,347,329,316,302,290,277,266,255,248,245,239,234,225,217,211,207,204,203,202,200,199,196,189,195,232,315,424,542,666,770,834,859,856,840,812,777,733,690,649,614,578,547,523,508,491,474,455,431,404,381,361,344,330,315,301,291,281,269,262,253,248,242,234,224,217,211,206,202,199,196,195,196,200,221,277,378,500,616,731,816,865,879,868,841,805,764,721,677,635,603,572,546,523,502,483,465,439,411,385,362,341,323,311,297,284,273,260,248,238,214,202,192,185,178,175,172,168,161,154,146,143,141,143,164,223,326,449,570,687,773,821,837,828,802,767,725,679,635,598,564,529,497,472,452,431,413,392,368,346,323,304,288,276,260,248,237,228,218,211,200,190,183,179,175,172,168,161,154,148,141,137,134,134,147,189,278,397,519,644,739,793,813,806,784,754,717,672,627,588,554,523,495,473,452,432,418,399,378,355,333,312,297,281,267,255,248,241,234,228,218,209,200,193,190,188,182,175,167,160,155,154,151,153,174,228,325,430,556,677,771,828,849,844,820,788,749,707,673,635,600,570,546,523,502,481,460,439,418,397,378,355,337,322,306,294,281,270,262,256,249,241,235,225,218,213,207,206,204,204,200,199,195,196,214,269,368,474,599,718,805,856,876,869,845,813,773,729,687,648,613,579,549,521,495,474,456,437,416,392,367,343,329,313,299,284,273,264,260,253,244,232,221,214,211,210,204,197,189,182,175,171,165,162,179,231,325,428,557,680,773,826,847,840,819,788,750,707,661,616,578,547,523,502,481,458,437,414,392,371,347,322,305,290,274,263,252,246,244,237,228,218,209,202,195,192,186,179,172,165,160,154,151,151,162,206,294,397,523,642,736,792,814,809,786,756,718,677,635,595,560,525,497,477,463,451,437,417,396,376,354,332,318,302,290,280,269,259,253,250,245,237,225,216,209,207,204,202,199,195,192,190,189,190,207,255,334,437,568,691,781,834,855,851,831,800,763,719,675,634,598,565,540,518,497,476,453,431,409,386,365,347,332,316,301,288,277,267,262,255,250,246,238,227,218,211,209,207,202,196,193,195,192,195,218,278,374,486,619,733,816,862,875,863,841,807,768,724,680,645,610,577,550,528,505,487,466,438,410,388,368,346,330,316,302,291,278,267,260,250,241,234,228,223,217,210,204,202,200,197,193,189,183,183,210,276,375,486,612,722,796,835,844,833,809,775,736,694,651,613,578,546,518,495,472,449,427,400,374,348,326,308,294,278,266,255,245,238,231,223,214,209,203,196,192,186,181,174,168,167,165,161,155,155,179,242,340,452,581,689,764,800,802,782,756,726,690,648,606,570,537,509,490,474,456,439,418,393,369,348,330,316,304,292,283,274,267,262,259,253,245,238,234,228,221,214,206,200,199,197,196,192,192,199,228,299,404,519,648,759,833,866,869,851,820,785,745,700,656,619,585,558,536,515,498,484,469,451,425,399,376,360,344,330,319,309,301,290,281,274,266,257,250,246,244,239,231,221,214,213,214,211,210,223,270,364,470,602,725,820,877,901,896,872,837,798,754,708,665,627,592,564,540,518,498,480,458,435,411,386,362,346,330,316,301,287,276,269,262,255,245,235,225,223,220,214,207,203,202,199,199,195,197,220,280,382,491,619,733,816,861,876,868,842,806,763,722,679,638,606,577,551,529,507,484,462,441,417,392,365,319,292,276,260,246,235,224,214,206,196,188,185,181,175,172,169,164,155,147,140,136,130,133,162,231,341,452,574,682,757,795,803,792,767,733,690,644,600,560,528,498,474,455,434,414,396,375,354,333,311,288,273,260,249,241,231,220,211,204,196,190,183,176,169,165,160,153,148,141,136,130,129,137,174,250,368,481,599,696,761,796,802,786,757,718,673,628,585,546,515,488,470,456,438,418,400,378,358,339,320,304,291,277,262,249,244,238,234,230,221,211,203,196,192,189,186,179,172,167,164,164,165,183,237,334,451,563,677,805,877,903,894,869,834,795,747,696,648,614,588,568,547,526,502,479,455,428,402,376,355,339,326,312,298,283,271,266,264,260,252,242,234,224,218,214,211,210,210,207,199,192,196,235,319,441,572,687,792,865,898,903,884,855,817,775,728,682,637,602,571,546,526,507,484,460,441,417,393,368,347,330,319,305,291,280,267,256,249,241,232,224,216,209,206,202,199,196,193,188,183,183,196,242,340,477,612,719,807,858,875,869,848,819,784,743,698,652,607,574,543,514,488,465,441,417,392,365,340,322,306,294,285,277,271,267,262,241,227,216,204,195,186,176,171,158,144,136,130,126,127,132,150,206,306,444,579,687,773,821,837,828,803,768,725,677,630,585,544,511,481,459,441,424,406,389,371,353,336,320,308,295,284,271,260,252,242,232,223,211,202,195,188,183,182,182,182,182,182,179,181,186,211,278,390,529,655,750,821,858,865,849,821,785,740,690,642,605,574,549,523,498,477,456,435,416,395,374,353,332,315,302,288,277,263,250,239,231,223,213,206,200,196,192,190,186,185,185,181,175,178,193,246,341,470,610,712,799,852,870,862,835,799,760,717,677,638,605,575,554,532,509,486,462,442,425,407,385,358,333,315,302,290,278,271,266,259,250,244,234,227,220,213,207,203,200,199,199,193,186,188,210,271,374,502,633,722,792,831,838,824,796,763,726,686,642,602,565,537,516,494,470,446,424,402,385,362,341,325,309,294,283,271,262,252,245,238,230,224,217,210,206,202,196,193,188,181,174,167,164,169,195,257,360,486,610,700,770,809,820,809,784,750,711,668,624,582,546,519,500,483,463,442,418,399,388,372,354,334,319,306,299,288,277,269,260,250,242,232,223,216,213,211,209,209,207,204,203,200,200,207,237,306,423,560,687,771,831,865,870,855,823,786,745,700,658,621,586,561,543,526,512,495,472,451,431,410,392,372,353,334,322,308,294,283,276,269,266,259,248,238,231,227,224,223,217,211,206,200,203,221,271,365,493,630,750,824,872,890,883,861,830,795,754,710,665,623,588,564,543,521,500,472,442,417,396,375,354,337,322,309,299,288,278,267,257,250,246,241,232,224,216,209,207,204,202,202,197,195,197,220,277,381,514,649,753,816,852,859,844,816,779,743,701,656,617,582,553,530,508,484,442,411,386,362,341,322,304,288,269,250,239,227,217,206,195,186,183,179,172,165,158,155,155,151,146,137,130,127,133,160,227,336,469,603,708,773,809,810,791,763,729,694,652,607,564,528,498,481,467,451,430,407,385,367,347,323,299,281,266,255,248,238,227,214,206,202,200,196,190,183,176,169,168,168,165,158,151,146,151,185,262,381,519,648,745,803,838,847,830,796,757,717,673,630,592,563,537,516,494,472,448,425,402,381,357,333,313,298,285,277,270,260,249,239,230,225,223,220,213,206,195,186,182,178,176,175,171,172,209,267,364,491,628,749,833,876,897,891,866,833,793,753,707,662,621,586,556,533,508,491,469,446,424,407,388,362,340,323,311,301,290,277,266,255,244,239,237,230,221,214,206,200,196,192,189,186,186,195,218,277,381,516,655,768,833,870,884,873,844,803,760,717,672,630,591,558,529,505,483,462,441,417,393,376,360,341,322,299,283,273,264,255,242,234,223,216,211,204,197,192,190,188,185,178,172,165,161,167,190,253,361,493,626,732,792,830,841,830,802,765,725,684,641,599,561,530,508,494,477,459,438,416,390,371,350,330,305,285,273,269,262,252,242,232,223,217,216,214,210,204,199,197,196,189,179,171,167,174,200,264,372,504,630,729,785,819,827,814,785,747,710,668,624,588,556,533,514,497,477,459,439,418,396,378,358,340,323,309,294,285,278,273,269,264,257,252,245,239,232,227,221,216,213,207,200,196,196,211,253,340,463,596,715,802,842,861,855,831,800,764,717,676,631,595,567,543,522,504,484,460,437,414,392,374,354,336,320,305,288,276,264,257,248,241,231,224,217,211,207,200,195,193,195,192,188,185,192,218,273,372,502,634,743,817,851,859,847,820,786,749,711,669,626,588,558,535,514,494,470,445,417,389,364,343,320,306,291,276,262,252,242,232,224,214,206,202,196,189,186,183,178,175,169,162,157,151,155,183,244,351,484,616,724,791,820,827,810,779,745,705,668,626,582,544,515,494,481,465,444,421,397,374,351,330,312,295,280,270,264,259,249,239,228,217,207,203,200,197,193,189,183,179,174,167,161,155,161,189,248,355,491,624,726,788,814,820,803,777,742,704,668,624,579,540,511,493,477,460,444,427,409,385,362,343,325,311,297,284,276,270,263,253,248,242,238,232,227,218,213,207,206,207,209,209,207,206,218,252,326,441,574,697,803,851,868,866,845,816,779,739,698,654,613,581,556,532,512,494,474,452,425,400,381,361,341,325,311,299,288,280,270,259,250,244,239,235,228,220,213,206,200,199,199,195,190,193,216,263,351,474,610,732,817,861,872,865,842,812,774,733,691,648,610,577,546,521,497,480,459,438,416,393,372,350,330,313,299,288,280,273,262,248,232,223,218,216,210,203,197,192,188,183,178,171,165,167,195,249,350,480,612,724,802,835,844,833,806,773,731,686,640,596,558,526,497,474,458,442,425,403,379,355,336,315,297,280,269,257,249,241,235,230,220,210,203,199,195,190,183,178,174,171,165,158,155,160,190,248,348,480,612,718,786,816,823,810,781,743,698,656,619,584,551,523,501,483,466,444,424,403,381,355,336,319,305,292,278,266,257,253,250,246,239,230,220,214,210,206,202,197,197,197,196,192,190,199,235,299,407,539,665,761,826,851,855,838,809,773,731,690,647,607,574,547,525,505,488,467,444,418,395,376,361,343,326,312,297,283,273,267,262,255,246,234,225,216,211,211,214,211,209,207,204,202,202,218,264,344,470,613,739,827,873,884,880,861,827,786,735,700,658,616,582,557,535,514,493,469,444,421,397,374,355,336,318,301,285,276,270,262,252,242,237,231,224,213,206,203,202,196,190,189,186,181,182,207,266,357,486,623,742,826,869,877,865,840,806,765,721,680,637,596,563,537,516,498,477,453,425,397,371,347,326,308,290,276,263,253,245,234,225,217,211,209,204,197,188,179,175,175,174,168,161,157,165,206,276,389,526,658,759,817,834,830,812,782,747,707,662,619,577,542,516,495,474,455,432,413,390,365,339,322,306,294,280,270,263,257,249,239,227,218,216,214,211,200,192,185,183,183,182,176,169,162,172,216,287,402,533,652,743,798,816,810,788,757,719,676,631,593,557,528,507,491,476,460,442,421,397,378,358,343,325,308,292,280,271,269,263,256,248,239,231,227,223,220,213,206,203,206,213,213,209,206,224,276,361,487,621,738,819,859,863,847,819,784,747,705,668,627,591,560,536,514,495,479,458,435,413,389,367,351,333,318,301,284,271,263,255,245,237,231,227,224,218,216,216,211,206,200,196,190,188,195,230,299,399,529,655,756,823,855,855,837,807,773,735,694,656,617,581,550,526,505,487,467,442,416,392,371,350,330,312,297,281,269,257,250,241,231,221,214,207,204,203,197,190,181,172,167,165,161,160,171,214,295,402,535,658,752,806,826,820,799,765,724,679,635,599,564,533,509,488,467,448,427,406,386,368,347,327,309,290,273,264,256,249,244,234,223,214,207,202,199,193,190,186,181,172,168,164,161,161,175,223,305,411,542,661,747,798,813,806,782,750,711,668,621,584,549,522,498,480,463,446,427,406,386,368,350,332,318,304,288,274,263,257,253,246,238,230,223,217,214,210,204,199,192,186,185,183,183,188,216,281,383,500,630,740,816,852,858,842,816,781,736,690,645,609,578,551,529,508,488,472,451,425,399,376,358,343,327,312,298,281,270,266,263,259,249,239,228,220,214,209,206,206,204,200,197,192,189,204,253,347,452,582,708,800,855,876,869,840,796,756,711,662,620,585,560,539,516,497,474,453,428,402,379,357,336,320,304,290,274,263,253,249,242,232,223,213,206,206,203,197,190,185,181,176,169,160,165,207,294,406,523,649,750,814,835,830,810,778,739,698,655,613,577,540,511,490,472,453,432,414,390,367,341,322,308,297,283,269,255,244,234,227,218,210,203,199,195,190,186,179,172,165,161,161,158,157,167,207,291,403,518,637,729,785,806,800,777,746,711,672,631,589,554,523,500,486,469,451,434,413,386,362,337,322,306,294,280,270,264,257,250,242,237,230,220,211,207,207,206,204,203,200,197,193,190,197,234,315,435,550,670,770,830,855,847,814,778,740,700,656,616,582,551,523,502,488,472,455,432,407,383,364,346,329,316,302,288,276,264,255,248,245,241,235,225,216,214,211,210,207,204,203,206,207,217,250,323,437,551,675,778,842,869,866,848,820,785,743,697,651,612,582,557,533,507,483,462,444,423,396,371,347,329,318,304,290,277,269,262,253,246,237,228,221,214,209,206,202,195,188,182,176,175,176,197,255,355,486,595,701,784,830,842,831,806,775,740,698,651,605,567,540,515,491,469,448,427,409,386,361,336,316,299,290,278,267,256,245,237,228,221,210,200,193,188,182,178,172,171,168,162,158,158,161,183,269,381,537,642,735,795,821,821,800,768,729,686,641,599,560,532,509,490,472,451,428,410,390,372,354,334,316,299,288,276,266,260,255,248,239,230,218,209,202,200,200,197,190,185,179,175,172,172,189,242,339,465,588,689,771,819,835,828,807,778,740,696,651,607,568,542,521,505,491,473,449,428,406,388,369,353,334,318,305,291,278,271,267,263,259,250,241,232,228,224,220,214,209,206,202,195,195,202,232,306,421,558,680,768,833,865,869,851,820,782,740,696,651,612,578,554,533,514,493,469,442,418,395,372,354,336,320,309,295,281,273,269,262,253,245,237,227,216,209,203,204,200,189,185,179,174,174,189,237,327,456,596,700,785,840,858,849,827,796,760,717,670,626,588,557,535,512,491,470,446,420,395,368,347,327,306,288,276,264,253,242,231,220,211,206,202,196,190,183,176,174,169,162,157,151,147,150,169,225,320,449,586,687,765,809,819,807,782,750,712,669,624,584,544,512,490,472,455,435,414,393,375,353,327,305,287,271,262,253,245,234,224,216,210,206,199,192,189,185,181,176,171,168,164,157,153,154,172,231,334,466,599,693,765,807,816,799,768,736,698,658,614,574,539,514,495,481,465,444,424,409,392,374,355,337,322,306,295,283,271,266,259,252,246,242,237,230,221,213,207,204,202,200,199,193,192,203,241,316,432,565,690,773,830,856,859,838,805,765,725,684,644,609,578,554,533,512,488,465,441,420,402,379,354,330,313,298,287,274,264,256,249,244,241,234,224,216,210,209,210,210,204,197,195,192,193,209,257,348,474,612,726,802,852,872,866,841,805,765,725,682,638,602,570,546,526,505,486,463,434,409,388,367,343,320,298,281,270,259,248,238,231,223,217,214,210,206,200,195,193,188,178,169,161,157,160,179,234,330,460,592,696,761,805,820,816,793,757,718,675,631,591,557,526,502,483,463,442,420,395,372,354,333,312,291,276,264,260,256,255,250,241,231,224,214,207,204,197,192,190,185,176,167,161,158,164,188,244,341,470,602,705,768,806,817,809,786,754,717,669,620,577,543,518,498,481,467,449,431,409,388,369,351,333,318,304,290,283,274,266,259,250,242,237,231,225,218,211,204,204,206,206,203,196,192,202,238,313,425,557,683,777,830,858,858,840,810,774,735,690,644,603,571,547,529,509,487,462,439,417,399,379,357,337,322,308,294,281,271,266,262,255,248,239,230,221,217,217,211,209,203,197,192,186,189,207,262,358,487,624,740,814,849,863,855,833,800,763,724,682,637,598,565,540,521,500,481,458,431,403,382,361,339,322,306,292,278,269,257,246,238,234,227,220,209,202,195,189,183,179,174,169,162,160,164,188,253,362,500,634,742,800,831,835,817,786,750,710,669,627,588,550,518,494,477,459,438,417,393,369,350,329,312,298,284,271,264,255,244,235,227,218,213,207,200,195,193,189,183,179,169,162,158,158,169,200,271,385,519,644,740,792,819,820,803,773,733,696,656,613,572,539,514,495,481,466,448,427,404,381,362,343,325,306,291,278,274,270,259,245,235,230,224,218,211,209,206,203,200,200,200,196,192,193,214,262,354,480,614,733,817,854,863,851,823,789,752,714,672,633,598,565,540,518,501,484,463,439,414,392,371,350,333,318,304,290,280,273,269,262,253,242,237,230,221,217,211,207,203,202,196,190,190,207,250,323,437,570,694,793,855,876,875,855,821,782,739,697,654,614,579,550,525,502,481,459,438,418,396,374,354,334,316,302,287,276,273,264,255,244,232,216,195,185,176,168,161,154,147,141,137,134,137,162,223,315,444,577,690,771,817,826,813,785,749,708,666,626,584,544,511,481,456,438,418,397,376,355,333,311,294,277,262,248,237,227,218,210,203,193,185,176,172,167,160,153,146,141,139,133,129,126,133,169,241,340,474,607,712,778,809,813,799,770,731,686,640,600,560,525,498,479,462,445,423,399,374,348,327,309,297,283,267,253,242,232,225,221,217,214,207,195,188,181,175,169,162,157,157,154,150,151,174,235,332,448,585,703,785,828,844,834,812,778,738,691,645,606,570,546,537,521,501,484,462,438,413,392,372,354,336,318,302,290,280,270,264,259,252,242,232,224,218,216,214,213,209,202,195,182,172,179,218,304,403,530,656,754,812,831,826,807,781,747,707,663,623,588,556,532,514,495,477,459,439,414,390,368,350,336,323,309,295,281,274,270,264,256,245,235,230,224,217,209,202,200,196,190,186,181,179,200,263,371,481,609,725,810,861,873,858,826,788,746,703,659,620,586,553,523,498,477,459,442,423,396,371,346,325,311,297,285,277,267,255,242,232,224,216,211,207,202,197,192,185,178,176,169,160,154,160,196,274,393,508,628,732,799,828,827,807,777,739,697,652,609,570,539,511,490,473,455,437,417,396,375,353,329,309,298,287,274,262,253,248,244,234,225,217,211,206,200,196,190,186,185,183,181,181,185,209,269,374,508,621,729,809,854,866,854,826,788,746,705,665,624,589,560,535,512,491,472,449,430,403,378,355,334,316,304,291,281,270,259,249,246,242,232,223,213,207,204,204,200,193,186,181,178,182,200,255,353,483,621,721,805,858,876,866,841,812,777,733,686,640,602,571,544,521,500,477,453,431,409,385,364,346,326,308,294,280,267,256,246,239,237,230,221,211,203,196,195,193,189,183,176,169,165,174,207,280,390,523,645,736,805,840,842,826,795,757,712,665,619,581,547,522,495,473,451,430,407,386,369,346,323,306,291,277,264,252,241,234,224,216,211,204,199,192,189,183,181,175,168,161,154,148,148,161,206,294,417,550,662,739,793,817,814,795,763,729,689,642,595,551,521,501,484,467,445,424,403,385,367,344,325,308,291,278,269,259,249,239,231,224,218,213,207,202,196,190,188,182,178,176,171,164,164,182,239,339,470,606,717,792,835,847,837,812,779,743,701,658,619,585,558,537,518,500,481,460,437,414,390,369,351,336,322,308,299,290,280,270,260,256,253,248,239,231,225,218,217,214,211,209,204,206,220,266,357,484,624,745,826,868,887,883,862,828,791,750,705,662,620,585,557,536,518,500,477,452,424,402,379,355,337,322,309,299,291,280,266,252,242,239,237,231,224,218,213,209,204,200,197,195,195,200,227,291,400,536,673,784,844,877,883,866,837,799,761,721,677,634,595,561,533,512,491,469,445,423,397,376,354,332,312,295,281,274,264,253,234,203,188,178,175,171,165,158,150,143,139,134,132,127,127,143,181,260,381,518,645,742,792,814,812,791,760,722,680,640,598,557,523,497,476,455,430,407,385,360,334,313,295,277,260,248,237,228,218,209,199,192,186,185,182,178,172,167,160,154,150,143,137,132,133,160,210,304,432,568,683,765,803,813,803,778,742,700,658,613,571,535,504,480,459,437,423,403,381,361,343,327,311,295,281,266,253,249,244,238,231,220,206,196,190,188,188,186,183,181,181,176,174,174,190,238,319,444,582,707,796,847,861,856,837,803,760,712,673,640,605,574,547,525,505,486,462,438,417,396,378,361,341,325,309,295,281,273,263,252,246,242,234,227,218,211,207,207,206,204,202,196,195,204,246,320,423,554,680,777,835,862,861,845,817,782,740,696,656,617,582,553,529,507,490,473,449,421,395,369,348,332,316,302,288,276,266,260,253,245,235,227,223,223,220,216,207,200,193,189,182,174,172,207,263,358,470,602,715,793,833,838,824,799,765,726,680,631,591,553,522,500,481,463,446,427,406,382,355,330,312,299,287,274,264,253,245,238,230,224,218,214,209,204,197,189,179,168,162,160,154,151,164,213,305,421,537,656,749,802,820,813,788,754,717,676,634,585,554,523,498,479,460,441,424,404,385,364,340,320,306,295,283,271,260,250,244,238,231,221,211,206,202,202,200,195,188,183,179,179,178,186,221,299,417,528,647,746,812,844,848,828,799,761,717,673,633,599,570,544,522,501,483,463,442,421,399,376,353,329,312,295,285,276,267,257,249,244,238,234,227,218,211,207,202,202,197,192,183,181,188,223,297,410,542,648,745,817,856,865,848,819,782,740,694,649,610,577,553,530,509,488,466,441,421,399,374,350,332,318,306,292,280,269,257,248,242,238,234,227,220,213,206,203,202,199,193,183,178,182,210,274,381,514,644,735,802,840,848,835,813,784,747,703,654,609,572,546,525,501,479,456,434,411,389,365,341,322,305,288,278,267,257,246,237,225,221,216,209,202,195,188,182,178,172,169,167,162,161,174,221,311,434,567,683,754,800,820,814,785,759,722,680,637,592,553,521,500,483,466,446,427,403,382,365,344,323,304,290,278,271,257,245,238,237,230,223,216,209,202,195,186,179,176,174,169,165,167,175,204,274,383,518,648,746,798,824,827,809,779,742,704,665,626,589,554,523,504,486,467,449,430,407,385,367,348,332,316,299,287,281,276,267,257,249,244,242,235,227,223,221,220,220,214,209,202,200,210,242,305,416,550,680,784,845,872,877,859,828,791,745,703,662,627,595,568,543,521,500,476,452,430,409,389,372,351,332,315,309,312,339,375,428,479,522,544,542,516,479,437,399,369,353,333,322,316,315,315,315,306,291,277,270,260,250,238,227,220,218,218,216,214,211,210,210,209,206,202,197,196,196,196,193,193,189,186,185,185,185,188,172,165,158,151,146,146,150,151,151,154,158,160,160,161,189,267,400,558,703,837,925,964,964,939,901,854,803,757,714,676,647,623,603,585,565,540,514,486,458,434,410,388,369,351,333,318,306,299,290,281,270,262,256,248,238,231,221,214,207,200,195,192,188,183,189,217,280,374,480,602,703,773,810,821,812,786,754,714,669,624,588,550,521,497,481,466,449,432,411,389,369,350,333,318,302,288,276,267,260,255,246,238,230,221,211,204,197,195,192,188,181,179,178,183,210,274,382,507,624,735,810,842,842,826,802,771,732,687,609,556,522,498,481,466,451,434,416,397,381,362,346,327,312,302,291,278,266,257,253,252,249,246,242,235,227,217,209,204,203,202,200,203,206,227,280,368,476,579,659,725,763,770,754,729,698,663,626,588,556,528,505,484,465,446,431,414,399,379,355,336,318,302,290,280,267,259,252,245,238,231,223,214,207,204,204,203,199,192,188,183,179,182,204,262,357,472,586,673,724,753,759,746,722,691,658,623,586,550,516,491,472,455,438,423,404,382,364,347,327,308,287,267,256,246,238,230,220,211,204,200,197,195,190,185,178,172,160,150,143,139,141,161,211,302,427,563,680,753,799,816,809,785,750,708,665,619,577,540,511,488,472,453,432,410,388,368,353,334,318,301,281,263,253,244,239,246,270,313,374,434,494,539,560,560,543,515,473,424,379,347,326,318,315,315,315,312,304,295,283,267,255,244,232,223,216,206,196,192,192,192,195,195,192,185,179,178,179,179,174,168,165,165,167,168,168,168,168,167,168,168,168,168,171,175,181,185,185,186,209,278,393,529,687,821,912,957,963,943,908,863,819,775,733,700,669,644,621,600,578,554,533,505,479,451,414,390,374,358,346,334,323,311,302,294,287,281,276,267,260,256,253,249,242,238,235,232,227,221,224,249,304,381,486,589,675,733,763,767,754,729,697,662,628,598,565,535,508,487,472,460,446,428,407,386,367,350,336,320,305,292,281,271,263,253,242,232,228,224,223,216,209,203,196,190,188,183,181,188,218,283,369,466,575,668,729,756,759,746,724,690,652,613,575,546,518,494,472,451,431,417,402,383,364,344,325,306,294,281,271,263,255,249,245,239,231,223,213,206,202,197,196,190,185,179,176,174,174,190,239,323,423,516,655,750,800,816,805,779,742,701,662,620,581,551,522,498,476,456,439,424,404,385,365,344,325,309,298,287,276,264,257,253,248,238,227,216,209,204,204,202,197,193,190,189,190,196,218,277,376,505,631,729,807,849,862,852,826,792,750,703,661,621,589,563,540,522,501,476,448,427,406,385,364,341,322,311,301,291,278,264,253,246,244,237,228,217,206,200,199,197,193,188,183,181,185,206,263,364,494,628,721,793,835,849,840,814,781,745,703,658,613,572,542,518,497,474,453,431,406,383,361,341,323,308,290,274,262,253,246,237,225,218,213,204,199,195,189,183,179,175,169,164,158,160,175,223,313,442,578,693,761,802,816,806,781,747,710,670,627,586,547,516,494,477,459,441,423,402,381,361,339,320,305,292,277,266,255,244,234,228,221,217,209,202,196,189,182,175,171,165,160,155,155,172,216,301,420,551,666,750,789,806,802,779,746,707,670,633,593,556,525,501,481,465,446,428,409,389,371,354,334,318,304,294,284,277,267,257,250,239,228,221,217,211,206,203,200,197,196,193,192,195,217,271,355,477,609,724,803,848,858,849,826,793,753,712,673,634,596,564,536,514,495,479,462,444,423,400,382,367,347,326,311,297,285,278,271,264,259,252,245,241,238,234,228,223,216,213,207,202,204,230,290,381,484,603,708,782,826,841,834,813,784,746,703,661,624,591,563,540,519,497,477,455,434,413,390,367,347,330,316,302,288,277,270,264,256,246,235,225,220,216,211,206,204,199,193,190,185,183,202,257,354,466,574,680,760,805,817,806,784,753,717,676,634,593,558,525,498,480,462,444,428,409,388,365,343,326,312,301,288,276,266,256,249,242,232,225,218,213,207,203,199,192,189,189,199,203,200,206,242,319,428,537,627,704,757,784,784,765,736,701,665,628,589,554,528,505,488,474,459,442,427,409,392,375,358,343,332,320,311,301,291,280,271,267,263,259,252,244,238,235,235,232,228,223,220,221,238,280,355,459,577,669,747,799,819,816,796,770,739,703,659,620,589,564,542,518,498,481,463,445,430,409,386,362,343,329,322,312,302,295,291,285,278,271,263,256,249,244,239,237,231,227,221,218,220,235,280,360,467,582,686,750,795,813,810,792,765,733,698,658,619,584,554,532,514,494,472,451,430,411,393,372,353,337,325,311,301,292,283,278,271,263,256,250,248,245,239,237,237,235,231,225,223,225,242,281,361,474,598,703,778,814,834,833,812,781,743,707,663,620,582,556,533,515,495,473,452,431,409,389,374,354,336,319,305,294,287,278,269,260,252,245,241,232,224,217,210,203,197,196,192,188,186,197,230,287,383,502,617,707,759,774,770,753,728,694,655,614,574,535,504,481,466,453,442,428,409,388,367,348,334,318,304,291,281,273,270,263,255,246,239,235,235,234,230,223,217,210,207,202,197,196,206,244,308,393,508,621,711,768,795,796,782,759,728,691,652,616,579,546,521,504,490,477,458,438,420,399,378,358,346,336,325,312,299,294,291,287,278,271,266,262,260,252,245,239,237,232,231,228,228,242,287,369,472,577,683,767,820,841,837,813,781,747,711,673,634,602,572,544,522,502,483,466,446,425,404,382,364,348,337,323,311,299,291,287,281,273,263,255,248,244,244,241,235,224,217,214,214,214,228,270,353,467,572,679,765,820,841,838,817,789,750,705,662,621,591,563,539,518,500,479,458,441,421,400,379,357,337,325,312,299,287,274,264,255,248,242,217,202,193,186,182,178,174,168,161,155,157,169,210,290,402,529,628,712,768,796,798,782,759,725,682,634,588,550,521,500,481,462,439,418,397,381,361,340,320,306,291,277,264,253,246,239,230,220,214,209,203,197,193,190,189,185,179,172,164,160,168,200,271,385,514,633,707,763,791,795,777,747,714,680,641,599,558,523,495,479,463,446,428,407,388,372,354,334,318,304,290,280,269,259,249,242,238,237,231,223,214,207,204,206,204,204,203,200,197,203,232,305,417,550,672,765,813,838,840,821,791,753,714,675,637,602,568,539,523,508,491,470,448,423,397,379,361,343,327,316,305,295,283,271,260,250,241,234,227,220,213,206,202,199,200,196,190,189,203,244,315,430,564,690,786,844,862,859,840,812,774,733,693,651,614,581,550,525,505,488,465,441,414,390,368,347,326,311,295,283,276,274,270,263,249,238,231,228,223,217,210,199,189,185,178,172,167,176,221,299,402,532,658,757,817,840,835,816,786,750,707,658,616,574,542,516,493,467,448,427,406,386,367,343,322,305,288,276,264,256,250,245,238,230,221,213,204,200,195,188,181,174,168,167,164,161,167,200,277,388,504,630,733,803,834,834,816,785,747,703,654,610,574,543,515,493,476,460,445,424,400,379,357,337,322,309,295,283,271,264,260,255,246,238,230,221,213,210,204,197,195,190,186,185,183,192,228,306,428,544,668,770,835,865,863,842,812,771,726,680,638,603,574,549,529,509,491,470,449,428,406,386,367,347,332,313,297,283,270,262,256,252,246,239,231,223,216,210,207,206,203,199,197,200,214,257,346,470,607,710,798,855,877,872,844,809,774,732,687,644,602,570,544,522,502,484,463,441,423,396,368,343,323,306,291,277,267,257,248,237,227,220,211,204,202,197,192,186,176,168,165,162,164,179,228,320,446,581,697,768,812,826,817,789,754,718,682,638,595,554,521,494,473,452,435,418,397,376,357,333,309,288,271,260,252,244,232,224,216,210,207,203,196,189,182,175,172,168,162,154,147,148,168,216,305,431,564,679,764,805,820,812,786,750,705,665,623,582,544,511,486,466,448,430,410,389,371,354,339,323,304,284,269,257,252,244,235,227,218,211,209,204,200,197,195,193,190,186,175,167,167,190,245,330,458,595,710,791,834,844,834,809,785,749,707,665,623,584,553,529,509,493,477,459,439,414,389,368,353,337,322,305,291,283,280,274,267,256,246,238,234,228,223,217,213,210,209,204,199,200,228,302,413,533,665,775,847,882,886,868,840,805,763,715,668,628,589,560,536,515,495,474,453,430,404,382,361,341,325,309,295,284,273,262,253,245,241,237,230,221,216,207,200,193,188,183,182,179,188,225,308,427,554,665,768,840,873,873,854,821,785,746,704,661,619,584,553,525,502,483,459,441,416,390,365,341,319,299,285,273,263,252,242,234,227,220,213,206,199,192,175,164,155,150,146,141,143,151,186,263,379,515,626,724,791,820,820,798,765,728,684,638,593,553,519,495,477,459,437,416,393,372,350,326,308,292,277,266,255,245,235,225,217,209,202,195,188,182,176,171,167,160,154,151,148,148,155,186,256,371,505,633,719,786,821,826,803,767,726,686,641,599,560,528,504,484,466,445,423,402,381,365,347,327,308,292,277,267,259,249,242,234,227,218,211,204,202,200,199,195,190,183,176,169,167,183,223,302,424,561,691,788,837,859,854,833,799,759,715,672,627,586,553,529,509,491,472,452,437,414,393,376,357,337,320,304,290,280,271,263,255,245,237,234,228,221,214,207,202,200,199,195,188,188,210,262,343,466,606,733,824,869,875,862,837,805,767,724,683,642,602,568,542,518,494,473,449,428,407,385,362,341,322,305,290,277,267,260,250,241,230,221,217,216,210,200,190,182,175,171,168,168,171,193,253,348,459,591,708,791,835,847,833,795,761,719,675,633,596,560,528,502,483,463,444,425,402,376,353,329,313,301,288,274,263,252,242,235,225,217,210,203,196,193,190,185,176,167,161,162,162,165,183,239,339,458,567,679,761,807,817,806,782,749,708,662,617,579,550,523,500,480,459,439,421,399,375,351,334,318,299,287,276,267,260,255,249,246,238,228,218,210,206,207,206,202,196,192,186,186,190,218,281,386,518,638,731,800,840,849,835,810,777,736,693,649,610,577,550,528,508,487,463,438,416,392,369,347,330,316,304,292,280,269,259,255,249,242,235,228,221,214,210,207,204,202,197,190,186,193,228,306,424,560,684,764,823,855,858,840,809,774,736,693,648,607,571,544,523,504,483,459,435,410,390,368,344,325,308,290,277,264,255,244,218,203,196,192,185,176,168,161,155,151,144,139,136,136,153,192,276,400,543,673,768,816,828,821,798,767,731,687,642,595,556,523,494,467,445,427,407,386,361,336,315,298,284,269,255,242,234,224,211,199,188,178,171,165,161,160,155,150,144,140,137,133,134,151,202,277,395,529,654,750,806,819,810,785,750,710,665,619,575,532,498,476,458,439,425,404,383,361,340,319,305,291,276,260,248,238,234,231,221,209,195,186,185,182,175,169,167,167,167,165,160,160,181,237,330,442,579,704,795,847,866,856,830,793,752,707,659,620,591,563,540,521,498,473,449,425,404,385,367,347,332,312,295,281,271,264,259,250,241,230,221,214,213,210,207,204,199,193,186,182,183,206,266,369,495,613,725,803,847,861,852,828,795,754,708,661,617,582,554,532,509,490,470,449,430,400,374,350,329,312,299,285,273,262,252,242,237,231,225,218,211,204,202,197,193,188,181,172,167,168,189,249,353,511,617,711,791,835,845,828,800,767,726,680,633,591,556,529,505,484,463,442,421,402,378,354,330,309,288,273,263,256,246,234,225,218,214,209,202,199,193,186,181,172,167,162,158,155,160,172,218,308,432,571,687,764,812,824,816,788,752,714,670,627,584,539,511,488,473,459,442,424,403,385,361,334,312,294,280,270,262,249,239,230,220,214,211,207,203,200,200,200,200,195,189,185,181,183,193,231,313,460,574,707,770,820,841,831,809,773,733,689,652,610,581,553,529,511,497,479,460,432,414,389,368,344,325,299,280,270,262,253,248,241,232,227,223,218,217,217,214,213,209,204,197,190,195,225,291,399,532,663,768,831,856,861,847,820,785,743,703,659,619,584,553,528,507,488,466,444,417,390,367,347,329,309,288,274,263,259,252,244,235,230,227,225,221,214,207,200,195,193,188,176,167,174,211,284,381,511,641,749,821,855,859,844,813,778,736,691,648,606,567,537,512,488,467,446,425,400,376,350,330,313,298,283,267,253,244,235,227,218,211,204,197,195,188,181,174,167,162,161,160,157,158,181,241,326,451,588,704,782,821,828,814,786,752,714,673,630,586,543,508,483,463,446,431,411,386,362,337,318,304,291,278,270,266,257,249,241,234,227,220,213,207,202,193,183,175,168,165,165,164,167,186,241,337,442,570,689,778,826,841,828,800,763,722,679,635,598,567,540,519,504,487,469,449,428,407,388,369,348,334,320,306,295,283,271,263,255,245,238,230,224,220,216,210,209,207,206,203,200,200,221,277,372,500,614,729,817,866,879,865,837,800,759,712,669,630,598,571,550,530,509,490,469,448,424,397,372,347,325,306,287,273,260,253,248,242,232,223,218,217,217,217,218,216,209,202,195,189,189,207,260,360,488,621,719,799,851,870,863,840,809,770,725,679,635,596,564,539,516,493,467,444,418,395,369,344,322,302,285,277,267,256,246,235,227,221,209,186,174,165,157,151,147,141,137,130,126,127,144,190,278,402,539,656,738,792,813,809,788,754,717,675,630,584,544,511,488,470,453,434,410,382,358,339,318,299,281,264,250,241,232,228,221,213,203,197,192,185,178,171,162,160,153,143,136,130,127,136,169,245,362,502,634,729,781,807,809,792,764,725,686,640,592,549,512,486,467,452,435,418,400,379,360,343,325,308,292,278,264,255,246,237,228,223,218,216,209,199,189,179,175,176,176,175,174,175,192,235,308,424,558,684,785,844,865,861,834,796,759,719,677,633,591,557,536,523,508,490,467,445,421,396,376,357,339,323,309,295,281,271,262,253,248,239,231,225,223,221,217,211,204,204,204,203,199,204,241,304,411,544,673,773,834,861,862,847,819,782,740,698,659,620,588,558,533,509,488,463,435,410,389,368,350,330,309,292,280,269,259,252,242,230,220,211,206,202,196,189,185,179,174,169,165,162,171,204,278,369,491,620,726,793,824,827,810,781,739,691,644,603,568,536,509,490,472,455,438,421,402,381,358,336,322,305,290,277,266,256,249,238,227,218,211,204,199,196,193,192,188,181,175,169,165,165,189,249,351,458,581,693,771,810,817,805,781,747,704,654,603,563,532,507,487,469,451,432,416,397,379,360,340,325,313,301,287,277,270,263,256,246,235,225,218,211,207,206,204,204,203,200,195,192,195,220,284,390,521,628,732,809,852,863,852,827,792,750,705,662,623,586,557,533,514,494,472,449,427,403,379,357,334,318,306,294,280,267,255,246,244,238,228,223,218,213,207,204,200,196,193,189,189,193,217,278,385,522,651,745,814,848,852,837,812,784,747,704,661,619,578,546,519,498,476,453,431,409,388,364,343,327,313,302,294,285,277,269,259,249,246,241,232,223,216,209,204,199,193,189,185,182,188,216,281,389,522,656,757,816,849,855,840,812,775,738,694,648,606,572,547,525,500,479,456,434,409,385,364,341,323,308,294,281,273,262,252,242,234,227,223,217,210,203,196,188,183,179,175,169,168,178,214,285,397,528,652,750,810,831,830,810,778,739,697,652,609,570,536,507,483,466,446,424,399,374,348,330,312,295,280,266,253,242,235,225,220,216,210,204,197,189,182,175,168,164,164,164,161,160,167,203,266,371,501,627,724,782,805,805,789,765,728,682,635,596,560,529,505,486,470,456,439,417,390,367,344,332,318,301,285,274,269,264,260,250,241,232,225,220,216,207,202,199,196,190,188,182,178,189,232,319,421,549,675,771,827,851,847,826,791,747,703,658,620,589,563,537,515,495,477,462,442,418,392,367,344,330,316,302,290,278,273,270,267,263,260,252,241,231,225,220,213,206,199,196,195,195,214,273,374,507,621,733,819,866,880,869,841,806,765,722,676,628,589,556,529,507,484,460,439,421,400,382,360,337,316,304,294,285,274,264,253,246,238,231,223,216,203,188,181,174,167,161,155,154,158,185,249,360,498,634,728,799,841,852,838,809,773,728,682,634,591,551,521,498,479,456,432,409,385,365,343,320,298,276,256,246,237,228,220,210,200,195,192,188,182,175,168,162,158,151,146,140,136,139,160,216,316,451,589,701,771,813,821,805,773,732,691,647,600,558,522,494,474,456,439,421,402,379,357,337,320,305,288,269,250,238,230,221,213,206,199,195,189,185,182,179,175,171,165,160,151,146,144,161,207,301,430,567,683,763,805,819,809,779,742,700,659,610,563,522,493,476,463,451,441,437,421,402,382,365,347,332,319,308,297,285,276,264,255,244,234,230,224,218,217,217,218,223,224,224,224,227,250,305,386,507,638,752,831,869,875,859,827,788,746,707,670,634,599,568,546,528,511,493,469,445,421,397,381,360,340,323,305,288,273,263,252,242,234,228,225,225,223,218,214,211,209,207,206,203,207,228,285,365,488,627,746,827,869,879,865,837,800,760,717,673,631,592,558,535,515,498,483,465,442,418,392,367,346,329,312,295,281,269,259,248,234,224,218,214,209,204,199,192,183,176,171,171,168,169,190,245,340,441,565,683,768,817,831,819,785,739,696,649,602,563,526,500,477,456,435,416,397,378,357,336,316,299,285,273,259,244,231,223,220,218,214,204,195,190,192,190,186,181,175,168,167,181,228,318,439,567,669,736,777,786,775,750,718,682,638,593,554,521,495,479,465,453,439,423,400,379,357,337,320,305,291,278,269,257,246,237,231,225,221,217,217,216,216,216,217,216,213,209,204,199,199,207,242,318,437,577,698,782,840,863,862,841,809,773,732,689,645,606,575,551,530,509,490,467,441,417,389,364,344,327,309,294,281,270,262,256,252,248,242,234,224,216,209,204,203,202,199,192,183,175,179,209,278,389,522,655,745,812,848,851,833,803,771,735,694,649,607,570,542,521,498,477,455,432,406,383,360,337,320,305,291,280,267,255,244,232,223,216,210,203,197,190,183,174,169,164,160,155,151,158,185,250,362,533,661,773,816,834,828,803,767,722,680,640,598,557,523,495,477,459,441,421,400,381,361,341,319,301,285,271,262,253,244,232,223,211,203,199,192,186,179,172,165,161,158,157,155,155,167,203,273,386,518,641,735,789,809,807,785,740,686,651,612,571,536,508,487,470,453,438,420,400,382,365,348,327,306,290,276,267,264,259,250,241,232,227,224,217,213,209,207,207,203,202,200,197,203,234,297,389,554,683,806,858,875,866,844,812,771,725,679,640,603,574,551,533,514,497,479,455,430,402,376,355,336,315,299,283,267,255,246,237,227,220,218,218,220,218,214,213,213,211,210,203,199,214,267,364,470,598,721,810,859,875,866,842,810,770,726,682,640,602,567,539,515,497,479,459,434,407,382,361,340,326,309,291,274,260,250,245,238,228,221,214,207,203,200,196,183,161,150,143,139,134,148,199,298,435,560,680,774,824,833,817,792,761,722,677,628,579,537,504,477,458,439,420,399,375,350,325,301,280,263,252,241,231,220,207,193,186,179,174,167,160,153,148,147,141,136,130,125,125,126,134,171,253,376,518,627,722,785,810,807,784,752,711,663,614,570,530,500,473,449,428,413,396,374,351,329,311,294,276,259,246,237,225,216,206,196,189,185,179,174,168,161,160,160,160,155,150,143,139,147,183,263,383,523,652,746,814,845,845,823,788,750,710,663,620,579,546,521,502,483,465,441,418,404,402,383,361,337,319,305,295,287,278,274,270,263,256,248,238,227,221,216,213,207,203,199,195,193,207,244,325,445,584,712,803,851,876,877,859,827,785,745,700,655,613,575,546,526,507,486,462,437,411,389,369,350,330,313,295,280,271,263,257,253,244,234,227,217,209,202,196,192,189,186,182,176,176,192,235,315,437,578,707,805,861,879,875,852,816,774,729,686,642,602,567,536,508,488,469,446,423,396,369,348,330,312,295,278,264,253,244,232,223,216,209,202,197,192,185,178,169,165,164,161,158,154,160,193,255,361,497,631,738,806,833,826,803,775,739,696,649,607,568,535,507,484,466,449,431,410,389,367,343,326,308,292,280,267,256,248,241,234,227,220,214,211,209,203,193,185,176,171,169,168,165,169,192,252,333,452,586,705,789,831,838,824,793,756,715,670,628,592,560,532,509,491,476,462,445,427,403,379,357,339,325,311,302,294,283,276,266,257,252,245,239,235,234,230,224,217,210,206,206,204,207,231,292,397,507,634,749,827,868,877,862,831,792,750,707,663,626,592,560,533,514,495,477,456,432,406,385,365,343,326,309,295,284,274,264,256,248,242,238,231,223,217,213,206,199,196,196,192,189,188,206,266,369,502,616,726,809,854,862,848,823,788,745,696,652,614,581,551,526,504,484,462,439,420,395,371,347,329,312,295,277,260,249,241,232,225,214,202,192,183,178,175,172,167,162,158,155,153,154,165,210,295,417,544,652,746,803,823,814,792,763,729,690,644,598,554,523,497,476,458,439,416,392,372,351,330,313,298,281,269,256,245,235,225,220,217,214,207,200,193,189,186,181,175,168,162,157,151,155,185,259,374,509,633,722,788,817,817,798,765,729,684,635,589,551,519,495,474,456,442,427,407,388,372,355,340,323,308,298,291,283,270,260,252,246,241,231,223,214,211,209,207,206,202,199,195,192,200,227,290,395,529,665,770,830,862,863,845,814,775,732,689,648,607,571,540,521,505,491,474,452,430,407,383,360,341,326,312,299,291,283,273,260,248,241,235,228,224,218,213,206,203,200,197,192,189,195,218,278,407,521,651,760,830,859,866,849,819,779,740,701,656,613,575,547,523,501,483,465,445,424,397,376,354,333,316,301,285,273,264,255,245,235,227,221,217,210,204,197,192,186,178,160,151,147,146,168,217,311,439,578,698,786,833,840,826,796,759,715,669,624,581,542,504,483,466,449,430,409,386,362,339,318,298,281,267,255,244,237,227,218,210,200,188,178,175,174,169,164,157,151,150,147,144,143,153,192,257,368,504,630,726,788,810,812,796,764,725,680,635,592,549,515,488,472,459,444,427,406,381,357,336,319,302,285,267,253,242,237,231,225,221,216,207,199,192,185,183,183,182,179,176,169,165,169,202,278,376,509,647,756,827,861,861,842,813,774,732,687,641,600,563,533,511,490,472,455,434,407,383,369,350,332,313,298,284,273,264,260,256,250,242,231,221,217,211,206,203,199,193,189,183,179,185,214,283,383,500,633,749,830,866,869,852,823,788,746,700,656,619,585,554,529,507,486,466,445,424,397,372,346,326,312,299,285,273,262,250,244,234,224,216,209,202,196,189,181,174,167,162,160,160,160,176,228,322,442,560,680,771,823,838,828,802,767,721,687,645,600,565,533,504,480,459,441,424,407,386,360,332,309,294,283,270,260,249,239,228,220,213,207,202,195,192,190,185,174,164,160,160,160,160,164,190,257,369,497,612,717,788,820,820,802,771,733,689,644,600,561,532,505,483,463,445,430,414,395,375,354,330,315,302,291,278,267,257,250,245,239,232,224,218,213,210,209,207,204,202,197,193,192,195,214,271,374,507,635,735,813,854,862,849,821,785,740,696,651,610,577,551,529,508,490,469,446,428,407,383,360,339,320,304,292,278,269,259,249,242,237,228,220,213,207,203,202,197,193,186,181,175,178,195,246,344,474,612,722,793,841,858,851,827,795,760,714,665,619,581,551,529,508,488,467,442,421,400,379,357,333,312,291,277,266,256,246,232,214,204,202,195,185,176,167,161,157,153,150,146,137,127,136,174,257,382,523,656,743,807,830,828,809,777,738,697,651,602,557,521,494,474,456,437,414,392,367,346,326,309,291,274,260,252,244,232,223,211,202,195,190,183,176,169,161,155,151,147,144,140,139,141,161,216,318,479,630,738,782,814,813,796,764,724,682,634,586,543,507,484,470,453,437,418,402,375,353,333,316,301,287,273,263,256,248,238,228,221,216,209,202,196,192,189,188,190,190,188,183,182,192,221,290,403,540,675,778,840,863,862,842,809,765,721,679,648,616,584,554,529,509,491,473,452,428,404,386,367,346,327,311,298,290,281,269,256,248,241,237,231,227,223,220,214,209,204,200,193,190,199,234,291,390,522,656,768,842,872,870,852,820,784,745,704,665,623,586,558,536,512,491,469,446,425,402,378,358,339,320,305,291,280,271,264,255,242,231,223,220,220,217,211,199,188,182,181,176,174,175,195,250,330,448,582,700,785,831,841,831,807,774,733,687,642,602,561,533,508,484,462,444,424,404,386,367,346,329,312,295,283,273,263,257,249,241,232,225,216,209,204,199,192,188,175,169,168,164,158,164,202,283,379,502,630,732,796,819,813,791,757,718,676,631,589,554,521,495,476,459,444,424,403,382,364,346,330,319,306,294,280,269,259,253,246,238,228,220,213,209,209,206,203,200,196,193,192,189,196,232,311,428,543,665,763,821,845,844,824,793,756,715,670,627,592,563,539,518,497,479,462,445,421,392,364,343,329,319,302,285,271,260,253,250,246,239,232,224,217,214,209,203,199,195,190,186,186,197,239,323,445,575,684,778,834,852,844,821,795,761,719,673,628,591,561,536,514,493,473,452,431,409,383,358,336,318,302,288,276,264,253,245,237,231,224,217,213,211,211,210,203,193,186,181,175,171,178,218,304,427,563,679,759,816,840,835,810,777,739,697,651,607,567,535,509,488,466,445,424,403,385,367,343,320,299,281,270,262,252,242,232,224,218,214,207,200,193,188,179,174,169,165,161,157,157,169,211,295,417,553,673,759,803,823,814,789,752,710,669,628,589,553,521,495,477,459,439,420,399,378,358,336,318,301,285,273,264,262,257,250,242,232,225,220,214,211,209,203,196,192,186,181,174,174,196,244,334,465,603,725,821,869,879,866,837,796,754,711,672,630,595,567,544,523,507,488,470,448,420,393,374,357,343,329,315,302,294,288,280,271,264,255,246,239,231,224,217,211,209,207,202,195,200,238,323,424,557,690,793,858,882,875,849,816,778,738,693,648,610,574,543,518,497,479,458,437,416,397,379,357,341,326,309,295,284,276,270,260,250,241,234,227,221,216,209,202,195,188,182,178,175,190,245,343,477,596,717,809,859,873,859,830,791,747,701,652,607,570,537,508,484,463,446,431,414,392,368,346,325,309,298,287,276,263,253,242,231,218,193,181,176,171,165,160,154,150,147,146,148,160,192,257,364,495,626,715,778,809,810,791,760,722,680,634,592,553,522,501,487,472,455,435,414,395,375,354,332,312,292,277,266,253,242,237,231,221,216,210,207,204,200,197,196,195,195,190,185,185,204,256,354,486,623,738,809,840,852,841,812,773,731,693,654,616,582,551,526,507,484,462,438,413,386,365,348,329,312,297,283,270,262,252,242,234,228,223,217,207,196,188,183,182,182,179,174,172,190,249,344,459,599,725,817,865,875,859,830,793,753,712,666,624,584,551,526,504,486,470,452,430,400,371,346,326,313,299,287,274,263,255,246,237,228,217,210,206,204,199,189,176,171,169,169,169,179,218,304,424,539,662,763,823,844,837,813,781,742,700,655,609,567,535,504,480,458,438,417,397,376,355,334,315,295,281,270,259,248,235,224,217,213,207,199,188,181,174,171,167,161,157,157,157,162,182,234,330,459,592,687,763,806,813,799,771,738,700,655,609,564,528,498,479,460,446,432,414,395,378,357,336,318,299,281,269,256,245,234,225,218,214,213,210,209,206,202,199,199,199,197,189,182,192,231,313,441,584,710,800,841,856,848,824,789,749,710,668,626,585,550,525,509,495,477,458,434,409,386,368,347,327,311,292,277,264,253,245,241,235,230,227,221,214,209,207,204,200,197,193,193,199,228,292,389,526,666,778,847,875,873,855,827,792,750,705,666,628,593,563,535,508,486,465,442,420,396,372,350,333,318,299,285,273,263,255,245,234,225,218,211,207,202,196,193,189,183,178,175,174,189,239,334,458,581,705,796,845,859,848,823,789,752,710,665,619,582,551,526,501,476,452,432,411,386,361,339,316,295,280,264,252,242,230,214,206,199,192,185,176,169,167,161,155,150,146,141,139,136,148,200,302,438,571,676,764,814,830,817,789,754,712,668,621,578,537,508,484,465,445,423,396,376,357,337,316,298,283,270,262,252,242,235,227,220,214,207,199,188,179,172,168,162,157,153,150,148,153,169,218,313,448,592,710,782,823,831,820,798,767,731,687,638,592,553,523,502,484,466,449,431,410,388,367,347,329,312,298,287,277,264,255,244,235,230,227,218,211,204,197,193,192,186,182,176,175,181,204,263,368,508,652,771,837,870,876,861,830,791,750,708,663,621,582,551,529,509,490,470,448,427,404,385,364,344,326,311,295,285,274,263,253,244,237,231,227,221,214,209,200,195,192,190,189,188,192,223,281,385,519,651,757,827,854,858,841,810,775,735,691,651,610,575,546,521,498,477,455,434,413,390,367,348,327,306,291,278,266,257,249,239,228,218,210,204,200,195,190,185,176,174,171,167,162,167,195,257,353,484,619,725,792,821,820,802,775,738,691,644,605,567,532,502,479,456,441,428,410,389,365,344,326,312,295,278,263,252,242,237,230,223,217,210,203,200,195,188,182,179,176,172,169,164,169,199,267,368,480,610,724,799,835,837,817,785,749,710,666,617,578,544,519,498,480,462,444,427,407,385,365,347,333,322,306,291,278,267,260,257,252,245,237,228,224,224,223,218,214,211,210,206,203,206,239,320,444,575,689,788,851,873,868,845,814,778,739,696,648,606,574,547,525,504,484,463,446,425,402,376,355,336,322,311,297,284,267,252,241,235,231,227,223,218,214,210,206,202,196,190,183,183,195,237,325,456,600,722,799,849,866,859,835,803,767,724,680,638,600,567,540,518,500,481,462,438,416,392,368,341,318,297,277,263,249,238,228,221,216,214,214,213,209,202,195,192,186,179,174,171,174,192,238,329,458,602,726,806,844,856,848,821,785,746,707,665,624,586,553,525,500,476,455,434,411,388,367,341,320,302,284,266,255,244,234,225,217,209,200,196,190,183,176,172,169,169,167,161,155,153,167,204,288,413,553,676,763,802,817,812,788,754,714,670,630,588,549,515,491,473,455,434,411,388,364,343,330,315,298,283,269,257,249,239,231,225,220,213,203,195,185,181,176,172,169,169,167,164,164,178,224,297,409,546,672,764,813,831,824,803,774,735,690,645,606,568,536,512,493,477,462,444,421,397,379,358,343,326,309,295,285,278,276,273,264,255,245,238,232,230,223,218,216,210,204,202,195,193,209,262,353,467,607,735,824,870,879,865,840,805,765,724,677,637,598,563,536,515,495,477,459,437,414,390,367,347,334,319,305,292,281,270,264,257,248,241,234,225,220,211,204,197,192,189,189,189,190,206,260,362,491,614,736,824,869,879,863,833,793,752,707,663,623,592,561,536,514,491,467,446,428,409,386,362,339,319,305,292,280,269,257,248,242,235,228,202,188,181,179,174,162,153,150,148,148,151,168,223,325,465,602,708,793,840,851,837,807,773,732,686,640,596,557,525,495,473,453,432,411,389,365,341,315,288,264,248,239,230,220,209,197,188,182,175,168,160,151,144,144,141,137,129,118,108,108,122,162,245,367,507,630,715,774,795,788,761,726,689,645,600,554,515,481,459,439,424,407,385,361,343,322,301,284,269,255,241,228,217,207,200,195,190,188,181,171,160,153,148,150,147,144,140,133,129,137,167,238,355,497,634,736,792,820,819,798,765,729,690,647,599,554,521,493,497,494,483,467,448,427,407,388,367,351,337,326,318,308,298,288,283,278,271,266,256,249,244,239,237,238,238,237,231,224,228,257,332,449,588,715,812,859,882,880,861,827,788,746,705,663,624,586,557,536,521,504,483,458,435,413,396,374,353,336,320,308,299,291,283,277,269,260,252,248,242,234,227,221,221,224,224,220,216,224,259,319,425,561,694,798,859,879,873,852,821,785,745,703,665,626,589,560,536,515,495,474,453,434,413,389,371,351,332,313,301,291,285,278,270,259,250,244,238,235,228,223,220,217,211,207,200,196,179,203,267,362,497,633,740,809,838,837,817,788,750,708,659,617,574,535,505,481,458,437,418,397,374,351,330,311,295,278,263,252,241,231,224,214,203,193,185,179,178,175,171,165,160,155,153,153,150,153,178,241,336,446,577,693,773,812,816,798,765,728,684,641,599,563,528,497,473,453,437,420,402,382,364,347,329,309,294,278,267,256,246,238,235,231,223,216,209,202,200,200,197,193,189,185,181,178,179,199,259,365,497,617,731,806,842,848,834,807,770,726,680,634,592,558,532,511,494,477,459,442,420,395,369,347,327,312,306,295,284,273,263,253,248,242,238,232,225,218,217,213,209,203,196,189,185,186,213,281,395,536,668,767,844,879,880,861,828,793,753,708,662,619,581,553,530,509,487,463,441,421,396,371,348,332,313,298,284,273,263,256,248,239,232,228,225,221,214,207,203,197,193,186,178,169,169,189,249,360,501,649,767,842,887,897,880,848,809,770,722,673,624,581,539,516,495,472,448,421,396,379,358,337,316,298,287,281,276,267,256,245,235,227,221,213,203,195,182,174,171,167,162,157,154,157,176,227,325,459,606,733,809,854,865,849,798,746,703,661,616,572,535,504,483,465,446,430,411,390,368,350,332,315,295,278,266,259,250,244,234,224,216,209,204,199,195,190,185,181,178,175,172,169,171,183,218,295,413,547,672,761,802,816,805,779,745,704,659,619,578,543,512,487,470,455,439,421,403,385,368,354,339,322,301,284,273,270,266,259,255,250,245,238,232,225,218,214,213,210,207,202,195,190,204,249,323,441,578,704,798,849,861,851,828,796,756,705,658,613,574,543,518,497,480,465,448,428,407,383,362,346,332,318,304,285,269,259,252,245,237,228,221,218,207,202,199,195,190,186,183,179,178,193,239,322,430,568,700,795,847,862,852,828,795,754,704,666,627,585,551,526,505,483,460,441,420,396,374,354,337,322,306,292,278,267,255,248,238,228,220,211,204,200,196,188,179,174,169,169,168,167,172,210,294,410,532,661,760,817,837,831,807,774,732,686,638,593,560,529,500,474,452,434,420,400,379,357,336,318,298,283,267,256,244,228,216,206,199,193,188,181,176,176,175,174,169,165,162,164,162,167,186,246,350,473,589,697,771,805,807,789,763,729,689,647,605,567,535,502,476,456,437,420,402,379,354,330,309,288,273,263,255,250,246,238,231,221,213,207,204,200,195,192,188,185,181,175,169,167,168,189,248,350,486,616,715,793,834,842,828,799,765,726,683,638,595,557,532,512,491,469,445,425,407,385,362,343,323,309,298,285,273,262,252,242,235,230,221,213,206,203,202,197,189,182,176,174,171,175,199,259,365,504,642,739,810,848,854,842,813,777,738,696,651,607,570,542,521,500,480,459,431,403,381,358,334,313,295,280,270,260,250,241,232,227,221,216,207,200,193,188,185,182,176,171,165,160,162,181,231,327,465,612,736,807,849,859,848,823,789,753,715,672,624,581,546,521,501,483,463,437,402,379,360,337,316,298,281,269,269,284,319,364,407,435,445,439,417,379,333,292,264,248,235,228,224,221,218,217,214,210,206,203,196,193,186,179,174,169,164,162,161,160,160,160,157,154,154,151,153,154,155,155,160,161,161,161,160,161,162,161,161,161,161,161,161,161,161,162,162,160,160,162,162,164,181,237,340,473,641,792,898,952,956,929,883,828,775,726,683,648,621,600,588,577,564,544,523,498,474,453,432,413,393,374,360,350,330,316,308,301,294,287,280,273,269,264,260,257,250,248,245,244,241,238,242,263,319,383,507,602,696,763,793,795,779,753,717,677,638,606,574,546,521,505,490,474,456,438,418,399,379,360,344,329,318,313,329,358,399,438,477,494,494,480,449,417,382,350,319,301,292,291,291,291,288,278,270,262,253,245,237,228,224,218,216,213,210,209,209,210,210,209,207,207,206,204,202,200,197,196,193,193,190,189,190,192,193,196,196,196,197,199,199,200,204,207,209,209,211,211,214,232,290,397,540,684,781,851,883,882,855,814,773,725,672,631,598,570,549,530,514,497,477,456,434,411,385,361,339,320,305,295,283,270,257,249,244,239,234,227,221,216,211,210,206,197,188,181,174,169,167,165,182,231,318,421,521,617,684,719,729,715,691,659,623,585,546,507,474,448,427,411,396,379,362,347,329,311,292,278,266,257,249,241,234,228,225,224,225,225,221,213,202,195,185,175,165,157,150,144,143,157,209,305,430,549,638,708,743,750,738,711,677,638,595,553,516,484,459,437,418,403,388,372,355,337,320,304,288,277,270,264,262,256,248,238,231,225,218,213,206,204,210,207,200,196,193,188,185,189,213,270,372,509,649,759,826,865,873,858,827,786,740,690,642,600,565,537,516,495,476,456,434,411,392,372,351,330,311,295,281,271,259,250,244,234,224,216,209,206,202,196,190,188,185,181,176,169,171,188,239,337,469,610,733,813,851,862,848,816,774,733,693,649,609,571,542,519,498,476,451,427,402,375,354,332,309,290,273,259,249,246,242,237,227,220,216,211,204,197,189,181,171,164,157,150,144,140,151,185,263,389,530,659,757,809,833,828,802,763,718,673,628,582,539,502,474,452,437,424,413,393,374,355,340,325,306,288,276,264,257,249,239,230,220,210,202,196,190,188,186,186,188,186,181,175,169,176,204,257,357,487,619,725,785,802,798,779,749,710,668,623,584,547,518,497,483,472,463,452,435,416,392,368,348,332,318,304,291,278,270,262,253,248,242,238,235,231,224,220,220,218,220,221,220,217,218,242,308,395,516,648,759,828,858,854,835,807,773,733,687,642,602,567,540,523,507,490,472,451,424,397,372,351,336,322,308,294,280,269,266,276,306,365,444,522,577,616,633,628,605,570,528,488,445,411,388,371,361,355,348,340,329,318,301,285,270,256,248,239,230,221,213,209,207,204,200,196,196,196,196,193,186,181,178,175,175,172,172,172,174,174,172,169,168,168,171,171,171,171,171,169,167,171,196,266,390,556,714,831,918,956,953,924,880,834,782,732,687,651,621,596,574,553,533,511,486,459,434,407,383,364,346,329,316,302,287,274,264,257,252,242,234,228,224,218,216,211,206,197,189,182,182,181,183,206,263,360,476,584,690,765,803,810,795,767,729,687,642,599,560,529,502,481,467,452,437,421,402,382,364,347,327,308,294,284,284,299,330,367,400,430,445,444,428,402,374,340,309,285,271,266,264,264,266,266,264,262,256,250,245,239,234,228,225,223,221,220,220,220,220,221,220,220,220,220,220,221,220,220,220,220,220,221,220,217,217,218,220,220,221,221,220,220,220,220,221,220,220,220,220,223,244,301,407,542,673,773,820,838,830,805,765,722,682,648,619,591,567,547,533,523,512,497,476,451,428,411,396,381,365,353,340,333,325,316,309,302,297,291,288,283,277,270,264,262,260,257,255,252,249,245,249,277,339,431,540,642,708,754,775,774,759,729,689,654,616,579,544,516,493,474,460,448,432,416,396,379,358,339,322,308,294,287,283,290,316,364,421,472,507,526,526,508,479,444,410,375,346,322,308,299,295,292,287,281,276,267,259,250,242,231,221,213,207,203,200,197,195,190,189,189,186,182,179,178,176,178,176,175,174,169,167,168,169,168,164,162,162,164,165,165,165,165,162,162,164,162,162,168,196,257,350,481,614,719,784,807,800,775,738,694,654,616,585,556,529,514,502,490,474,456,439,421,404,386,368,353,340,330,320,308,298,294,290,288,285,278,269,262,255,260,278,281,278,276,273,269,264,263,273,301,353,435,532,624,701,752,770,765,746,719,687,654,621,589,557,532,511,497,484,470,456,439,421,404,389,375,361,347,333,320,311,304,297,291,284,276,267,263,260,256,252,248,246,246,245,241,241,248,276,333,411,521,627,707,756,775,774,759,732,700,663,627,593,563,535,514,497,480,463,446,427,410,390,372,355,344,332,318,305,294,285,278,271,263,256,249,244,241,237,232,228,224,221,221,218,213,210,223,264,334,421,528,621,689,722,728,715,696,670,640,603,567,536,508,483,463,446,437,430,416,396,376,360,344,332,318,304,292,285,277,270,262,252,244,237,235,234,232,228,223,218,216,211,210,204,200,204,237,306,390,501,613,701,750,765,756,735,707,673,635,599,564,533,505,486,470,459,445,432,417,399,379,358,340,329,318,305,294,287,278,271,264,256,252,249,248,246,245,239,234,231,231,232,234,234,235,256,313,409,504,613,708,770,796,795,777,747,712,677,642,606,574,549,525,508,491,476,456,437,416,393,371,353,337,326,315,304,294,287,281,276,271,263,255,248,245,245,244,239,230,220,214,211,213,217,237,292,386,508,612,708,777,810,817,806,784,753,715,675,637,599,568,542,522,504,487,469,448,427,404,386,368,350,332,320,309,298,288,280,271,266,259,252,249,245,241,237,234,230,224,217,210,204,203,213,246,319,427,550,647,729,779,799,796,779,752,715,675,631,589,553,523,501,484,467,448,428,411,396,376,360,344,327,309,297,285,277,271,263,255,250,245,239,234,230,225,220,217,211,206,202,199,196,200,218,270,358,474,596,682,746,779,788,774,747,715,677,637,596,560,530,508,491,476,459,444,427,410,395,375,357,340,326,319,322,316,309,304,299,294,290,283,276,270,267,266,266,262,260,256,252,248,245,255,288,357,459,572,670,739,786,806,802,781,750,719,686,649,612,579,551,533,516,501,486,472,455,439,421,402,383,368,355,344,333,322,313,309,304,295,291,285,278,271,267,263,262,257,255,252,250,248,249,270,326,420,536,651,735,784,809,809,793,770,739,708,676,640,603,572,549,532,515,498,480,462,441,420,402,382,365,351,340,329,322,312,301,291,283,276,274,271,267,264,260,256,256,253,250,249,245,245,255,294,368,473,591,691,759,789,799,786,759,729,700,666,626,588,556,525,498,480,465,448,428,406,386,369,351,333,316,304,292,285,278,270,260,253,248,244,239,235,231,225,220,216,213,211,209,204,202,209,230,283,374,488,603,694,747,765,763,746,717,684,651,619,582,547,516,494,476,459,444,430,416,399,379,365,350,334,319,306,298,291,288,284,278,271,264,256,250,245,239,234,228,223,220,218,216,214,216,235,271,346,448,560,663,740,775,786,777,754,724,689,652,620,586,557,530,509,493,477,462,444,427,409,389,374,358,344,332,320,309,302,297,292,287,280,269,267,276,277,278,276,270,264,262,257,255,253,264,302,361,452,564,669,750,799,813,810,793,767,736,701,665,631,598,568,544,525,508,493,473,452,432,411,393,381,368,353,339,327,319,312,305,298,290,283,277,273,269,264,260,255,250,249,249,245,242,244,267,325,402,508,621,715,775,803,805,795,774,745,710,672,634,602,571,544,523,505,491,476,458,437,414,395,379,364,348,332,319,309,299,294,287,280,273,266,259,253,248,242,238,237,235,235,234,230,227,235,273,340,430,543,652,733,778,791,782,763,735,703,666,627,593,560,532,505,481,465,451,438,423,403,379,357,340,329,316,306,297,284,273,266,260,255,252,249,246,242,234,228,223,220,216,214,213,210,210,225,273,353,451,567,670,743,779,786,773,746,715,680,644,606,574,543,516,495,479,466,453,441,424,403,383,367,354,344,333,322,309,301,295,292,288,281,274,267,263,262,259,253,248,244,242,241,238,237,246,281,353,452,557,669,756,806,821,813,791,761,728,690,651,614,585,558,533,514,495,479,463,445,425,404,382,361,344,333,322,311,302,294,287,280,270,263,262,260,256,252,245,239,234,230,230,217,188,182,206,273,385,515,634,745,819,852,856,841,809,765,721,677,634,595,561,532,505,484,465,442,425,406,385,364,343,320,302,287,274,264,255,246,238,230,223,216,209,203,200,202,199,193,185,178,172,171,169,181,227,318,449,568,687,779,831,845,834,807,774,735,693,648,602,561,528,501,480,462,441,420,403,382,360,337,315,292,277,262,246,232,223,216,210,206,200,193,186,179,174,171,167,165,162,160,154,154,158,183,248,354,490,603,708,784,819,823,803,773,735,687,640,596,557,526,501,480,460,441,425,406,389,368,344,325,313,298,284,270,257,249,242,234,227,225,223,217,210,202,195,192,190,186,181,175,171,171,185,232,322,452,592,694,779,828,844,833,807,774,740,698,651,605,564,536,516,500,484,467,446,424,403,379,358,341,329,319,311,299,284,271,262,256,252,244,235,225,218,214,211,211,210,207,202,195,192,204,248,337,466,606,728,800,848,866,859,834,798,760,717,672,630,591,556,529,511,494,473,449,424,400,379,361,339,319,302,288,281,271,257,246,238,232,228,221,216,210,206,203,200,197,195,189,185,179,183,211,278,393,537,676,781,835,862,862,845,813,773,732,687,641,596,558,529,508,487,466,442,421,400,381,361,337,316,295,278,267,260,250,239,224,213,204,203,199,193,186,179,172,169,164,161,161,161,165,183,231,326,458,602,726,806,844,855,845,820,785,745,704,658,616,578,547,518,495,479,462,442,421,397,374,354,332,312,297,281,269,260,252,242,230,214,202,195,189,182,175,168,164,164,161,160,158,158,169,206,274,390,532,668,770,824,842,838,816,784,743,697,655,613,575,543,518,497,480,463,445,424,403,379,357,339,322,308,292,277,267,260,255,248,235,224,217,217,217,214,209,203,195,190,186,182,176,179,207,263,367,501,638,750,824,855,855,834,810,773,728,679,634,589,554,528,505,483,462,439,418,396,372,350,332,315,299,284,269,255,244,235,228,224,217,209,200,195,190,188,183,178,172,169,167,165,165,183,238,318,444,589,719,809,856,866,854,828,798,760,717,670,627,582,546,518,497,481,465,439,410,378,358,339,326,311,292,276,263,252,244,235,225,217,211,207,203,200,195,189,185,178,171,168,165,165,175,217,304,410,547,682,784,842,861,854,831,799,760,714,663,619,581,543,514,490,470,451,432,407,381,357,333,311,295,278,263,250,239,228,221,213,206,200,193,183,175,169,162,158,155,153,153,153,151,151,169,227,330,442,575,697,784,828,831,803,760,722,683,642,600,565,533,504,479,459,442,427,409,385,360,336,312,291,274,259,248,237,228,220,214,207,202,197,196,193,193,189,183,176,169,162,161,158,160,171,217,311,451,568,680,768,817,828,814,786,749,707,662,617,577,544,518,495,477,459,438,423,397,375,350,327,311,299,287,274,266,256,246,242,237,232,224,217,211,210,206,200,195,190,192,195,197,203,227,291,402,533,659,782,868,908,912,889,856,816,770,721,673,628,593,564,537,518,494,470,449,430,407,383,358,336,319,306,294,281,270,259,250,244,235,225,220,218,214,213,206,199,192,189,185,179,181,195,242,337,476,617,735,831,884,900,884,849,812,765,717,672,628,592,563,537,516,497,476,445,421,389,364,340,320,301,285,271,260,250,244,235,228,221,214,207,200,193,189,185,181,174,164,155,155,164,195,269,388,535,669,765,840,876,877,855,823,784,739,690,640,596,561,535,509,484,459,438,418,400,379,351,327,306,287,271,262,252,245,235,228,223,220,216,207,197,189,181,176,172,171,172,168,157,155,168,214,305,430,564,676,749,796,810,802,781,750,714,672,626,581,543,509,487,469,455,438,418,396,376,355,337,319,302,290,280,271,262,252,242,237,230,225,218,211,204,199,196,196,195,192,186,181,176,183,216,285,392,525,658,747,812,842,842,823,791,754,710,673,630,586,549,522,501,483,466,448,430,410,392,372,350,329,311,294,284,273,263,255,246,238,230,224,217,213,210,206,204,202,197,190,185,182,183,203,259,364,500,642,767,834,869,872,855,824,786,747,707,665,620,585,550,522,501,486,472,449,421,395,378,355,333,320,306,292,284,273,259,245,234,227,225,225,220,214,207,200,196,195,192,188,183,182,206,238,320,442,585,726,820,858,866,845,826,779,740,693,658,612,574,546,523,502,480,459,437,413,386,365,343,322,301,284,271,260,253,244,235,224,214,209,204,197,192,185,179,175,175,174,169,162,160,176,216,299,425,567,694,785,834,845,834,806,768,725,680,637,592,554,526,504,483,462,442,423,403,383,362,344,326,311,294,280,269,260,253,244,235,228,221,216,211,210,207,197,189,185,185,183,179,172,175,206,263,364,494,626,732,799,827,826,805,771,731,687,647,609,568,533,507,487,470,455,435,414,395,378,360,344,330,315,298,285,274,264,260,256,249,238,228,224,224,224,223,218,213,213,211,209,202,200,218,274,355,480,623,743,821,859,865,854,831,795,749,700,654,613,577,547,525,505,487,472,451,425,400,378,355,340,326,312,298,285,277,273,266,259,252,245,235,230,225,221,216,209,203,199,196,192,190,203,245,330,431,561,689,786,847,869,862,838,805,767,724,675,628,588,553,523,501,481,462,442,421,400,381,362,341,325,311,298,283,267,255,248,239,230,221,214,209,206,202,196,193,190,185,179,176,172,171,190,248,344,459,596,717,796,833,834,814,785,750,708,663,617,579,542,509,486,463,441,421,402,381,357,330,304,283,270,259,246,234,223,216,211,206,197,190,183,178,176,168,160,154,150,147,144,140,136,137,161,225,323,438,572,690,771,809,810,789,754,718,680,640,596,557,522,493,472,453,438,424,409,390,369,347,325,305,288,276,264,255,245,234,227,220,214,209,206,202,199,195,203,203,199,195,192,190,189,196,225,295,400,518,648,753,819,845,842,821,789,749,705,662,621,588,556,529,509,494,477,463,446,425,402,378,357,343,332,318,305,297,292,290,287,278,270,266,260,252,246,245,242,237,231,225,225,224,223,238,291,389,511
