3222,3334,3403,3423,3394,3334,3246,3146,3030,2910,2810,2734,2678,2638,2602,2562,2526,2498,2466,2438,2402,2354,2306,2258,2206,2150,2102,2049,1997,1973,2018,2166,2370,2662,2986,3274,3491,3627,3691,3703,3691,3643,3559,3439,3294,3138,2966,2810,2678,2582,2518,2478,2442,2402,2342,2266,2170,2086,1989,1897,1801,1713,1633,1565,1517,1513,1609,1837,2166,2510,2806,3078,3274,3398,3467,3487,3467,3423,3342,3234,3094,2946,2814,2686,2578,2506,2478,2482,2494,2382,2110,1993,1901,1813,1737,1685,1641,1605,1569,1537,1521,1553,1701,1909,2170,2450,2686,2818,2914,2974,3006,3006,2978,2922,2842,2742,2614,2470,2326,2202,2106,2022,1949,1881,1817,1757,1709,1649,1589,1537,1485,1441,1409,1377,1337,1285,1233,1229,1293,1457,1701,1981,2238,2438,2562,2626,2658,2654,2630,2586,2530,2458,2358,2238,2110,1981,1865,1773,1689,1609,1533,1465,1401,1353,1301,1233,1153,1089,1037,997,973,945,921,905,901,937,1029,1201,1441,1705,1949,2134,2238,2286,2294,2266,2214,2142,2061,1961,1845,1729,1629,1549,1493,1465,1445,1429,1417,1401,1385,1373,1341,1301,1257,1217,1181,1157,1129,1097,1069,1053,1073,1145,1297,1529,1797,2073,2318,2442,2514,2542,2534,2494,2418,2326,2222,2106,1989,1893,1813,1769,1741,1717,1697,1677,1653,1629,1609,1581,1553,1525,1493,1457,1429,1393,1361,1357,1433,1609,1849,2094,2350,2562,2710,2794,2830,2830,2814,2774,2710,2618,2506,2398,2286,2182,2094,2022,1969,1929,1897,1857,1821,1781,1741,1701,1665,1621,1577,1529,1481,1445,1449,1521,1693,1945,2238,2502,2678,2822,2926,2986,3010,3006,2966,2914,2842,2742,2622,2498,2390,2298,2210,2138,2069,2009,1953,1909,1857,1797,1737,1677,1621,1577,1525,1465,1409,1389,1445,1565,1777,2042,2302,2518,2678,2766,2822,2854,2858,2842,2794,2722,2630,2506,2378,2254,2146,2061,2001,1953,1905,1865,1825,1785,1749,1641,1441,1337,1265,1205,1165,1121,1073,1013,961,945,1017,1193,1541,1885,2194,2454,2622,2714,2770,2798,2794,2758,2682,2582,2446,2286,2118,1961,1821,1729,1657,1601,1553,1501,1445,1397,1353,1305,1245,1177,1109,1045,993,933,869,801,745,737,805,965,1213,1497,1761,1965,2094,2186,2242,2254,2222,2146,2046,1933,1793,1653,1521,1409,1333,1293,1261,1237,1217,1185,1149,1125,1085,1041,989,933,873,829,777,733,692,656,636,656,753,953,1237,1549,1833,2042,2170,2254,2290,2282,2242,2166,2065,1933,1793,1657,1541,1453,1401,1369,1357,1357,1361,1361,1361,1353,1337,1313,1289,1269,1249,1233,1213,1189,1165,1173,1241,1389,1653,1981,2306,2638,2970,3098,3158,3174,3158,3110,3022,2918,2786,2634,2498,2382,2286,2230,2190,2154,2118,2077,2030,1981,1941,1897,1845,1793,1729,1653,1577,1497,1437,1437,1545,1781,2046,2362,2694,2930,3082,3162,3186,3166,3130,3074,2974,2882,2810,2710,2574,2474,2370,2290,2218,2170,2130,2098,2065,2038,2001,1977,1957,1933,1913,1885,1869,1877,1929,2030,2186,2402,2658,2874,3086,3254,3362,3415,3419,3378,3314,3218,3098,2954,2786,2610,2446,2274,2126,2009,1917,1853,1809,1761,1713,1669,1625,1577,1541,1501,1457,1417,1377,1329,1297,1253,1217,1197,1209,1273,1405,1605,1893,2198,2478,2706,2862,2954,3014,3042,3034,2998,2926,2834,2706,2550,2382,2226,2098,2009,1929,1717,1589,1513,1461,1425,1401,1369,1329,1285,1253,1233,1225,1209,1177,1133,1097,1121,1213,1401,1665,1945,2202,2394,2502,2570,2598,2586,2542,2466,2366,2250,2110,1973,1861,1773,1717,1681,1653,1621,1585,1541,1497,1465,1421,1369,1305,1241,1185,1137,1085,1017,957,929,973,1113,1325,1621,1937,2210,2418,2546,2610,2650,2654,2630,2574,2490,2386,2258,2126,2009,1909,1837,1789,1741,1685,1617,1533,1453,1393,1341,1297,1257,1217,1189,1169,1161,1157,1165,1209,1329,1525,1773,2086,2394,2642,2814,2918,2962,2986,2986,2958,2902,2814,2706,2574,2426,2274,2134,2022,1937,1877,1825,1781,1737,1685,1625,1573,1517,1461,1405,1345,1293,1253,1213,1169,1129,1097,1173,1273,1449,1713,2022,2310,2534,2682,2770,2838,2878,2906,2914,2902,2854,2770,2650,2510,2366,2234,2138,2053,1985,1933,1889,1853,1833,1809,1765,1713,1653,1601,1557,1521,1465,1401,1341,1317,1357,1477,1693,1953,2218,2438,2590,2678,2726,2730,2702,2638,2546,2442,2314,2162,2001,1849,1709,1613,1529,1449,1385,1325,1273,1229,1193,1153,1117,1081,1053,1029,1013,989,969,949,933,909,901,881,885,957,1133,1401,1677,1973,2238,2426,2542,2594,2594,2554,2478,2378,2258,2126,2009,1909,1817,1745,1701,1665,1645,1629,1605,1581,1553,1525,1501,1485,1461,1433,1405,1377,1341,1309,1277,1261,1289,1405,1613,1865,2114,2382,2602,2758,2854,2898,2894,2858,2886,2838,2746,2638,2546,2458,2386,2338,2306,2286,2262,2234,2198,2162,2126,2090,2061,2038,2013,1989,1961,1929,1889,1853,1833,1857,1969,2178,2450,2686,2926,3126,3262,3346,3378,3370,3342,3294,3214,3110,2978,2838,2706,2574,2458,2366,2290,2230,2178,2130,2082,2038,1993,1953,1917,1877,1829,1781,1733,1681,1657,1665,1749,1929,2190,2474,2714,2886,3022,3114,3162,3174,3158,3114,3046,2950,2826,2682,2534,2406,2286,2178,2090,2013,1953,1905,1849,1785,1717,1649,1585,1525,1473,1413,1353,1297,1241,1197,1177,1181,1261,1449,1725,2046,2306,2546,2730,2854,2926,2958,2954,2938,2902,2834,2738,2614,2494,2382,2270,2174,2098,2038,1989,1945,1901,1865,1829,1789,1633,1549,1505,1465,1425,1381,1345,1321,1305,1329,1421,1601,1841,2077,2270,2442,2566,2634,2658,2650,2614,2554,2470,2366,2250,2134,2034,1933,1849,1789,1741,1709,1685,1657,1621,1577,1537,1497,1473,1441,1409,1377,1341,1301,1269,1257,1285,1397,1597,1865,2130,2346,2534,2666,2742,2778,2794,2782,2762,2718,2646,2542,2422,2310,2194,2086,1993,1921,1865,1825,1789,1745,1705,1657,1605,1553,1501,1441,1377,1313,1257,1241,1277,1393,1601,1865,2134,2366,2510,2626,2706,2754,2774,2770,2742,2686,2606,2494,2374,2250,2142,2053,1977,1913,1861,1817,1781,1749,1709,1665,1613,1561,1513,1477,1429,1377,1325,1309,1369,1509,1705,1961,2214,2414,2554,2630,2666,2686,2830,2866,2818,2730,2610,2454,2282,2114,1965,1845,1761,1693,1633,1577,1521,1469,1425,1373,1305,1237,1173,1113,1065,1021,981,977,1057,1261,1541,1837,2158,2426,2618,2734,2790,2794,2770,2718,2638,2526,2378,2238,2082,1937,1817,1729,1669,1633,1605,1569,1525,1469,1413,1357,1313,1257,1197,1137,1077,1029,1029,1097,1273,1553,1885,2210,2430,2602,2710,2758,2758,2722,2646,2546,2410,2250,2082,1929,1813,1733,1669,1621,1581,1541,1497,1465,1417,1361,1305,1253,1197,1161,1113,1061,1029,1057,1193,1417,1689,2005,2294,2506,2634,2694,2702,2670,2598,2494,2350,2186,2046,1905,1785,1685,1605,1553,1521,1489,1457,1421,1373,1317,1277,1225,1169,1113,1057,1009,1029,1081,1197,1421,1737,2069,2346,2530,2658,2722,2734,2694,2610,2506,2370,2214,2057,1917,1801,1721,1661,1613,1577,1545,1509,1469,1429,1381,1325,1265,1197,1129,1069,1005,949,933,1005,1189,1417,1713,2005,2246,2402,2478,2486,2446,2358,2234,2082,1921,1773,1649,1529,1437,1373,1337,1317,1301,1277,1245,1209,1173,1133,1105,1065,1013,957,905,853,825,797,797,873,1057,1329,1621,1869,2090,2238,2302,2294,2234,2150,2026,1881,1729,1589,1473,1401,1353,1325,1309,1305,1297,1301,1297,1289,1277,1261,1241,1221,1201,1173,1133,1101,1101,1177,1341,1613,1953,2282,2550,2730,2826,2874,2870,2818,2726,2606,2482,2346,2206,2077,1977,1905,1865,1845,1825,1937,1969,1949,1917,1881,1837,1789,1741,1689,1641,1613,1633,1765,2022,2362,2718,2978,3194,3346,3435,3471,3467,3423,3346,3242,3102,2946,2778,2634,2514,2406,2318,2254,2202,2158,2122,2077,2026,1973,1913,1845,1793,1725,1657,1613,1649,1809,2038,2358,2698,2986,3202,3338,3407,3427,3423,3390,3330,3234,3106,2962,2786,2610,2458,2330,2238,2174,2114,2057,2001,1945,1893,1849,1797,1741,1677,1605,1537,1497,1525,1657,1917,2262,2618,2910,3106,3262,3358,3403,3419,3398,3346,3266,3146,2990,2822,2658,2526,2402,2294,2206,2138,2069,2018,1961,1905,1849,1789,1721,1657,1593,1517,1441,1389,1389,1485,1681,1993,2350,2682,2942,3122,3210,3258,3278,3266,3226,3150,2806,2562,2378,2206,2049,1917,1817,1745,1677,1621,1569,1509,1449,1397,1341,1281,1217,1157,1093,1045,981,913,861,865,973,1161,1457,1801,2110,2350,2506,2586,2614,2614,2582,2522,2434,2318,2186,2030,1877,1741,1633,1549,1497,1453,1409,1361,1313,1261,1225,1185,1133,1077,1017,957,913,877,829,785,753,773,873,1049,1309,1597,1853,2034,2138,2170,2162,2110,2018,1893,1753,1637,1517,1413,1333,1285,1257,1253,1249,1233,1217,1197,1169,1153,1137,1109,1073,1037,1001,965,937,909,929,1041,1269,1581,1865,2154,2386,2538,2626,2658,2646,2602,2526,2418,2290,2154,2030,1929,1837,1773,1729,1701,1677,1653,1617,1581,1541,1497,1449,1409,1361,1305,1449,1485,1493,1549,1717,2001,2358,2710,3002,3194,3302,3366,3390,3382,3354,3294,3202,3074,2926,2762,2610,2478,2382,2298,2226,2170,2114,2061,2013,1957,1893,1821,1753,1681,1613,1557,1517,1553,1705,1977,2294,2590,2874,3086,3218,3282,3302,3286,3250,3186,3090,2958,2798,2646,2494,2358,2250,2166,2094,2046,1989,1937,1885,1825,1765,1709,1657,1593,1529,1465,1401,1365,1377,1489,1725,2061,2422,2738,2942,3090,3178,3218,3222,3190,3138,3050,2930,2782,2622,2466,2338,2242,2158,2090,2034,1973,1921,1873,1817,1753,1689,1621,1553,1505,1449,1385,1321,1293,1337,1465,1705,2022,2334,2590,2766,2862,2894,2890,2850,2770,2654,2522,2386,2230,2086,1961,1865,1801,1597,1493,1441,1397,1349,1297,1261,1213,1157,1105,1049,997,953,917,869,837,853,957,1149,1385,1665,1917,2106,2210,2246,2230,2162,2061,1933,1797,1661,1557,1461,1389,1345,1321,1309,1305,1305,1293,1273,1245,1217,1189,1161,1121,1081,1041,1005,977,957,953,1013,1173,1425,1729,1981,2210,2378,2470,2498,2474,2422,2330,2214,2073,1937,1813,1717,1657,1613,1589,1577,1573,1569,1557,1529,1497,1457,1417,1377,1341,1305,1265,1225,1217,1277,1413,1665,1993,2330,2610,2810,2922,2962,2974,2958,2914,2834,2730,2606,2462,2322,2198,2098,2022,1969,1921,1881,1837,1793,1745,1697,1649,1593,1529,1469,1409,1361,1341,1381,1525,1785,2118,2434,2678,2890,3034,3086,3102,3098,3066,3014,2938,2834,2706,2570,2450,2326,2222,2138,2077,2026,1981,1941,1893,1837,1781,1721,1669,1621,1565,1505,1465,1477,1589,1761,2026,2326,2598,2806,2938,2998,3030,3038,3026,2982,2910,2822,2706,2562,2422,2290,2178,2098,2034,1973,1921,1869,1813,1761,1717,1665,1605,1549,1493,1433,1389,1345,1321,1365,1517,1777,2046,2334,2586,2774,2890,2958,2986,2978,2954,2906,2822,2710,2578,2454,2318,2198,2098,2018,1949,1897,1841,1785,1729,1673,1617,1569,1509,1449,1389,1329,1269,1221,1193,1193,1273,1457,1721,1993,2222,2414,2546,2614,2634,2614,2570,2502,2406,2286,2146,2009,1905,1809,1733,1681,1637,1597,1561,1529,1489,1449,1405,1361,1325,1197,1113,1053,1001,949,901,869,845,861,965,1165,1441,1689,1929,2118,2230,2270,2254,2206,2122,2013,1885,1757,1641,1553,1497,1453,1429,1413,1401,1393,1385,1365,1345,1321,1293,1257,1233,1201,1165,1129,1093,1065,1073,1145,1317,1585,1897,2190,2410,2550,2642,2682,2678,2634,2562,2470,2350,2222,2090,1977,1889,1837,1793,1761,1733,1701,1665,1633,1601,1565,1521,1477,1429,1389,1349,1301,1257,1261,1353,1533,1781,2106,2422,2678,2850,2950,2990,3006,2998,2966,2898,2798,2690,2554,2410,2278,2162,2069,2001,1945,1893,1841,1789,1737,1689,1641,1589,1529,1465,1405,1341,1297,1273,1313,1461,1721,2049,2322,2582,2798,2938,3026,3070,3082,3058,3022,2950,2850,2726,2598,2474,2350,2242,2154,2086,2030,1981,1933,1877,1825,1773,1721,1677,1625,1573,1513,1453,1409,1409,1485,1665,1933,2242,2518,2722,2842,2930,2982,3006,3006,2982,2934,2854,2738,2602,2454,2318,2210,2110,2026,1949,1885,1821,1773,1721,1677,1633,1585,1537,1489,1453,1405,1357,1309,1269,1245,1265,1369,1581,1869,2178,2450,2626,2758,2846,2890,2902,2886,2846,2786,2702,2586,2450,2314,2198,2106,2026,1957,1901,1845,1793,1753,1709,1657,1609,1553,1493,1441,1369,1277,1173,1069,981,957,997,1141,1397,1729,2114,2494,2866,3326,3803,4023,4079,4091,4095,4095,4095,4095,4095,4095,4095,4095,4095,4095,4095,4031,3915,3791,3679,3587,3483,3411,3070,2442,2322,2338,2406,2506,2602,2746,2918,3098,3246,3346,3378,3390,3370,3294,3186,3098,3066,3078,3106,3102,3058,3002,2938,2858,2738,2566,2374,2198,2057,1965,1905,1869,1841,1817,1793,1769,1757,1777,1837,1945,2114,2250,2358,2450,2518,2554,2538,2478,2390,2302,2230,2178,2130,2077,2022,1965,1913,1881,1869,1869,1869,1881,1897,1881,1809,1721,1685,1709,1749,1753,1717,1677,1657,1673,1709,1745,1765,1777,1781,1793,1809,1809,1789,1737,1661,1561,1437,1309,1197,1105,1025,973,925,885,857,841,829,833,841,849,857,853,849,853,857,857,861,885,933,993,1065,1145,1217,1277,1329,1365,1385,1393,1385,1357,1321,1277,1241,1205,1161,1121,1173,1177,1165,1145,1129,1121,1109,1097,1085,1077,1061,1049,1037,1025,1025,1041,1073,1145,1209,1293,1345,1385,1421,1445,1457,1457,1449,1437,1417,1397,1377,1357,1337,1325,1313,1301,1297,1293,1289,1285,1277,1261,1249,1241,1233,1229,1229,1229,1225,1221,1221,1229,1245,1269,1305,1337,1369,1397,1417,1433,1441,1445,1445,1445,1449,1449,1449,1453,1453,1449,1445,1445,1445,1457,1473,1485,1485,1481,1481,1497,1537,1593,1657,1721,1793,1861,1929,1993,2049,2098,2154,2198,2218,2218,2194,2162,2122,2082,2038,1989,1941,1897,1853,1813,1773,1733,1689,1645,1597,1553,1525,1513,1521,1533,1553,1585,1625,1677,1729,1781,1825,1881,1937,1993,2038,2073,2082,2550,2758,2814,2838,2858,2854,2822,2758,2690,2638,2590,2526,2454,2398,2394,2426,2446,2434,2382,2302,2214,2130,2065,2049,2082,2158,2238,2302,2362,2430,2478,2518,2542,2558,2574,2590,2582,2546,2478,2398,2342,2322,2326,2338,2350,2338,2302,2262,2242,2266,2354,2490,2646,2798,2934,3026,3138,3270,3431,3611,3799,3963,4055,4087,4095,4095,4095,4095,4095,4095,4095,4095,4059,3971,3863,3739,3607,3459,3306,3154,3014,2862,2698,2514,2326,2142,2001,1873,1769,1689,1633,1589,1549,1517,1481,1457,1445,1437,1429,1417,1377,1317,1241,1153,1057,989,913,833,749,672,600,560,524,496,484,480,472,464,460,448,452,472,508,564,632,717,805,897,1169,1309,1365,1401,1417,1421,1409,1389,1373,1353,1329,1313,1293,1277,1265,1265,1269,1281,1305,1333,1357,1373,1385,1393,1397,1397,1393,1393,1401,1417,1445,1481,1513,1537,1561,1577,1581,1569,1541,1509,1481,1449,1413,1373,1333,1297,1273,1249,1233,1233,1233,1241,1261,1281,1301,1297,1265,1237,1245,1293,1381,1477,1561,1625,1669,1709,1741,1769,1793,1813,1829,1833,1829,1817,1793,1765,1741,1717,1689,1653,1609,1573,1545,1529,1513,1493,1477,1465,1457,1449,1437,1429,1421,1413,1405,1413,1433,1469,1521,1577,1625,1661,1689,1709,1725,1737,1741,1741,1737,1729,1717,1701,1689,1681,1677,1677,1677,1677,1681,1677,1673,1673,1669,1661,1657,1653,1649,1653,2194,2522,2730,2926,3114,3250,3370,3463,3515,3531,3515,3483,3431,3358,3282,3206,3122,3054,2998,2946,2910,2886,2866,2854,2838,2818,2794,2770,2742,2710,2682,2658,2650,2694,2798,2954,3110,3278,3431,3547,3619,3655,3655,3631,3591,3527,3447,3354,3262,3190,3114,3046,2990,2946,2910,2882,2862,2838,2814,2786,2754,2726,2694,2658,2622,2598,2610,2662,2778,2942,3122,3282,3403,3475,3507,3507,3483,3427,3362,3290,3214,3118,3026,2938,2866,2810,2774,2738,2710,2682,2654,2622,2598,2578,2550,2522,2486,2454,2426,2410,2402,2434,2522,2654,2806,2942,3070,3166,3214,3222,3202,3166,3106,3034,2954,2874,2798,2746,2698,2662,2642,2630,2626,2626,2622,2614,2602,2594,1785,1409,1305,1253,1213,1189,1181,1225,1325,1505,1741,1985,2202,2362,2442,2470,2454,2394,2298,2182,2065,1953,1849,1757,1685,1637,1609,1601,1597,1593,1585,1577,1569,1553,1529,1497,1457,1425,1405,1421,1493,1657,1905,2198,2482,2682,2842,2946,2986,2974,2926,2846,2746,2626,2490,2358,2242,2150,2086,2042,2013,1985,1961,1937,1917,1889,1865,1829,1785,1745,1705,1673,1677,1765,1965,2250,2550,2838,3070,3226,3322,3362,3358,3322,3258,3166,3042,2898,2750,2622,2498,2386,2298,2242,2202,2170,2134,2090,2049,2001,1949,1905,1865,1805,1753,1725,1753,1857,2046,2334,2666,2966,3194,3346,3415,3447,3443,3407,3342,3246,3126,2978,2818,2666,2530,2418,2330,2266,2053,1937,1877,1833,1797,1757,1709,1657,1601,1545,1493,1465,1477,1597,1785,2042,2334,2554,2742,2878,2958,2986,2974,2930,2862,2770,2650,2514,2374,2254,2154,2065,1993,1937,1893,1853,1813,1773,1729,1681,1629,1577,1537,1489,1437,1393,1373,1417,1525,1737,2013,2298,2534,2702,2790,2818,2818,2778,2714,2618,2506,2382,2246,2118,2005,1921,1849,1809,1773,1733,1693,1649,1609,1569,1525,1473,1417,1345,1281,1229,1185,1141,1113,1137,1245,1421,1629,1865,2065,2202,2274,2282,2250,2186,2090,1969,1837,1705,1601,1505,1425,1373,1337,1317,1309,1305,1293,1281,1265,1249,1221,1201,1173,1141,1105,1069,1037,1029,1033,1093,1237,1445,1689,1889,2073,2206,2282,2298,2294,2242,2158,2046,1921,1813,1713,1641,1597,1577,1569,1569,1569,1565,1561,1549,1533,1513,1485,1457,1437,1405,1365,1337,1349,1441,1593,1841,2146,2442,2682,2842,2926,2954,2950,2906,2850,2758,2646,2526,2394,2250,2162,2073,2018,1977,1945,1897,1857,1809,1757,1713,1649,1581,1513,1449,1401,1401,1477,1657,1929,2242,2534,2726,2878,2978,3026,3034,3010,2962,2886,2782,2650,2502,2354,2230,2130,2046,1981,1933,1885,1841,1801,1757,1709,1653,1597,1541,1489,1437,1393,1397,1493,1709,1989,2278,2586,2830,3002,3106,3154,3158,3142,3098,3026,2918,2782,2642,2494,2354,2230,2138,2065,2009,1957,1897,1845,1789,1729,1677,1613,1545,1477,1413,1357,1325,1341,1377,1453,1749,2106,2406,2614,2778,2882,2930,2938,2910,2838,2730,2594,2442,2282,2138,2026,1929,1853,1793,1741,1685,1629,1581,1529,1477,1417,1353,1289,1229,1161,1109,1089,1161,1345,1573,1881,2198,2462,2642,2742,2766,2754,2706,2622,2498,2350,2202,2069,1937,1829,1753,1693,1649,1613,1573,1529,1473,1409,1345,1289,1221,1153,1077,1005,945,925,969,1113,1361,1665,1957,2178,2306,2378,2386,2346,2270,2166,2042,1897,1749,1613,1501,1425,1381,1353,1337,1321,1301,1273,1245,1201,1153,1097,1045,993,945,905,869,881,981,1189,1453,1717,1997,2214,2342,2390,2374,2318,2226,2106,1957,1809,1665,1557,1469,1401,1353,1329,1317,1305,1281,1249,1209,1157,1137,1173,1153,1109,1061,1013,997,1049,1177,1409,1693,1977,2206,2358,2422,2430,2386,2306,2190,2046,1913,1781,1661,1565,1501,1469,1453,1445,1429,1405,1373,1341,1309,1281,1237,1189,1129,1069,1021,1009,1057,1189,1421,1701,1973,2158,2286,2346,2342,2286,2186,2053,1913,1753,1589,1441,1317,1233,1181,1141,1101,1061,1017,969,933,885,833,777,713,644,600,544,484,440,432,508,668,873,1125,1361,1537,1641,1669,1649,1589,1489,1365,1229,1109,1013,929,873,849,841,849,873,893,901,905,905,897,893,881,861,829,793,765,769,821,957,1189,1489,1805,2061,2238,2354,2406,2398,2342,2254,2150,2018,1881,1757,1657,1581,1537,1505,1641,1981,2069,2090,2082,2061,2030,1989,1945,1893,1841,1809,1789,1833,1981,2246,2586,2882,3170,3394,3539,3615,3635,3607,3555,3471,3350,3194,3026,2874,2750,2630,2534,2462,2406,2366,2322,2270,2218,2154,2094,2034,1985,1917,1841,1769,1741,1797,1941,2206,2558,2918,3230,3451,3583,3647,3687,3691,3663,3599,3495,3362,3194,3014,2842,2690,2562,2474,2394,2318,2250,2186,2118,2061,1997,1929,1865,1801,1733,1677,1629,1629,1733,1969,2314,2674,2986,3270,3483,3615,3683,3703,3691,3667,3607,3507,3370,3206,3050,2886,2738,2618,2530,2458,2402,2350,2290,2230,2166,2102,2042,1989,1925,1861,1793,1733,1705,1745,1909,2206,2586,2970,3294,3495,3643,3735,3779,3787,3587,3126,2946,2810,2666,2502,2342,2210,2102,2009,1941,1881,1825,1769,1717,1653,1581,1505,1433,1365,1317,1257,1197,1129,1073,1057,1121,1301,1593,1937,2262,2514,2670,2746,2782,2770,2722,2642,2538,2410,2250,2077,1905,1749,1625,1541,1469,1401,1337,1273,1201,1149,1089,1017,949,881,817,761,717,660,604,544,500,496,552,701,949,1257,1557,1793,1945,2042,2077,2065,2009,1913,1809,1685,1553,1433,1333,1261,1229,1217,1213,1209,1197,1185,1169,1157,1137,1105,1073,1045,1025,1001,965,929,897,877,885,953,1117,1389,1717,2053,2330,2490,2602,2662,2674,2638,2562,2458,2342,2198,2057,1933,1829,1757,1713,1673,1641,1617,1581,1541,1505,1473,1521,1685,1697,1665,1629,1593,1549,1521,1553,1673,1865,2094,2366,2610,2794,2910,2966,2978,2966,2930,2870,2782,2670,2562,2446,2326,2222,2142,2082,2038,1993,1945,1901,1853,1809,1765,1725,1677,1625,1569,1513,1461,1425,1413,1473,1629,1877,2150,2394,2626,2794,2898,2950,2970,2958,2930,2882,2798,2690,2562,2442,2318,2202,2110,2042,1985,1937,1897,1849,1805,1753,1709,1665,1629,1585,1545,1497,1449,1421,1445,1545,1745,2030,2330,2602,2778,2910,2998,3046,3062,3054,3022,2970,2886,2774,2642,2502,2382,2282,2190,2122,2069,2022,1973,1933,1885,1841,1785,1733,1681,1641,1593,1541,1489,1449,1433,1485,1609,1837,2130,2422,2662,2826,2918,2974,2998,2990,2962,2898,2790,2662,2510,2338,2178,2042,1941,1853,1773,1705,1637,1569,1505,1445,1373,1301,1233,1157,1089,1025,945,873,805,745,729,781,937,1201,1525,1845,2102,2254,2346,2386,2382,2338,2262,2170,2049,1905,1753,1617,1509,1437,1393,1349,1305,1265,1233,1205,1181,1145,1105,1065,1017,969,941,909,869,829,793,781,817,929,1149,1457,1789,2090,2298,2418,2482,2502,2482,2422,2334,2226,2094,1961,1841,1749,1689,1657,1633,1605,1569,1533,1497,1465,1421,1369,1313,1257,1197,1149,1101,1045,997,989,1069,1245,1497,1829,2162,2434,2622,2730,2766,2766,2738,2678,2590,2474,2346,2190,2034,1885,1765,1677,1609,1561,1513,1461,1417,1369,1321,1281,1225,1241,1357,1349,1309,1289,1277,1329,1493,1777,2134,2438,2726,2954,3102,3186,3226,3226,3190,3138,3050,2926,2774,2614,2474,2342,2226,2134,2065,2005,1965,1917,1865,1817,1761,1701,1653,1597,1537,1481,1429,1381,1369,1421,1577,1853,2210,2566,2850,3042,3186,3262,3290,3286,3258,3206,3122,3002,2858,2698,2546,2430,2326,2238,2166,2110,2053,2009,1961,1909,1853,1797,1733,1677,1625,1569,1505,1449,1417,1425,1517,1717,2026,2386,2714,2966,3110,3202,3250,3262,3234,3170,3086,2974,2834,2678,2526,2386,2278,2194,2122,2053,1989,1925,1861,1805,1733,1661,1585,1505,1425,1365,1305,1237,1173,1105,1037,1001,993,1061,1249,1537,1873,2166,2370,2514,2594,2606,2578,2486,2338,2222,2094,1957,1821,1713,1633,1569,1525,1493,1461,1437,1421,1393,1357,1325,1293,1261,1237,1201,1161,1125,1089,1061,1037,1025,1029,1093,1241,1465,1713,1929,2126,2266,2338,2362,2334,2274,2190,2077,1957,1845,1745,1685,1641,1617,1605,1601,1597,1589,1585,1565,1549,1529,1505,1481,1461,1437,1413,1381,1345,1317,1325,1389,1553,1813,2134,2446,2666,2842,2962,3026,3046,3030,2982,2910,2814,2694,2562,2430,2314,2222,2150,2090,2038,1989,1945,1909,1861,1809,1753,1697,1641,1601,1549,1493,1437,1397,1405,1493,1665,1933,2238,2514,2734,2870,2938,2970,2966,2942,2894,2818,2726,2606,2458,2302,2162,2042,1957,1893,1837,1785,1741,1689,1649,1601,1557,1513,1465,1413,1361,1317,1261,1221,1229,1329,1521,1781,2110,2430,2686,2866,2978,3018,3042,3046,3026,2986,2910,2814,2682,2538,2390,2258,2150,2069,2009,1953,1897,1845,1797,1745,1697,1649,1597,1541,1485,1437,1401,1357,1321,1333,1429,1633,1877,2182,2490,2746,2926,3030,3074,3082,3074,3050,2998,2918,2806,2682,2534,2390,2270,2170,2094,2042,1997,1945,1893,1837,1785,1741,1689,1641,1589,1537,1481,1437,1397,1349,1305,1285,1333,1477,1697,2005,2326,2606,2814,2938,2986,3006,2998,2962,2894,2798,2686,2550,2398,2246,2114,2005,1929,1857,1789,1725,1657,1589,1529,1473,1405,1337,1273,1209,1153,1109,1053,1001,945,905,897,945,1069,1281,1549,1821,2053,2202,2314,2362,2354,2306,2226,2130,2034,1925,1817,1737,1677,1645,1625,1609,1601,1589,1577,1557,1545,1529,1509,1485,1457,1429,1409,1389,1365,1341,1317,1305,1329,1405,1565,1817,2110,2386,2598,2730,2826,2870,2874,2846,2790,2710,2610,2490,2374,2270,2182,2122,2077,2042,2005,1969,1933,1897,1865,1825,1781,1733,1689,1649,1617,1577,1533,1489,1461,1485,1569,1749,2005,2294,2554,2754,2866,2938,2970,2970,2946,2898,2822,2730,2610,2478,2346,2226,2134,2073,2022,1981,1945,1909,1869,1829,1777,1729,1681,1625,1573,1537,1493,1449,1405,1373,1397,1493,1693,1981,2294,2566,2774,2898,2966,3010,3034,3038,3014,2962,2886,2778,2650,2510,2386,2270,2190,2122,2069,1981,1845,1769,1717,1661,1597,1537,1477,1413,1353,1305,1249,1205,1189,1245,1397,1637,1977,2330,2638,2866,3018,3090,3130,3154,3154,3122,3058,2962,2830,2674,2510,2362,2234,2134,2057,1989,1929,1869,1813,1753,1701,1641,1581,1525,1469,1413,1369,1321,1273,1221,1169,1141,1173,1297,1541,1889,2278,2630,2882,3038,3154,3214,3238,3234,3202,3146,3054,2926,2766,2598,2434,2306,2190,2094,2013,1945,1881,1829,1765,1697,1625,1553,1473,1413,1341,1269,1197,1125,1053,997,969,985,1093,1301,1589,1877,2118,2322,2458,2530,2546,2526,2474,2394,2282,2142,1993,1857,1753,1665,1593,1541,1505,1473,1445,1421,1389,1349,1309,1269,1233,1205,1169,1129,1089,1053,1025,1021,1029,1017,1021,1093,1261,1473,1765,2077,2342,2530,2638,2686,2686,2670,2622,2542,2434,2318,2206,2094,1997,1925,1881,1849,1825,1801,1777,1745,1701,1661,1625,1585,1549,1509,1465,1421,1381,1353,1317,1293,1325,1445,1649,1897,2190,2462,2674,2810,2886,2906,2898,2870,2814,2726,2606,2486,2350,2214,2094,1997,1925,1877,1829,1781,1729,1681,1633,1585,1541,1481,1425,1369,1321,1277,1241,1201,1189,1257,1437,1717,1989,2286,2554,2754,2886,2966,2994,3010,3002,2970,2902,2798,2670,2534,2390,2254,2138,2049,1981,1933,1881,1829,1777,1725,1665,1613,1549,1477,1409,1349,1293,1253,1217,1209,1285,1469,1745,2049,2322,2582,2770,2886,2942,2958,2946,2926,2890,2834,2754,2626,2494,2354,2222,2114,2038,1977,1937,1893,1837,1785,1733,1673,1621,1577,1529,1481,1437,1393,1353,1313,1265,1225,1229,1325,1545,1809,2142,2470,2746,2934,3050,3098,3122,3126,3102,3046,2958,2842,2710,2558,2410,2274,2162,2082,2022,1957,1897,1841,1777,1717,1661,1593,1525,1453,1381,1301,1245,1181,1121,1089,1117,1229,1397,1633,1885,2106,2262,2354,2382,2374,2330,2254,2146,2013,1877,1757,1637,1537,1469,1425,1401,1389,1369,1345,1325,1297,1261,1241,1221,1193,1165,1137,1105,1073,1049,1021,1009,1033,1141,1325,1565,1861,2138,2354,2494,2570,2586,2566,2510,2418,2298,2170,2057,1949,1861,1801,1765,1745,1733,1717,1701,1677,1649,1617,1581,1553,1521,1485,1445,1405,1365,1337,1329,1385,1533,1773,2069,2314,2542,2714,2822,2874,2886,2862,2810,2730,2618,2486,2342,2210,2102,2005,1925,1861,1813,1769,1729,1681,1629,1577,1521,1469,1429,1381,1333,1281,1237,1241,1313,1493,1773,2094,2394,2630,2786,2870,2930,2954,2954,2930,2886,2806,2698,2562,2414,2274,2142,2053,1977,1917,1865,1813,1761,1713,1657,1601,1545,1485,1429,1377,1333,1285,1269,1337,1517,1773,2042,2334,2582,2758,2874,2934,2950,2942,2918,2870,2794,2682,2558,2410,2258,2118,2009,1933,1881,1841,1793,1745,1697,1653,1609,1569,1517,1465,1409,1357,1309,1273,1241,1253,1349,1561,1869,2154,2446,2694,2866,2974,3026,3038,3022,2994,2938,2846,2714,2558,2402,2242,2098,1981,1889,1821,1769,1713,1653,1589,1517,1445,1389,1321,1249,1173,1097,1017,961,901,881,945,1121,1385,1673,1921,2142,2294,2374,2394,2370,2314,2230,2110,1961,1797,1637,1517,1409,1325,1265,1225,1189,1165,1133,1097,1057,1017,973,941,917,881,841,801,757,721,701,692,737,873,1113,1421,1689,1949,2162,2294,2358,2366,2334,2270,2162,2034,1889,1749,1637,1561,1501,1465,1449,1433,1417,1401,1377,1349,1321,1297,1265,1237,1201,1165,1129,1089,1061,1057,1109,1261,1529,1869,2214,2486,2670,2810,2890,2914,2902,2858,2782,2678,2542,2386,2234,2098,1993,1913,1849,1797,1745,1697,1657,1613,1557,1489,1425,1357,1305,1329,1433,1421,1393,1421,1537,1737,2034,2358,2646,2854,2978,3042,3070,3078,3062,3018,2946,2854,2726,2570,2410,2266,2146,2061,1989,1929,1869,1813,1757,1709,1665,1609,1553,1497,1437,1381,1337,1289,1277,1353,1545,1837,2114,2414,2670,2854,2970,3034,3050,3054,3042,3002,2934,2822,2690,2546,2398,2258,2150,2061,1997,1945,1889,1829,1773,1717,1665,1621,1573,1517,1469,1417,1365,1325,1281,1249,1269,1381,1613,1917,2226,2550,2818,3002,3114,3166,3178,3182,3170,3130,3050,2934,2806,2658,2506,2362,2246,2150,2077,2009,1941,1877,1813,1749,1689,1637,1577,1509,1441,1381,1325,1285,1241,1241,1321,1501,1749,2005,2270,2482,2622,2698,2718,2702,2662,2590,2490,2318,2077,1917,1769,1637,1533,1461,1405,1365,1329,1293,1249,1201,1153,1113,1081,1041,993,949,909,865,845,817,793,785,845,1001,1213,1509,1829,2114,2318,2438,2482,2482,2450,2386,2290,2166,2046,1937,1825,1741,1677,1629,1593,1569,1541,1513,1481,1445,1413,1389,1365,1329,1297,1265,1229,1201,1173,1145,1137,1201,1373,1625,1905,2210,2470,2646,2738,2774,2766,2746,2714,2666,2602,2534,2478,2438,2406,2382,2362,2346,2330,2302,2266,2218,2166,2118,2065,2018,1969,1929,1897,1881,1865,1853,1857,1909,2065,2342,2710,3030,3374,3675,3911,4043,4083,4091,4091,4051,3935,3727,3411,3042,2678,2294,1949,1653,1405,1233,1141,1093,1077,1069,1053,1025,993,993,1065,1061,1037,1009,1005,1045,1149,1317,1525,1721,1877,1981,2057,2102,2118,2118,2106,2077,2030,1961,1877,1781,1689,1621,1561,1513,1473,1437,1405,1381,1349,1321,1289,1253,1217,1181,1153,1121,1089,1061,1053,1089,1173,1333,1529,1733,1909,2038,2106,2150,2174,2178,2174,2154,2118,2061,1985,1897,1805,1721,1653,1609,1569,1533,1497,1465,1437,1405,1373,1337,1301,1265,1233,1213,1189,1165,1145,1165,1225,1325,1485,1677,1857,1993,2082,2122,2130,2118,2090,2046,1981,1901,1821,1725,1637,1565,1513,1477,1457,1433,1409,1385,1361,1337,1317,1293,1269,1241,1213,1189,1177,1157,1133,1117,1105,1121,1181,1285,1449,1633,1801,1933,2013,2046,2046,2026,1981,2086,2358,2338,2234,2130,2049,1997,1973,1965,1953,1941,1925,1897,1869,1837,1813,1781,1745,1713,1673,1641,1613,1573,1541,1541,1625,1829,2073,2386,2706,2970,3146,3246,3274,3270,3230,3158,3054,2922,2782,2646,2514,2402,2322,2262,2222,2194,2154,2110,2057,2001,1953,1909,1861,1809,1761,1709,1653,1613,1581,1593,1705,1937,2262,2598,2870,3102,3250,3322,3342,3330,3298,3250,3170,3058,2910,2758,2610,2446,2322,2230,2158,2098,2049,1993,1933,1869,1797,1733,1681,1629,1577,1521,1461,1401,1353,1337,1393,1561,1849,2202,2526,2770,2966,3090,3154,3182,3186,3162,3114,3038,2922,2778,2610,2458,2310,2178,2069,1993,1925,1873,1825,1777,1721,1661,1605,1553,1509,1389,1165,1073,1013,977,993,1097,1321,1657,2034,2374,2602,2770,2882,2946,2974,2978,2954,2906,2826,2706,2554,2386,2230,2102,1985,1889,1813,1753,1693,1645,1589,1533,1473,1409,1349,1305,1253,1197,1137,1077,1021,977,953,973,1097,1353,1705,2061,2354,2610,2786,2886,2930,2938,2922,2886,2826,2730,2598,2434,2282,2118,1973,1853,1757,1681,1629,1573,1509,1441,1377,1309,1245,1197,1137,1073,1017,961,929,905,869,853,889,1021,1269,1533,1849,2154,2382,2526,2606,2626,2614,2570,2494,2386,2254,2114,1989,1865,1773,1709,1665,1637,1617,1589,1561,1529,1489,1449,1413,1373,1329,1289,1253,1217,1197,1165,1129,1109,1149,1301,1549,1845,2190,2486,2706,2858,2966,2986,2970,2918,2854,2758,2630,2506,2366,2234,2118,2022,1961,1921,1889,1853,1813,1765,1713,1665,1625,1577,1525,1461,1413,1377,1345,1285,1249,1241,1281,1501,1673,2030,2306,2646,2826,2934,2966,2978,2966,2930,2866,2774,2662,2518,2362,2218,2098,2001,1937,1877,1821,1765,1709,1653,1609,1557,1497,1441,1389,1341,1301,1261,1213,1161,1133,1153,1261,1461,1765,2114,2430,2678,2838,2910,2950,2966,2954,2922,2866,2786,2674,2530,2366,2206,2069,1961,1885,1817,1757,1701,1649,1605,1569,1521,1469,1417,1365,1317,1277,1233,1181,1141,1133,1209,1361,1625,1965,2314,2606,2818,2946,3006,3038,3042,3022,2986,2922,2834,2714,2562,2406,2258,2130,2042,1965,1877,1813,1761,1713,1673,1621,1557,1489,1425,1373,1329,1293,1249,1201,1153,1097,1061,1085,1201,1449,1801,2186,2538,2766,2930,3034,3082,3094,3078,3042,2990,2902,2774,2614,2438,2282,2134,2001,1897,1821,1753,1693,1637,1573,1505,1441,1377,1313,1261,1201,1145,1093,1041,993,965,945,969,1089,1317,1629,1913,2206,2446,2598,2682,2710,2694,2654,2590,2490,2354,2202,2057,1941,1845,1773,1725,1689,1657,1641,1617,1581,1541,1493,1445,1413,1381,1345,1305,1273,1237,1209,1181,1161,1165,1241,1437,1725,2038,2390,2678,2878,2990,3042,3038,3010,2958,2874,2754,2610,2478,2342,2222,2126,2049,1993,1949,1909,1873,1833,1789,1741,1693,1649,1597,1549,1497,1449,1441,1429,1393,1361,1369,1461,1673,1921,2234,2546,2798,2974,3074,3106,3106,3086,3050,2986,2886,2762,2634,2482,2334,2206,2106,2034,1981,1925,1873,1825,1769,1713,1665,1609,1553,1501,1449,1393,1357,1313,1257,1213,1197,1265,1429,1677,2018,2366,2662,2878,3006,3062,3090,3090,3074,3034,2970,2882,2758,2602,2438,2274,2130,2026,1937,1865,1809,1749,1689,1629,1577,1513,1445,1381,1321,1273,1237,1193,1141,1089,1065,1113,1237,1481,1817,2174,2486,2714,2838,2914,2962,2986,2990,2970,2918,2838,2722,2570,2414,2258,2130,2034,1957,1897,1845,1797,1745,1705,1649,1593,1537,1485,1433,1401,1361,1321,1281,1245,1209,1181,1181,1233,1393,1669,2034,2390,2682,2938,3086,3186,3250,3274,3274,3262,3218,3138,3014,2858,2698,2526,2362,2218,2098,1997,1929,1865,1801,1737,1669,1601,1533,1477,1417,1361,1309,1261,1217,1185,1137,1097,1085,1141,1309,1533,1845,2182,2462,2662,2778,2822,2830,2814,2774,2710,2618,2502,2378,2238,2106,1997,1921,1869,1833,1797,1757,1709,1657,1605,1565,1533,1501,1469,1445,1417,1393,1357,1309,1265,1237,1237,1297,1433,1669,1965,2270,2522,2690,2782,2826,2826,2790,2722,2618,2502,2362,2210,2073,1969,1901,1865,1837,1817,1789,1761,1717,1677,1637,1589,1541,1485,1429,1385,1357,1333,1321,1321,1333,1377,1461,1633,1897,2222,2542,2798,2942,3026,3062,3058,3034,2990,2926,2834,2710,2558,2398,2242,2034,1901,1813,1749,1697,1649,1609,1569,1525,1481,1433,1381,1329,1293,1253,1213,1165,1125,1101,1129,1241,1453,1753,2082,2370,2574,2698,2778,2818,2826,2802,2762,2706,2618,2506,2370,2226,2090,1989,1893,1813,1753,1701,1649,1605,1553,1497,1441,1381,1321,1273,1241,1205,1169,1133,1101,1085,1105,1193,1381,1665,1989,2294,2502,2674,2802,2890,2942,2962,2954,2930,2882,2798,2682,2542,2394,2266,2142,2042,1965,1909,1865,1829,1781,1721,1669,1625,1581,1545,1505,1461,1417,1373,1325,1309,1345,1481,1725,2034,2358,2622,2802,2946,3038,3078,3082,3054,3002,2918,2798,2650,2482,2318,2174,2038,1921,1829,1753,1689,1637,1577,1517,1453,1389,1325,1277,1229,1173,1089,1021,969,929,901,861,821,809,869,1021,1261,1589,1933,2226,2438,2574,2634,2666,2674,2658,2614,2542,2450,2322,2170,2018,1881,1777,1701,1657,1625,1597,1569,1537,1505,1477,1433,1393,1357,1321,1293,1269,1241,1205,1173,1157,1193,1281,1457,1705,1981,2226,2406,2514,2558,2566,2530,2462,2354,2234,2106,1961,1825,1717,1637,1577,1545,1525,1505,1485,1469,1453,1441,1417,1393,1361,1333,1305,1285,1261,1229,1201,1197,1265,1413,1637,1937,2246,2502,2682,2782,2822,2842,2838,2826,2786,2718,2626,2510,2374,2238,2122,2030,1973,1929,1889,1841,1789,1729,1669,1613,1545,1473,1401,1333,1273,1225,1169,1121,1109,1169,1341,1557,1849,2154,2410,2590,2702,2886,2970,2990,2970,2918,2830,2718,2586,2434,2286,2154,2042,1965,1909,1853,1801,1745,1697,1641,1601,1549,1501,1449,1397,1345,1313,1277,1237,1197,1157,1133,1153,1253,1473,1789,2146,2470,2710,2862,2974,3042,3082,3094,3082,3046,2982,2886,2750,2594,2434,2302,2182,2082,2001,1937,1877,1829,1785,1737,1685,1633,1569,1517,1473,1421,1369,1329,1305,1349,1457,1669,1949,2246,2502,2694,2794,2854,2882,2882,2862,2818,2754,2658,2534,2390,2250,2122,2018,1941,1873,1813,1761,1705,1653,1609,1557,1501,1445,1393,1345,1317,1285,1249,1217,1189,1153,1129,1101,1097,1157,1329,1617,1953,2258,2546,2754,2882,2946,2970,2970,2958,2926,2862,2766,2638,2510,2362,2222,2073,1965,1897,1849,1805,1761,1713,1665,1617,1577,1541,1493,1445,1397,1349,1305,1265,1229,1201,1205,1277,1437,1633,1881,2138,2350,2498,2574,2590,2570,2510,2418,2302,2170,2049,1953,1865,1809,1773,1753,1745,1737,1725,1705,1681,1649,1613,1593,1561,1533,1497,1465,1433,1409,1381,1353,1349,1409,1573,1801,2118,2462,2754,2966,3090,3150,3162,3154,3122,3066,2986,2878,2758,2618,2474,2342,2238,2158,2102,2049,2001,1945,1897,1845,1805,1753,1701,1641,1585,1525,1477,1437,1393,1373,1413,1553,1773,2030,2330,2590,2774,2886,2938,2942,2926,2898,2846,2770,2662,2546,2402,2254,2118,2009,1925,1861,1813,1757,1705,1657,1601,1553,1509,1457,1401,1341,1285,1233,1097,1005,953,969,1085,1325,1605,1937,2254,2498,2658,2746,2786,2794,2794,2778,2738,2658,2546,2418,2266,2106,1949,1821,1725,1665,1613,1565,1517,1465,1409,1365,1317,1265,1217,1165,1117,1073,1037,1001,1009,1109,1321,1613,1913,2226,2486,2662,2766,2814,2826,2830,2814,2774,2698,2582,2462,2310,2162,2018,1897,1805,1745,1685,1629,1573,1521,1469,1417,1365,1305,1241,1189,1137,1093,1057,1009,961,917,905,977,1125,1401,1761,2126,2430,2642,2754,2822,2854,2858,2838,2794,2722,2618,2478,2310,2142,1981,1853,1757,1673,1609,1553,1497,1437,1389,1341,1285,1229,1169,1113,1077,1033,985,941,901,881,909,1005,1193,1465,1761,2030,2222,2334,2402,2422,2518,2506,2422,2314,2178,2038,1913,1821,1757,1725,1709,1689,1669,1649,1625,1601,1577,1545,1501,1465,1429,1401,1381,1353,1329,1305,1289,1297,1357,1509,1773,2122,2494,2806,2994,3126,3194,3222,3218,3186,3130,3042,2926,2782,2630,2482,2354,2258,2174,2114,2061,2009,1961,1913,1865,1809,1753,1697,1645,1601,1549,1497,1449,1401,1357,1353,1417,1593,1873,2210,2526,2762,2906,3002,3046,3054,3030,2986,2918,2830,2706,2554,2390,2234,2118,2013,1933,1869,1813,1757,1713,1665,1605,1549,1493,1437,1389,1349,1305,1249,1197,1149,1141,1209,1393,1697,2053,2402,2686,2854,2966,3030,3058,3066,3058,3026,2970,2874,2742,2582,2418,2274,2154,2053,1973,1909,1849,1801,1681,1601,1537,1477,1417,1357,1317,1269,1213,1161,1125,1121,1177,1341,1617,1953,2282,2542,2698,2806,2870,2894,2898,2878,2838,2766,2654,2514,2358,2202,2069,1961,1873,1809,1753,1701,1645,1601,1549,1493,1433,1377,1325,1289,1245,1193,1145,1093,1045,1005,973,941,965,1097,1361,1697,2026,2358,2610,2774,2862,2906,2906,2890,2854,2790,2698,2570,2434,2278,2118,1965,1841,1745,1669,1613,1549,1489,1429,1369,1309,1261,1209,1153,1101,1053,1009,981,945,925,957,1065,1261,1477,1737,1981,2170,2286,2330,2322,2278,2194,2077,1941,1805,1693,1605,1533,1493,1481,1481,1477,1481,1473,1453,1429,1401,1369,1353,1329,1297,1269,1241,1217,1193,1181,1177,1225,1441,1741,2073,2390,2702,2938,3078,3138,3146,3110,3058,2982,2874,2746,2594,2458,2330,2218,2134,2073,2030,1993,1957,1921,1881,1833,1781,1729,1685,1637,1589,1537,1485,1437,1405,1393,1445,1601,1869,2194,2462,2706,2886,2990,3026,3022,2990,2950,2886,2790,2662,2514,2370,2238,2106,2001,1925,1865,1821,1777,1729,1677,1617,1565,1509,1473,1425,1369,1313,1257,1217,1221,1301,1497,1805,2166,2510,2762,2922,3034,3094,3114,3110,3094,3046,2970,2858,2710,2542,2374,2242,2122,2026,1949,1889,1841,1797,1749,1697,1641,1581,1525,1477,1437,1389,1341,1297,1269,1281,1373,1581,1893,2246,2574,2818,2954,3042,3086,3102,3098,3070,3018,2934,2814,2666,2510,2358,2242,2053,1929,1849,1785,1733,1685,1633,1569,1505,1441,1377,1329,1285,1225,1165,1105,1049,997,981,1001,1117,1361,1709,2090,2382,2626,2798,2894,2926,2918,2878,2822,2742,2626,2482,2314,2154,2009,1877,1765,1681,1617,1557,1517,1469,1421,1373,1325,1281,1245,1201,1157,1109,1053,993,945,913,889,925,1053,1285,1561,1821,2073,2266,2374,2410,2386,2322,2230,2110,1973,1841,1721,1637,1573,1529,1501,1477,1445,1421,1389,1345,1293,1233,1149,1061,977,889,805,733,684,648,636,636,697,861,1153,1529,1865,2198,2462,2634,2734,2774,2770,2746,2686,2594,2470,2326,2194,2082,1981,1909,1865,1833,1809,1789,1765,1729,1693,1649,1605,1573,1525,1477,1425,1565,1601,1597,1609,1693,1881,2158,2462,2722,2906,3046,3122,3142,3134,3098,3046,2974,2870,2742,2598,2458,2342,2238,2150,2082,2026,1969,1929,1877,1829,1773,1717,1665,1621,1581,1533,1481,1433,1389,1381,1441,1617,1889,2222,2542,2802,2958,3066,3130,3150,3150,3134,3094,3034,2938,2810,2662,2514,2382,2278,2186,2114,2057,2005,1957,1909,1861,1805,1749,1693,1641,1605,1561,1509,1465,1453,1505,1629,1865,2182,2502,2774,2966,3078,3130,3158,3158,3142,3102,3042,2950,2826,2678,2526,2386,2274,2190,2118,2061,2009,1961,1909,1869,1825,1777,1721,1669,1617,1573,1521,1469,1413,1369,1373,1465,1645,1933,2266,2562,2790,2926,2990,3026,3034,3018,2978,2910,2818,2598,2394,2210,2046,1901,1805,1729,1661,1601,1545,1485,1429,1381,1321,1265,1217,1169,1133,1101,1053,1001,953,913,921,993,1169,1449,1777,2086,2334,2478,2566,2602,2590,2542,2458,2346,2226,2086,1957,1845,1761,1705,1673,1645,1621,1601,1573,1541,1513,1481,1453,1421,1381,1341,1317,1285,1249,1221,1217,1269,1405,1629,1957,2310,2618,2846,2974,3026,3038,3014,2962,2878,2766,2634,2482,2330,2202,2102,2030,1981,1945,1913,1873,1833,1789,1749,1705,1649,1593,1537,1485,1437,1389,1337,1301,1329,1469,1701,1985,2330,2642,2874,3022,3094,3110,3102,3074,3018,2930,2802,2662,2506,2342,2190,2065,1969,1893,1841,1781,1721,1669,1617,1569,1529,1477,1417,1357,1361,1333,1305,1273,1281,1377,1589,1885,2158,2430,2650,2798,2882,2922,2930,2926,2902,2858,2778,2662,2526,2394,2250,2118,2005,1917,1845,1785,1721,1657,1585,1521,1457,1413,1361,1305,1253,1209,1173,1145,1157,1233,1421,1709,2042,2342,2558,2738,2862,2942,2982,2994,2978,2938,2866,2754,2610,2450,2310,2174,2053,1957,1881,1817,1769,1717,1661,1601,1545,1481,1433,1393,1345,1301,1257,1217,1193,1205,1293,1493,1793,2134,2446,2650,2802,2898,2946,2958,2946,2902,2842,2750,2626,2478,2318,2170,2046,1937,1857,1793,1745,1697,1657,1605,1545,1477,1401,1329,1273,1205,1133,1061,997,941,929,977,1125,1373,1681,1981,2214,2366,2466,2514,2530,2514,2474,2414,2366,2270,2142,2013,1901,1825,1765,1721,1685,1657,1629,1609,1585,1549,1517,1481,1449,1425,1401,1373,1345,1321,1301,1297,1337,1441,1645,1929,2246,2530,2714,2846,2914,2934,2906,2842,2758,2646,2510,2366,2230,2122,2046,1993,1957,1929,1905,1877,1853,1825,1789,1753,1713,1669,1629,1593,1545,1505,1461,1421,1409,1449,1585,1829,2146,2474,2750,2914,3030,3090,3110,3098,3058,2994,2906,2794,2654,2510,2374,2266,2190,2122,2073,2026,1981,1933,1897,1853,1805,1757,1705,1653,1609,1565,1513,1465,1445,1501,1653,1877,2186,2498,2750,2922,3014,3050,3058,3046,3018,2962,2882,2786,2650,2494,2338,2190,2069,1989,1921,1865,1813,1765,1709,1657,1609,1553,1497,1445,1237,1117,1061,1017,1013,1101,1313,1641,1961,2302,2590,2794,2914,2974,2986,2982,2958,2914,2838,2722,2578,2422,2250,2098,1969,1873,1813,1773,1721,1673,1625,1577,1529,1485,1425,1365,1309,1253,1201,1169,1129,1109,1169,1349,1657,1965,2306,2602,2814,2942,3010,3034,3022,3002,2958,2894,2802,2702,2594,2466,2330,2206,2102,2030,1973,1917,1849,1769,1669,1557,1465,1365,1265,1173,1093,1017,957,913,857,809,801,885,1077,1357,1733,2106,2414,2626,2754,2806,2830,2830,2802,2734,2622,2486,2318,2130,1953,1797,1677,1593,1529,1465,1401,1341,1281,1225,1181,1121,1069,1013,961,913,885,853,813,781,753,741,781,909,1145,1465,1805,2106,2314,2434,2550,2586,2566,2514,2434,2346,2242,2142,2061,2001,1965,1945,1925,1901,1877,1849,1813,1781,1745,1701,1657,1613,1565,1537,1505,1469,1429,1393,1361,1369,1437,1601,1865,2170,2462,2674,2798,2882,2914,2906,2866,2802,2722,2614,2486,2350,2226,2126,2061,2013,1977,1945,1913,1877,1841,1809,1765,1717,1669,1617,1569,1529,1473,1421,1373,1353,1409,1529,1757,2069,2398,2682,2894,3010,3098,3150,3174,3170,3122,3054,2962,2830,2662,2486,2322,2194,2098,2018,1957,1901,1845,1793,1749,1693,1629,1561,1493,1433,1393,1349,1313,1317,1401,1597,1861,2138,2438,2682,2846,2938,2970,2962,2946,2922,2874,2798,2698,2586,2454,2314,2190,2086,2005,1957,1905,1857,1817,1773,1581,1477,1429,1385,1341,1293,1241,1197,1157,1109,1077,1113,1257,1509,1865,2230,2534,2774,2918,2986,2990,2978,2942,2882,2798,2682,2554,2394,2214,2042,1893,1777,1701,1653,1617,1573,1529,1485,1441,1409,1365,1321,1273,1221,1157,1101,1037,969,917,913,1009,1169,1437,1753,2042,2258,2390,2450,2466,2462,2438,2386,2310,2210,2106,1977,1853,1753,1677,1629,1597,1569,1541,1513,1493,1461,1433,1393,1345,1305,1269,1241,1221,1205,1181,1161,1145,1153,1209,1341,1573,1861,2146,2378,2526,2594,2614,2586,2518,2414,2278,2150,2013,1877,1765,1673,1601,1549,1509,1465,1417,1361,1305,1257,1213,1157,1093,1029,961,909,865,821,789,781,837,993,1209,1509,1929,2242,2446,2570,2626,2646,2638,2598,2530,2434,2326,2214,2086,1965,1849,1773,1725,1697,1661,1629,1597,1569,1541,1517,1489,1457,1425,1393,1365,1341,1325,1361,1489,1729,2034,2330,2558,2746,2866,2930,2954,2950,2918,2870,2798,2694,2562,2422,2302,2190,2094,2013,1945,1889,1845,1801,1753,1705,1657,1605,1553,1513,1473,1429,1385,1345,1329,1369,1501,1741,2053,2370,2642,2814,2934,3014,3054,3066,3042,2998,2938,2842,2714,2562,2410,2274,2166,2061,1977,1905,1853,1809,1769,1721,1673,1617,1565,1517,1481,1433,1381,1321,1277,1273,1329,1485,1741,2049,2342,2578,2714,2802,2846,2854,2834,2790,2722,2630,2514,2374,2230,2094,1981,1897,1821,1757,1701,1641,1465,1369,1297,1229,1165,1101,1037,989,937,885,837,789,761,761,865,1037,1305,1641,1961,2202,2354,2446,2478,2458,2370,2286,2158,2046,1873,1717,1613,1553,1505,1473,1453,1437,1417,1401,1385,1361,1333,1301,1269,1229,1201,1165,1125,1081,1045,1033,1069,1181,1397,1697,2022,2306,2502,2610,2670,2666,2614,2518,2398,2274,2134,1989,1865,1773,1713,1681,1661,1641,1617,1589,1553,1521,1485,1441,1385,1329,1273,1233,1201,1161,1145,1181,1321,1557,1849,2194,2510,2738,2874,2938,2942,2918,2870,2794,2690,2554,2414,2262,2106,1965,1849,1761,1701,1657,1613,1569,1525,1481,1437,1393,1337,1277,1213,1153,1109,1113,1205,1409,1725,2082,2406,2622,2790,2922,3038,3074,3070,3038,2974,2882,2758,2610,2454,2318,2206,2110,2038,1977,1925,1877,1837,1793,1745,1693,1637,1581,1541,1493,1445,1401,1385,1433,1581,1809,2218,2542,2862,3022,3098,3142,3162,3150,3110,3034,2938,2814,2666,2510,2370,2254,2178,2118,2073,2022,1969,1909,1857,1805,1745,1685,1625,1561,1505,1445,1381,1341,1373,1509,1749,2009,2306,2566,2758,2866,2914,2914,2886,2834,2754,2642,2506,2374,2222,2073,1953,1857,1781,1725,1677,1621,1569,1517,1465,1421,1385,1337,1289,1237,1189,1141,1113,1081,1049,1049,1125,1349,1585,1953,2222,2426,2550,2606,2606,2570,2498,2398,2278,2146,2038,1933,1857,1805,1769,1749,1741,1733,1713,1681,1653,1625,1577,1545,1513,1477,1445,1401,1365,1345,1333,1361,1473,1685,1949,2210,2474,2674,2798,2858,2866,2838,2782,2694,2578,2442,2306,2198,2098,2018,1961,1929,1901,1873,1845,1813,1777,1737,1693,1649,1609,1561,1513,1465,1417,1385,1389,1457,1633,1909,2222,2510,2694,2830,2914,2946,2942,2914,2862,2790,2686,2558,2410,2262,2138,2042,1953,1889,1837,1789,1741,1701,1653,1597,1545,1485,1429,1389,1337,1281,1225,1197,1233,1349,1577,1889,2210,2478,2674,2786,2842,2874,2878,2862,2830,2770,2682,2558,2410,2258,2118,2005,1929,1865,1813,1765,1713,1665,1629,1585,1533,1481,1429,1381,1333,1297,1249,1221,1249,1389,1621,1901,2226,2514,2730,2870,2942,2962,2966,2974,2986,2930,2826,2706,2550,2378,2210,2073,1965,1885,1829,1777,1717,1657,1597,1541,1497,1441,1381,1317,1257,1197,1157,1105,1057,1045,1133,1353,1621,1977,2334,2622,2810,2910,2942,2938,2918,2878,2810,2706,2570,2422,2250,2082,1933,1813,1725,1657,1589,1525,1461,1397,1329,1277,1217,1149,1081,1021,961,925,877,825,781,757,797,925,1145,1465,1809,2106,2322,2438,2482,2486,2458,2394,2298,2170,2053,1921,1801,1701,1633,1593,1569,1549,1529,1509,1481,1453,1425,1405,1373,1337,1305,1273,1245,1225,1197,1165,1145,1169,1277,1461,1757,2106,2434,2686,2846,2910,2930,2918,2866,2782,2662,2526,2390,2246,2122,2026,1961,1913,1881,1857,1829,1785,1741,1741,1809,1801,1773,1733,1689,1641,1605,1557,1517,1517,1609,1813,2082,2358,2642,2870,3014,3086,3106,3098,3074,3030,2958,2846,2706,2574,2426,2286,2170,2077,2013,1969,1925,1877,1825,1773,1713,1673,1621,1569,1513,1461,1409,1365,1337,1353,1465,1697,2018,2330,2582,2798,2938,3010,3042,3046,3022,2986,2926,2842,2718,2574,2434,2290,2162,2061,1981,1921,1869,1829,1785,1737,1689,1641,1597,1557,1505,1453,1401,1353,1333,1377,1517,1773,2106,2434,2698,2858,2970,3030,3058,3058,3042,3002,2942,2850,2722,2570,2414,2274,2170,2077,2013,1961,1913,1865,1829,1781,1729,1673,1621,1573,1533,1485,1433,1385,1337,1293,1261,1273,1369,1585,1909,2266,2566,2778,2938,3022,3042,3050,3038,2998,2942,2854,2726,2562,2382,2226,2073,1941,1841,1757,1685,1625,1573,1521,1461,1405,1341,1277,1225,1165,1109,1057,1005,965,949,969,1077,1297,1597,1913,2154,2350,2482,2550,2566,2538,2482,2390,2270,2130,1989,1861,1769,1709,1665,1637,1625,1605,1585,1569,1549,1521,1489,1449,1409,1385,1353,1321,1285,1257,1229,1217,1237,1341,1553,1873,2238,2546,2758,2918,3002,3026,3006,2958,2886,2786,2662,2522,2378,2242,2142,2057,1989,1937,1897,1849,1809,1765,1709,1653,1601,1545,1493,1453,1401,1349,1293,1245,1221,1257,1389,1641,1973,2314,2602,2778,2886,2934,2934,2910,2866,2802,2706,2578,2422,2262,2106,1977,1885,1801,1733,1673,1617,1585,1581,1541,1489,1437,1381,1333,1289,1241,1189,1137,1109,1149,1273,1517,1861,2222,2538,2766,2886,2962,2998,3006,2994,2958,2898,2810,2682,2526,2362,2202,2065,1965,1881,1825,1777,1729,1677,1637,1585,1525,1473,1417,1365,1333,1293,1249,1205,1157,1125,1129,1209,1413,1733,2118,2478,2750,2918,3034,3098,3114,3106,3086,3042,2974,2874,2734,2574,2410,2278,2154,2049,1965,1905,1853,1805,1761,1701,1637,1573,1501,1437,1385,1317,1253,1193,1149,1153,1217,1393,1673,2013,2338,2590,2726,2810,2842,2830,2786,2714,2622,2506,2358,2206,2069,1961,1881,1825,1785,1749,1721,1697,1661,1637,1605,1573,1529,1481,1429,1393,1353,1313,1269,1237,1213,1209,1249,1369,1581,1857,2178,2446,2618,2738,2782,2770,2718,2638,2534,2398,2254,2110,1993,1905,1857,1829,1809,1789,1769,1741,1713,1681,1645,1617,1581,1545,1505,1473,1425,1377,1329,1293,1297,1377,1569,1857,2194,2506,2734,2850,2906,2914,2890,2830,2746,2646,2518,2366,2218,2090,1985,1909,1861,1817,1777,1741,1705,1669,1637,1589,1541,1497,1445,1393,1357,1313,1261,1229,1269,1425,1641,1957,2302,2594,2802,2922,2966,2970,2950,2914,2854,2762,2642,2506,2346,2190,2046,1933,1853,1801,1753,1709,1665,1621,1573,1537,1489,1437,1377,1317,1253,1209,1169,1169,1257,1469,1785,2114,2390,2638,2810,2906,2946,2950,2930,2894,2834,2742,2614,2466,2330,2190,2065,1965,1889,1833,1777,1701,1645,1593,1541,1485,1437,1389,1333,1273,1217,1165,1121,1093,1117,1265,1549,1929,2326,2610,2834,2978,3050,3078,3066,3030,2974,2894,2778,2630,2458,2294,2158,2034,1937,1865,1809,1753,1705,1649,1593,1537,1477,1417,1369,1317,1269,1217,1169,1117,1081,1073,1141,1341,1665,2046,2382,2622,2802,2902,2942,2918,2858,2774,2658,2506,2326,2138,1957,1825,1705,1613,1545,1505,1489,1481,1465,1449,1429,1409,1381,1353,1317,1261,1189,1101,1009,929,865,797,745,749,857,1065,1341,1681,1993,2230,2374,2438,2438,2390,2302,2174,2022,1861,1741,1633,1561,1525,1509,1509,1505,1501,1481,1457,1429,1397,1361,1329,1293,1253,1213,1173,1129,1089,1045,1021,1125,1401,1673,1937,2238,2506,2702,2814,2854,2850,2810,2746,2654,2538,2406,2266,2142,2022,1925,1861,1813,1777,1753,1725,1689,1645,1609,1577,1557,1529,1501,1473,1445,1413,1385,1381,1433,1589,1857,2190,2498,2730,2918,3030,3078,3082,3066,3030,2974,2890,2766,2622,2466,2330,2198,2082,1993,1929,1877,1837,1801,1765,1721,1673,1629,1589,1553,1509,1461,1417,1389,1413,1505,1713,2018,2358,2674,2914,3042,3126,3170,3186,3190,3186,3158,3102,3014,2894,2750,2602,2470,2358,2258,2174,2098,2026,1969,1933,1901,1885,1873,1865,1861,1865,1873,1873,1861,1833,1797,1777,1813,1949,2202,2530,2858,3118,3282,3398,3463,3479,3471,3431,3362,3266,3142,2994,2838,2686,2466,2134,1985,1897,1837,1777,1729,1677,1625,1577,1525,1469,1421,1377,1321,1265,1205,1145,1101,1093,1153,1313,1557,1837,2086,2242,2346,2398,2406,2370,2310,2234,2130,2001,1869,1749,1661,1601,1573,1557,1557,1561,1549,1525,1493,1437,1365,1277,1185,1101,1045,985,925,865,813,781,765,761,793,889,1081,1345,1585,1825,2018,2142,2198,2202,2166,2106,2022,1921,1809,1697,1609,1545,1497,1469,1453,1445,1429,1421,1405,1389,1365,1333,1301,1281,1253,1229,1209,1193,1181,1169,1161,1169,1221,1369,1609,1889,2146,2394,2574,2674,2710,2702,2662,2598,2518,2418,2302,2178,2073,1977,1905,1845,1785,1713,1637,1561,1469,1361,1249,1129,1021,929,833,741,753,905,909,917,965,1097,1337,1657,1993,2254,2490,2666,2778,2830,2838,2814,2758,2678,2566,2426,2270,2126,2005,1897,1809,1745,1693,1645,1613,1577,1537,1497,1453,1417,1393,1369,1341,1309,1289,1301,1389,1561,1849,2186,2510,2770,2938,3022,3070,3090,3098,3090,3070,3034,2982,2898,2790,2666,2542,2442,2346,2250,2162,2069,1981,1901,1809,1713,1613,1517,1433,1361,1313,1265,1225,1189,1153,1129,1137,1213,1401,1693,2038,2366,2586,2758,2874,2938,2974,2986,2974,2942,2882,2782,2650,2502,2358,2234,2110,2001,1913,1837,1777,1725,1669,1605,1537,1469,1405,1353,1285,1209,1129,1061,997,965,957,1013,1161,1401,1677,1921,2106,2246,2330,2358,2346,2306,2254,2182,2073,1957,1849,1753,1693,1653,1633,1621,1617,1605,1601,1585,1561,1541,1525,1509,1493,1481,1461,1433,1405,1381,1361,1349,1349,1393,1517,1733,1993,2238,2474,2658,2770,2818,2814,2774,2710,2626,2518,2406,2294,2210,2138,2086,2046,2022,2001,1981,1957,1933,1909,1881,1853,1825,1801,1765,1733,1705,1673,1637,1617,1617,1681,1833,2073,2354,2578,2782,2930,3014,3046,3038,3002,2946,2870,2766,2642,2506,2386,2286,2198,2134,2086,2046,2005,1969,1925,1877,1833,1785,1737,1701,1657,1613,1565,1517,1481,1473,1533,1693,1945,2246,2530,2742,2874,2970,3018,3034,3030,3014,2982,2934,2866,2782,2690,2594,2514,2430,2354,2290,2242,2206,2170,2134,2090,2038,1933,1761,1677,1621,1561,1505,1469,1501,1629,1817,2102,2430,2722,2938,3082,3142,3166,3162,3138,3094,3018,2922,2790,2638,2478,2326,2198,2106,2038,1973,1913,1861,1813,1765,1717,1661,1601,1549,1497,1453,1421,1385,1349,1301,1273,1289,1369,1565,1865,2210,2522,2770,2918,2982,3002,2982,2942,2882,2798,2690,2554,2402,2246,2098,1973,1889,1825,1769,1729,1697,1665,1641,1617,1597,1577,1565,1565,1565,1561,1533,1493,1441,1389,1361,1389,1505,1713,1965,2198,2366,2446,2474,2454,2402,2322,2222,2110,1969,1805,1645,1505,1405,1353,1341,1349,1369,1389,1397,1397,1385,1365,1337,1305,1269,1241,1225,1205,1177,1157,1165,1249,1401,1661,1981,2298,2546,2702,2774,2762,2690,2634,2570,2486,2386,2266,2122,1961,1813,1689,1597,1541,1497,1461,1429,1389,1349,1317,1273,1221,1161,1101,1045,1009,973,981,1085,1321,1677,2073,2430,2782,3042,3202,3270,3274,3238,3178,3090,2974,2814,2626,2454,2274,2110,1973,1865,1785,1733,1681,1625,1565,1501,1437,1377,1329,1277,1225,1177,1133,1093,1061,1025,1025,1117,1337,1669,1985,2322,2614,2834,2982,3074,3098,3102,3078,3022,2918,2766,2590,2402,2210,2034,1893,1781,1697,1629,1553,1477,1409,1341,1269,1213,1141,1061,989,921,857,809,757,737,801,973,1233,1513,1757,1977,2134,2218,2246,2226,2174,2082,1953,1797,1629,1489,1381,1289,1221,1181,1157,1145,1137,1129,1113,1097,1141,1249,1273,1269,1257,1249,1245,1253,1273,1305,1365,1485,1697,1973,2246,2462,2642,2754,2794,2782,2730,2658,2566,2458,2354,2258,2178,2130,2102,2094,2098,2102,2094,2077,2057,2034,2005,1977,1941,1909,1877,1837,1781,1709,1625,1565,1565,1649,1809,2001,2170,2282,2318,2314,2286,2242,2198,2138,2061,1977,1869,1753,1637,1545,1477,1437,1401,1373,1353,1333,1325,1329,1345,1369,1405,1429,1441,1441,1437,1465,1565,1777,2098,2446,2762,3066,3286,3398,3415,3366,3278,3178,3086,3010,2946,2870,2770,2622,2422,2186,1941,1725,1593,1521,1509,1537,1577,1613,1633,1633,1609,1557,1501,1441,1401,1385,1413,1505,1669,1881,2102,2298,2510,2690,2826,2902,2918,2866,2678,2350,2142,1973,1841,1749,1685,1649,1637,1645,1657,1669,1665,1645,1593,1517,1429,1349,1281,1213,1149,1097,1069,1097,1181,1333,1521,1701,1849,1953,2001,2018,2005,1973,1933,1877,1797,1697,1573,1449,1349,1285,1245,1221,1205,1201,1217,1265,1345,1429,1549,1685,1817,1925,2009,2057,2077,2082,2086,2106,2162,2230,2302,2378,2438,2478,2506,2530,2542,2546,2514,2438,2322,2190,2073,1941,1781,1585,1377,1177,1037,905,785,680,572,436,280,124,28,4,0,0,0,0,0,0,40,272,564,821,1053,1225,1353,1461,1549,1609,1649,1669,1657,1613,1537,1461,1377,1309,1273,1261,1269,1289,1321,1369,1409,1421,1385,1325,1253,1165,1097,1069,1357,1997,2262,2462,2630,2754,2834,2870,2878,2866,2842,2806,2754,2690,2622,2558,2486,2422,2362,2314,2282,2258,2238,2214,2190,2166,2138,2118,2090,2065,2049,2049,2073,2134,2242,2394,2562,2706,2810,2870,2898,2910,2906,2894,2866,2830,2782,2710,2630,2542,2466,2398,2354,2318,2286,2258,2234,2210,2194,2170,2142,2114,2090,2061,2034,2022,2030,2094,2222,2390,2558,2686,2790,2858,2886,2890,2882,2862,2830,2782,2718,2638,2554,2478,2406,2338,2290,2254,2230,2214,2198,2174,2150,2130,2102,2082,2061,2034,2009,1997,2026,2106,2226,2394,2566,2710,2806,2858,2874,2870,2850,2818,2778,2722,2662,2590,2510,2438,2378,2326,2290,2270,2250,2230,2210,2190,2170,2150,1913,1397,1217,1121,1061,1057,1141,1349,1669,2042,2382,2602,2754,2818,2806,2726,2626,2506,2362,2174,1969,1777,1605,1473,1381,1301,1237,1181,1129,1073,1033,981,925,865,801,733,684,624,560,528,556,692,929,1217,1553,1841,2038,2138,2154,2118,2034,1905,1749,1573,1401,1281,1177,1105,1065,1057,1061,1077,1081,1081,1073,1061,1049,1045,1025,997,965,929,893,873,893,989,1209,1533,1909,2262,2486,2634,2710,2710,2654,2550,2434,2286,2118,1957,1813,1701,1633,1585,1557,1545,1533,1525,1509,1497,1473,1437,1397,1349,1309,1277,1233,1217,1285,1481,1805,2130,2478,2778,2974,3074,3098,3062,2994,2894,2770,2618,2446,2270,2114,1961,1837,1749,1753,1865,1873,1849,1817,1785,1745,1701,1669,1621,1569,1517,1481,1505,1597,1837,2114,2398,2654,2838,2934,2970,2970,2942,2890,2814,2718,2610,2478,2334,2194,2061,1953,1885,1833,1785,1749,1709,1669,1641,1601,1557,1505,1453,1401,1369,1337,1345,1449,1665,1969,2278,2526,2730,2858,2918,2934,2922,2890,2842,2774,2674,2546,2402,2278,2154,2046,1961,1897,1853,1825,1793,1753,1713,1677,1641,1601,1569,1529,1485,1449,1449,1525,1689,1961,2286,2586,2810,2950,3006,3030,3022,2990,2946,2878,2794,2678,2534,2386,2246,2126,2038,1981,1929,1889,1853,1817,1785,1757,1717,1673,1625,1577,1533,1501,1461,1437,1473,1605,1849,2118,2422,2690,2882,2986,3018,3006,2966,2914,2834,2722,2574,2414,2254,2090,1937,1817,1725,1653,1609,1561,1509,1449,1377,1313,1273,1217,1161,1101,1041,977,925,889,881,957,1145,1441,1761,2038,2278,2426,2486,2478,2422,2342,2230,2094,1941,1789,1657,1565,1489,1441,1425,1417,1413,1413,1401,1381,1361,1337,1309,1281,1265,1233,1205,1169,1137,1121,1133,1217,1409,1709,2065,2398,2614,2770,2842,2846,2802,2718,2622,2494,2342,2186,2042,1925,1849,1809,1785,1769,1753,1737,1721,1701,1677,1641,1601,1565,1529,1497,1453,1413,1385,1405,1529,1725,2042,2410,2742,2982,3122,3174,3166,3126,3058,2966,2846,2702,2546,2374,2214,2082,1981,1917,1877,1837,1805,1765,1721,1681,1645,1597,1549,1501,1445,1413,1417,1409,1445,1573,1861,2166,2450,2682,2870,2982,3026,3018,2982,2938,2862,2774,2658,2514,2334,2226,2065,1973,1881,1817,1777,1737,1697,1661,1613,1557,1505,1469,1425,1369,1313,1269,1257,1309,1465,1733,2065,2390,2650,2814,2890,2934,2938,2918,2878,2822,2746,2638,2502,2350,2198,2061,1969,1893,1837,1793,1753,1713,1685,1653,1609,1569,1529,1489,1445,1409,1369,1341,1369,1497,1721,2001,2330,2630,2854,2990,3058,3066,3050,3018,2966,2894,2790,2674,2530,2370,2222,2098,1997,1929,1881,1841,1797,1757,1717,1677,1637,1589,1537,1493,1453,1413,1385,1345,1305,1297,1361,1541,1781,2106,2442,2722,2910,3010,3042,3030,2998,2950,2886,2798,2686,2554,2394,2158,1977,1853,1761,1701,1637,1577,1521,1465,1417,1369,1313,1245,1177,1117,1053,1009,953,901,857,869,973,1181,1449,1777,2077,2290,2410,2446,2430,2378,2294,2178,2038,1885,1761,1633,1525,1449,1397,1365,1349,1337,1325,1301,1281,1257,1233,1213,1185,1153,1121,1093,1073,1061,1037,1017,1041,1153,1377,1637,1969,2290,2538,2690,2758,2754,2710,2634,2526,2390,2238,2090,1973,1865,1785,1737,1705,1693,1685,1669,1649,1621,1589,1553,1525,1489,1453,1421,1381,1341,1317,1305,1341,1477,1733,2069,2398,2654,2870,3002,3050,3046,3006,2942,2862,2750,2610,2458,2306,2182,2069,1973,1897,1837,1781,1741,1693,1649,1601,1557,1505,1465,1417,1361,1305,1257,1229,1345,1489,1717,2026,2354,2642,2838,2942,2994,3006,2982,2942,2878,2798,2690,2550,2390,2230,2082,1977,1885,1817,1769,1725,1685,1649,1609,1565,1513,1457,1405,1353,1309,1261,1217,1229,1333,1561,1821,2142,2454,2698,2854,2934,2950,2942,2922,2878,2818,2726,2610,2478,2326,2174,2046,1945,1873,1825,1781,1741,1697,1657,1613,1581,1541,1489,1437,1389,1345,1321,1321,1381,1557,1841,2186,2494,2722,2898,2998,3042,3050,3038,3002,2946,2858,2738,2590,2430,2298,2166,2057,1973,1913,1865,1829,1789,1749,1705,1653,1597,1533,1485,1433,1381,1333,1285,1253,1257,1337,1529,1833,2182,2490,2710,2878,2966,2986,2966,2926,2866,2782,2674,2530,2362,2194,2053,1925,1813,1653,1553,1485,1437,1397,1345,1289,1229,1165,1105,1061,1005,949,897,853,809,793,809,909,1117,1425,1769,2034,2262,2410,2478,2478,2434,2354,2254,2122,1969,1813,1673,1569,1509,1465,1449,1449,1449,1445,1441,1425,1401,1373,1341,1309,1285,1253,1221,1193,1161,1129,1113,1149,1281,1529,1869,2234,2534,2730,2870,2934,2942,2910,2846,2766,2650,2502,2342,2190,2057,1973,1913,1869,1837,1809,1785,1749,1721,1681,1637,1589,1549,1509,1469,1425,1369,1317,1297,1341,1477,1745,2094,2450,2742,2934,3022,3058,3054,3018,2954,2870,2766,2626,2466,2298,2142,2009,1913,1841,1785,1729,1681,1629,1585,1541,1489,1433,1377,1317,1257,1217,1173,1125,1097,1145,1321,1657,2013,2354,2634,2822,2926,2958,2954,2934,2898,2846,2766,2662,2542,2386,2230,2090,1973,1881,1829,1777,1733,1689,1645,1597,1565,1525,1477,1429,1381,1341,1301,1273,1261,1317,1489,1773,2090,2374,2638,2830,2942,2998,3014,3002,2974,2930,2858,2750,2610,2478,2334,2202,2090,1997,1929,1881,1845,1809,1769,1729,1681,1641,1605,1557,1505,1457,1409,1369,1361,1417,1581,1853,2190,2506,2718,2870,2962,2998,2994,2970,2930,2874,2794,2678,2534,2374,2230,2110,2005,1933,1877,1829,1789,1745,1701,1649,1593,1537,1477,1429,1377,1317,1253,1197,1153,1149,1209,1369,1629,1937,2226,2430,2554,2622,2638,2618,2570,2502,2418,2306,2174,2034,1909,1801,1733,1681,1645,1581,1545,1525,1513,1485,1457,1425,1397,1361,1329,1305,1265,1225,1189,1161,1157,1221,1385,1661,1997,2326,2582,2726,2814,2842,2822,2766,2674,2570,2438,2286,2142,2013,1913,1849,1817,1797,1785,1769,1745,1725,1701,1673,1649,1617,1577,1533,1497,1457,1417,1393,1429,1569,1773,2086,2430,2730,2942,3066,3106,3114,3090,3034,2954,2850,2722,2590,2442,2298,2178,2094,2042,2022,2022,2038,2086,2170,2266,2346,2430,2550,2786,3206,3759,4011,4075,4091,4095,4095,4095,4095,4095,4095,4095,4095,4095,4095,4095,4095,4095,4095,3979,3695,3407,3102,2834,2618,2462,2350,2270,2182,2106,2073,2150,2358,2622,2842,3010,3054,2962,2794,2666,2646,2750,2922,3098,3226,3282,2338,1885,1741,1685,1657,1641,1617,1577,1517,1461,1429,1429,1433,1421,1397,1385,1397,1445,1501,1549,1573,1553,1505,1457,1433,1429,1445,1481,1541,1613,1685,1733,1781,1845,1925,2018,2102,2166,2206,2238,2254,2250,2234,2206,2166,2118,2069,2022,1973,1925,1885,1845,1809,1781,1753,1721,1689,1657,1629,1605,1589,1569,1549,1529,1517,1505,1497,1493,1489,1481,1465,1445,1421,1397,1385,1381,1385,1409,1433,1449,1457,1461,1441,1317,1053,729,464,328,236,152,64,16,4,0,0,0,0,0,0,0,0,0,0,0,0,0,0,0,60,180,300,408,488,556,616,664,709,741,769,801,837,869,893,901,901,909,929,981,1737,2102,2202,2234,2262,2322,2422,2530,2630,2702,2774,2850,2930,3018,3086,3118,3110,3062,2978,2858,2722,2610,2546,2538,2586,2654,2726,2786,2826,2854,2870,2870,2866,2870,2878,2910,2950,2994,3022,3034,3022,3002,2970,2902,2762,2546,2302,2086,1873,1697,1549,1433,1353,1305,1261,1229,1221,1225,1245,1269,1293,1329,1377,1441,1513,1577,1633,1669,1689,1693,1709,1741,1801,1881,1973,2053,2114,2142,2146,2138,2114,2042,1893,1721,1641,1681,1797,1897,1933,1933,1925,1901,1857,1793,1709,1633,1601,1625,1697,1793,1881,1941,1985,2018,2046,2077,2126,2186,2254,2310,2362,2406,2434,2450,2458,2458,2462,2466,2474,2490,2502,2506,2502,2498,2494,2490,2490,2490,2422,2394,2382,2378,2366,2354,2342,2326,2318,2322,2346,2390,2430,2478,2526,2562,2594,2614,2618,2618,2614,2598,2574,2546,2518,2494,2474,2458,2442,2430,2414,2398,2378,2362,2346,2326,2310,2294,2278,2266,2262,2278,2310,2354,2414,2478,2538,2578,2610,2626,2630,2630,2626,2610,2586,2558,2526,2498,2470,2442,2418,2398,2378,2362,2342,2326,2314,2298,2286,2274,2258,2238,2226,2222,2234,2270,2326,2394,2458,2514,2550,2570,2586,2598,2602,2598,2586,2562,2534,2498,2458,2418,2386,2358,2330,2310,2294,2278,2262,2250,2238,2226,2210,2194,2174,2162,2154,2162,2190,2242,2314,2386,2434,2478,2510,2530,2538,2538,2530,2514,2490,2462,2426,2390,2354,2326,2298,2274,1749,1477,1369,1309,1253,1193,1125,1057,993,941,877,817,805,881,1065,1285,1577,1873,2118,2294,2398,2438,2446,2422,2362,2270,2150,2013,1877,1725,1577,1445,1337,1257,1197,1137,1077,1013,953,893,845,789,725,660,596,536,504,524,636,845,1129,1425,1665,1833,1949,2013,2018,1981,1913,1821,1693,1537,1385,1249,1129,1045,977,921,877,841,809,789,761,729,692,648,600,564,536,488,440,404,412,480,624,841,1093,1333,1517,1633,1681,1681,1633,1549,1433,1297,1189,1077,977,897,841,801,781,769,761,749,733,721,709,701,680,660,632,592,564,556,580,684,897,1189,1509,1757,1973,2130,2214,2234,2206,2150,2454,2518,2430,2298,2162,2046,1953,1877,1821,1785,1761,1737,1709,1673,1641,1613,1577,1533,1501,1449,1405,1381,1429,1585,1801,2102,2414,2686,2882,3002,3054,3062,3046,3002,2926,2822,2698,2566,2418,2286,2170,2073,1997,1953,1917,1873,1829,1777,1729,1685,1641,1593,1533,1477,1421,1389,1421,1561,1817,2150,2490,2770,2966,3118,3210,3250,3258,3242,3190,3110,2998,2858,2702,2542,2418,2294,2186,2106,2042,1981,1925,1877,1813,1757,1693,1625,1565,1513,1457,1409,1397,1477,1673,1909,2214,2526,2782,2958,3070,3106,3110,3094,3054,2982,2874,2754,2606,2450,2302,2178,2073,1989,1929,1873,1817,1761,1709,1665,1625,1565,1505,1445,1377,1313,1273,1237,1245,1357,1465,1725,1993,2278,2506,2654,2734,2758,2746,2702,2630,2530,2398,2250,2094,1961,1829,1717,1625,1553,1493,1453,1413,1361,1305,1249,1193,1153,1097,1041,985,929,877,833,817,849,969,1177,1453,1713,1917,2086,2186,2222,2202,2138,2049,1929,1789,1649,1525,1425,1361,1317,1289,1269,1257,1249,1237,1229,1213,1189,1157,1129,1097,1073,1041,1009,977,961,989,1077,1269,1549,1865,2158,2390,2522,2606,2634,2614,2554,2458,2342,2222,2082,1949,1841,1757,1701,1665,1637,1609,1585,1549,1517,1485,1449,1413,1369,1321,1273,1229,1185,1173,1225,1393,1665,1937,2250,2522,2726,2854,2918,2930,2906,2854,2774,2662,2526,2378,2246,2114,2001,1913,1849,1801,1761,1829,1833,1793,1745,1693,1649,1597,1537,1481,1425,1393,1421,1533,1761,2077,2418,2718,2934,3066,3154,3198,3206,3186,3134,3058,2946,2810,2658,2510,2374,2266,2178,2106,2049,1993,1941,1885,1829,1765,1701,1637,1577,1521,1469,1417,1405,1485,1681,1977,2254,2550,2810,3002,3122,3178,3186,3174,3142,3078,2974,2838,2690,2546,2410,2282,2174,2090,2034,1981,1929,1873,1817,1757,1701,1649,1589,1525,1457,1393,1341,1329,1381,1545,1821,2162,2502,2746,2942,3074,3154,3178,3174,3138,3070,2974,2846,2694,2534,2390,2262,2150,2057,1981,1909,1845,1793,1737,1669,1601,1525,1453,1397,1341,1277,1209,1153,1125,1165,1293,1525,1825,2126,2374,2542,2626,2670,2658,2606,2446,2306,2190,2053,1913,1777,1661,1573,1525,1489,1457,1421,1389,1357,1325,1293,1253,1213,1169,1129,1101,1077,1033,989,957,961,1045,1189,1433,1725,2009,2230,2374,2442,2462,2438,2366,2262,2138,2009,1901,1797,1717,1661,1629,1609,1593,1585,1577,1565,1549,1533,1521,1493,1465,1437,1413,1385,1369,1361,1405,1541,1773,2082,2342,2594,2786,2910,2974,2990,2962,2902,2818,2702,2558,2402,2250,2122,1993,1881,1781,1685,1581,1489,1369,1241,1117,1005,893,817,733,648,572,524,544,660,869,1161,1477,1757,1993,2170,2298,2398,2466,2494,2498,2474,2426,2358,2278,2202,2134,2077,2042,2013,1977,1941,1889,1841,1797,1753,1693,1621,1545,1465,1385,1305,1477,1573,1677,1853,2077,2278,2466,2610,2706,2750,2762,2746,2706,2638,2550,2442,2314,2190,2077,1961,1857,1765,1673,1597,1533,1453,1373,1293,1217,1145,1097,1041,993,961,961,1013,1125,1325,1593,1881,2138,2322,2438,2494,2526,2546,2562,2574,2570,2550,2518,2498,2494,2514,2550,2590,2634,2666,2678,2662,2626,2582,2526,2462,2402,2346,2310,2294,2302,2346,2442,2606,2858,3146,3443,3787,4011,4075,4091,4095,4095,4095,4095,4095,4095,4095,4095,4031,3911,3791,3695,3627,3571,3531,3495,3435,3354,3254,3150,3050,2938,2802,2642,2446,2218,1973,1649,1309,1037,925,977,1101,1253,1389,1485,1529,1509,1457,1349,1185,1005,837,713,644,628,632,648,668,921,1041,1081,1097,1105,1105,1089,1069,1049,1025,993,965,953,977,1033,1137,1277,1425,1569,1685,1765,1809,1825,1813,1777,1713,1645,1569,1477,1381,1293,1213,1153,1121,1089,1065,1045,1029,1013,1009,997,981,953,921,881,869,873,913,1001,1125,1257,1373,1457,1525,1561,1573,1565,1545,1517,1473,1417,1361,1313,1273,1253,1245,1245,1241,1237,1237,1241,1241,1241,1241,1245,1245,1249,1257,1257,1269,1301,1381,1493,1621,1761,1893,1993,2069,2118,2138,2154,2162,2150,2122,2077,2030,1973,1913,1857,1809,1769,1733,1709,1677,1653,1625,1605,1589,1569,1545,1517,1485,1461,1449,1465,1521,1625,1765,1913,2038,2118,2178,2214,2234,2246,2242,2226,2198,2638,2782,2746,2666,2590,2526,2458,2398,2346,2298,2254,2218,2186,2150,2110,2069,2030,2001,1969,1937,1909,1925,2001,2118,2294,2498,2686,2834,2934,2990,3010,3018,3010,2986,2942,2878,2806,2718,2626,2538,2462,2398,2354,2310,2270,2226,2186,2150,2122,2094,2061,2022,1977,1933,1897,1865,1837,1845,1921,2065,2242,2414,2578,2702,2778,2814,2822,2806,2770,2718,2650,2566,2482,2410,2334,2266,2206,2158,2126,2094,2073,2049,2030,2009,1985,1965,1945,1921,1889,1861,1833,1801,1789,1769,1757,1789,1873,2013,2158,2314,2450,2554,2614,2630,2622,2590,2538,2474,2398,2326,2262,2210,2158,2122,2094,2069,2053,2042,2030,2013,2001,1985,1973,1965,1957,1941,1921,1897,1457,1253,1221,1289,1465,1737,2049,2338,2558,2742,2866,2930,2946,2918,2862,2762,2658,2542,2414,2290,2194,2106,2034,1981,1937,1897,1869,1837,1801,1765,1725,1681,1649,1617,1573,1525,1497,1513,1605,1781,2061,2386,2694,2938,3114,3202,3254,3270,3254,3210,3134,3042,2918,2778,2638,2506,2382,2282,2206,2146,2090,2030,1965,1913,1865,1809,1753,1701,1645,1593,1557,1513,1485,1525,1673,1929,2202,2514,2806,3058,3214,3306,3350,3358,3346,3302,3222,3110,2970,2826,2674,2530,2402,2286,2190,2126,2061,1997,1937,1881,1817,1769,1713,1653,1597,1537,1477,1429,1409,1437,1573,1813,2130,2442,2690,2918,3082,3182,3234,3246,3226,3186,3118,3010,2870,2706,2566,2426,2154,1981,1877,1805,1757,1705,1649,1589,1537,1485,1441,1405,1357,1309,1257,1201,1157,1125,1093,1093,1173,1365,1645,1913,2198,2442,2614,2726,2790,2818,2834,2830,2794,2722,2618,2494,2370,2238,2114,2001,1909,1833,1773,1713,1653,1597,1541,1485,1441,1389,1337,1285,1229,1177,1149,1109,1077,1065,1109,1229,1417,1637,1889,2118,2286,2398,2446,2454,2422,2354,2258,2146,2026,1925,1821,1725,1649,1585,1537,1509,1481,1461,1441,1413,1389,1365,1345,1321,1293,1257,1221,1193,1173,1145,1133,1177,1313,1537,1773,2042,2298,2498,2634,2706,2718,2706,2662,2590,2494,2378,2270,2162,2053,1957,1881,1821,1777,1737,1701,1665,1629,1589,1557,1525,1489,1449,1409,1365,1325,1297,1277,1313,1449,1697,2030,2326,2622,2878,3066,3182,3242,3246,3214,3146,3062,2950,2810,2662,2518,2374,2242,2130,2042,1969,1921,1873,1817,1761,1705,1649,1605,1549,1493,1437,1381,1325,1289,1301,1409,1641,1977,2346,2674,2914,3118,3266,3354,3398,3411,3378,3314,3218,3090,2934,2762,2614,2470,2338,2226,2126,2042,1969,1909,1845,1781,1713,1645,1581,1525,1461,1397,1329,1273,1249,1289,1441,1709,2106,2450,2730,2922,3074,3178,3234,3250,3234,3186,3106,2994,2854,2690,2530,2382,2250,2126,2022,1941,1865,1797,1741,1681,1613,1549,1485,1421,1369,1317,1265,1209,1153,1097,1065,1053,1113,1293,1589,1961,2314,2598,2842,3014,3118,3170,3170,3134,3070,2794,2590,2430,2274,2146,2018,1901,1793,1701,1625,1569,1509,1445,1381,1321,1257,1213,1177,1125,1065,1009,953,909,881,841,817,841,953,1153,1369,1625,1869,2061,2190,2262,2282,2266,2218,2134,2022,1893,1769,1665,1557,1469,1405,1361,1329,1305,1281,1257,1237,1213,1193,1181,1161,1133,1109,1089,1069,1053,1025,989,985,1049,1209,1445,1705,2001,2262,2458,2586,2646,2650,2622,2554,2454,2330,2206,2069,1945,1841,1749,1681,1625,1589,1545,1505,1473,1441,1409,1389,1361,1321,1277,1237,1201,1165,1141,1129,1157,1269,1485,1753,2013,2286,2510,2678,2786,2842,2858,2846,2802,2734,2634,2510,2386,2238,2114,2009,1917,1837,1785,1737,1693,1645,1597,1597,1677,1673,1633,1581,1533,1489,1461,1473,1557,1825,2042,2374,2618,2862,2998,3106,3182,3206,3206,3174,3106,3010,2874,2726,2578,2458,2346,2254,2174,2102,2034,1969,1909,1849,1789,1729,1669,1609,1557,1497,1441,1385,1333,1273,1233,1209,1241,1381,1625,1945,2218,2494,2718,2890,3010,3086,3118,3118,3086,3022,2918,2778,2622,2478,2334,2210,2110,2026,1969,1917,1857,1789,1721,1649,1585,1533,1469,1401,1333,1261,1197,1157,1133,1173,1309,1541,1821,2082,2290,2462,2574,2630,2638,2602,2542,2442,2310,2158,2001,1857,1745,1641,1553,1489,1445,1401,1365,1321,1277,1233,1193,1153,1121,1093,1053,1009,961,909,869,849,845,893,1029,1265,1557,1817,2069,2274,2398,2470,2490,2470,2418,2334,2226,2106,1985,1885,1813,1749,1705,1677,1657,1637,1621,1601,1581,1561,1541,1521,1501,1469,1429,1393,1361,1333,1321,1337,1417,1581,1825,2106,2366,2574,2750,2874,2950,2978,2974,2938,2878,2790,2686,2578,2482,2410,2346,2298,2258,2226,2190,2158,2118,2077,2030,1981,1925,1881,1829,1769,1709,1661,1637,1661,1765,1965,2234,2526,2782,2974,3098,3190,3250,3278,3278,3258,3206,3126,3018,2898,2762,2634,2526,2430,2346,2270,2206,2142,2090,2038,1981,1921,1865,1805,1753,1705,1649,1601,1589,1657,1825,2030,2290,2562,2786,2958,3078,3134,3166,3178,3162,3114,3034,2926,2806,2666,2526,2402,2294,2206,2138,2069,2005,1941,1885,1765,1573,1489,1429,1381,1325,1273,1233,1185,1133,1081,1053,1093,1221,1425,1721,2038,2322,2542,2678,2742,2778,2786,2766,2714,2638,2542,2422,2278,2134,2001,1881,1789,1709,1645,1597,1553,1513,1485,1441,1397,1345,1293,1245,1201,1169,1137,1101,1069,1049,1053,1109,1241,1461,1729,1993,2222,2370,2482,2558,2590,2586,2538,2466,2358,2234,2102,1965,1841,1733,1649,1573,1513,1461,1421,1393,1365,1329,1293,1253,1209,1177,1161,1145,1137,1129,1117,1133,1189,1321,1537,1805,2082,2330,2498,2602,2670,2690,2662,2598,2510,2410,2286,2150,2013,1897,1809,1753,1701,1653,1609,1565,1529,1505,1485,1461,1449,1441,1445,1465,1497,1537,1581,1637,1733,1885,2073,2330,2666,3062,3270,3354,3346,3294,3214,3122,3014,2890,2762,2610,2438,2266,2102,1949,1837,1761,1705,1661,1629,1601,1577,1561,1545,1529,1509,1477,1441,1401,1373,1421,1585,1873,2246,2562,2882,3154,3354,3491,3583,3619,3639,3631,3583,3479,3330,3166,3002,2842,2710,2606,2522,2462,2406,2350,2290,2230,2178,2138,2110,2073,2034,1985,1937,1897,1869,1849,1881,2009,2254,2582,2914,3186,3435,3615,3723,3763,3747,3683,3587,3463,3306,3122,2918,2730,2530,2334,2154,2001,1877,1797,1733,1693,1661,1621,1565,1489,1413,1313,1205,1097,989,909,857,829,861,993,1241,1565,1861,2166,2418,2590,2674,2690,2658,2594,2486,2334,2146,1941,1765,1625,1501,1405,1329,1257,1221,1229,1193,1145,1093,1041,993,957,917,877,841,805,769,749,737,757,845,1009,1229,1433,1641,1825,1961,2049,2090,2094,2065,2009,1929,1837,1733,1633,1553,1477,1421,1381,1357,1341,1329,1309,1285,1265,1249,1241,1241,1241,1249,1257,1265,1285,1337,1433,1605,1821,2049,2266,2430,2538,2622,2674,2694,2690,2654,2598,2514,2406,2290,2182,2077,2005,1937,1881,1829,1785,1741,1709,1685,1653,1625,1593,1561,1529,1497,1461,1437,1449,1529,1697,1885,2114,2346,2538,2678,2770,2814,2838,2850,2834,2798,2734,2650,2554,2442,2326,2218,2118,2034,1969,1913,1857,1801,1745,1681,1637,1581,1521,1461,1405,1353,1321,1301,1337,1453,1649,1893,2098,2298,2458,2630,2830,2898,2918,2906,2878,2822,2738,2638,2530,2426,2318,2222,2138,2065,2005,1965,1917,1873,1821,1773,1725,1689,1649,1601,1557,1513,1481,1485,1549,1693,1905,2146,2362,2526,2630,2718,2766,2786,2778,2750,2698,2622,2514,2390,2262,2138,2046,1953,1873,1805,1749,1693,1645,1605,1561,1517,1477,1433,1397,1365,1325,1289,1249,1225,1233,1289,1417,1609,1841,2065,2250,2366,2450,2498,2510,2498,2462,2402,2330,2238,2130,2022,1921,1841,1789,1741,1701,1665,1633,1605,1585,1557,1525,1493,1465,1433,1409,1377,1333,1293,1249,1213,1209,1253,1365,1541,1761,1973,2146,2262,2346,2398,2410,2390,2346,2282,2194,2090,1985,1885,1805,1749,1705,1673,1645,1625,1605,1569,1493,1461,1441,1425,1401,1381,1365,1341,1309,1277,1277,1333,1461,1677,1949,2230,2470,2654,2762,2838,2890,2906,2890,2838,2766,2666,2554,2434,2314,2206,2114,2042,1969,1905,1849,1797,1753,1717,1677,1637,1597,1557,1513,1481,1449,1425,1453,1561,1761,1973,2230,2474,2670,2806,2902,2950,2966,2966,2942,2890,2806,2694,2578,2442,2310,2190,2086,1993,1921,1845,1769,1697,1629,1565,1517,1469,1425,1381,1345,1305,1285,1305,1385,1557,1809,2094,2346,2534,2686,2786,2838,2850,2826,2786,2726,2642,2534,2414,2294,2194,2098,2018,1953,1893,1841,1801,1757,1705,1653,1601,1545,1497,1461,1417,1377,1337,1305,1297,1341,1469,1689,1973,2270,2522,2682,2798,2866,2906,2938,2906,2842,2746,2610,2446,2274,2106,1965,1853,1753,1669,1597,1529,1481,1441,1393,1341,1285,1225,1165,1125,1077,1013,957,909,885,909,1013,1221,1501,1809,2082,2286,2414,2498,2530,2510,2454,2370,2262,2126,1981,1845,1721,1617,1553,1501,1457,1425,1393,1365,1345,1313,1273,1229,1181,1133,1085,1049,1005,961,917,889,901,977,1141,1393,1693,1977,2210,2350,2450,2494,2478,2422,2326,2222,2102,1969,1849,1741,1661,1613,1581,1557,1533,1513,1493,1477,1465,1437,1409,1381,1345,1313,1285,1249,1209,1197,1253,1409,1617,1909,2230,2518,2750,2910,2986,3030,3034,3002,2938,2838,2722,2602,2462,2334,2218,2122,2046,1981,1929,1889,1853,1809,1761,1745,1749,1713,1665,1617,1561,1521,1485,1497,1597,1805,2094,2386,2638,2870,3042,3158,3226,3250,3238,3202,3134,3034,2906,2762,2634,2502,2374,2262,2170,2090,2034,1973,1909,1849,1789,1733,1677,1629,1573,1505,1441,1385,1377,1437,1593,1845,2150,2450,2698,2854,2970,3046,3086,3090,3074,3026,2946,2830,2694,2546,2402,2286,2166,2061,1977,1905,1837,1777,1729,1673,1621,1565,1509,1461,1421,1369,1313,1261,1209,1165,1141,1149,1229,1417,1705,2046,2326,2590,2806,2966,3062,3114,3130,3110,3066,2990,2878,2738,2590,2450,2302,2170,2053,1961,1873,1813,1749,1681,1621,1557,1489,1441,1381,1321,1265,1209,1161,1125,1093,1061,1053,1105,1261,1485,1737,2018,2258,2406,2438,2474,2474,2454,2402,2326,2230,2110,2005,1893,1789,1697,1625,1565,1525,1493,1449,1405,1361,1321,1285,1253,1213,1173,1133,1093,1049,1025,993,957,929,921,969,1073,1253,1493,1749,1969,2134,2238,2286,2298,2270,2206,2114,2009,1909,1801,1701,1621,1561,1529,1509,1489,1465,1441,1417,1397,1385,1365,1341,1313,1285,1261,1245,1225,1193,1169,1149,1169,1257,1473,1729,2086,2334,2530,2642,2714,2750,2750,2714,2654,2578,2478,2366,2254,2154,2061,1997,1941,1893,1849,1801,1757,1709,1669,1617,1561,1505,1453,1401,1353,1293,1229,1193,1217,1337,1509,1757,2034,2274,2466,2598,2670,2714,2734,2718,2666,2578,2462,2330,2170,1997,1837,1701,1597,1569,1597,1565,1525,1481,1437,1409,1373,1325,1285,1241,1201,1169,1121,1073,1061,1133,1325,1597,1885,2210,2498,2718,2874,2966,2982,2974,2938,2882,2802,2710,2598,2474,2362,2270,2190,2126,2065,1993,1917,1837,1753,1673,1601,1517,1429,1357,1293,1233,1193,1149,1097,1053,1013,969,949,929,949,1049,1265,1573,1901,2194,2478,2698,2858,2962,3018,3038,3038,3002,2930,2818,2682,2554,2414,2274,2150,2053,1969,1905,1841,1777,1717,1653,1597,1549,1509,1461,1405,1341,1277,1249,1217,1193,1201,1273,1437,1661,1909,2190,2442,2630,2758,2826,2846,2834,2782,2694,2578,2446,2326,2202,2090,1989,1913,1849,1809,1765,1725,1681,1637,1601,1565,1533,1493,1453,1433,1441,1421,1405,1377,1353,1321,1281,1257,1277,1369,1573,1877,2238,2582,2830,3050,3218,3338,3411,3447,3439,3407,3342,3242,3118,2978,2842,2722,2606,2502,2422,2354,2290,2234,2174,2118,2057,2001,1941,1893,1833,1777,1709,1645,1589,1581,1641,1797,2042,2334,2618,2842,2994,3114,3190,3226,3230,3206,3154,3074,2966,2834,2694,2550,2438,2334,2250,2186,2138,2090,2053,2018,1973,1925,1865,1805,1753,1709,1657,1605,1557,1505,1465,1425,1381,1333,1293,1253,1225,1245,1341,1549,1861,2222,2574,2822,3038,3198,3306,3370,3407,3403,3366,3298,3190,3050,2890,2734,2598,2462,2346,2250,2170,2102,2049,2005,1961,1917,1869,1809,1773,1737,1713,1701,1685,1665,1637,1541,1353,1245,1161,1109,1117,1201,1381,1625,1897,2154,2354,2490,2598,2654,2666,2634,2570,2494,2390,2266,2126,1985,1853,1757,1669,1589,1525,1477,1445,1429,1425,1417,1409,1389,1353,1309,1265,1209,1145,1085,1037,1001,989,973,977,1029,1145,1337,1537,1781,2013,2206,2334,2402,2418,2386,2314,2210,2086,1961,1861,1777,1705,1649,1613,1585,1561,1545,1525,1509,1497,1493,1485,1481,1465,1445,1409,1365,1321,1289,1273,1261,1273,1345,1501,1713,1949,2222,2466,2666,2802,2890,2918,2922,2898,2842,2754,2642,2526,2390,2258,2138,2038,1961,1901,1861,1821,1785,1749,1713,1673,1641,1597,1549,1501,1449,1401,1365,1321,1297,1325,1441,1653,1881,2154,2410,2614,2802,2986,3054,3090,3102,3086,3042,2958,2854,2730,2586,2438,2302,2182,2086,2009,1945,1881,1825,1773,1721,1677,1625,1573,1521,1473,1429,1401,1365,1341,1361,1469,1677,1933,2198,2482,2718,2898,3018,3086,3118,3134,3122,3078,3002,2906,2802,2702,2606,2526,2458,2402,2358,2322,2290,2262,2238,2214,2186,2154,2126,2102,2082,2061,2042,2018,1965,1885,1773,1641,1513,1441,1457,1605,1873,2206,2534,2754,2922,3010,3022,2986,2918,2846,2778,2702,2610,2502,2382,2254,2134,2013,1925,1873,1853,1841,1829,1809,1785,1757,1733,1709,1697,1693,1697,1717,1729,1733,1729,1689,1625,1565,1553,1605,1721,1873,2077,2278,2450,2574,2650,2678,2666,2618,2526,2402,2262,2150,1981,1749,1609,1497,1385,1289,1169,1033,901,789,705,652,620,580,528,468,408,360,348,348,368,396,452,572,757,1053,1441,1861,2270,2618,2842,3010,3106,3110,3026,2874,2702,2530,2354,2190,2049,1937,1861,1805,1757,1705,1649,1593,1537,1497,1457,1413,1373,1337,1293,1265,1229,1181,1141,1129,1193,1345,1569,1877,2206,2494,2722,2870,2950,3010,3042,3046,3022,2958,2862,2734,2590,2442,2298,2166,2065,1977,1905,1837,1777,1721,1673,1625,1561,1489,1413,1329,1253,1185,1109,1037,997,1029,1153,1373,1697,2069,2434,2762,3046,3242,3447,3683,3935,4055,4087,4095,4095,4095,4095,4095,4095,4095,4095,4095,4095,4095,4095,4095,4095,4095,4095,4095,3843,3282,3118,3042,2970,2890,2822,2774,2726,2690,2642,2582,2510,2434,2370,2326,2294,2278,2266,2254,2234,2218,2210,2198,2178,2142,2094,2034,1973,1917,1873,1825,1773,1725,1673,1621,1569,1529,1489,1461,1441,1421,1393,1365,1337,1309,1281,1245,1201,1157,1113,1089,1089,1129,1201,1285,1369,1437,1477,1505,1529,1553,1569,1581,1585,1577,1557,1525,1489,1453,1425,1401,1361,1313,1261,1209,1169,1137,1105,1069,1033,993,953,917,877,837,797,761,733,717,701,701,725,773,829,877,913,925,921,913,909,913,921,921,909,877,833,789,761,733,709,697,697,701,717,729,737,745,749,757,777,809,845,877,897,909,913,921,1009,1209,1305,1397,1497,1581,1657,1721,1761,1785,1793,1793,1789,1781,1765,1741,1713,1681,1653,1617,1585,1557,1541,1529,1521,1509,1501,1485,1473,1453,1437,1421,1401,1381,1357,1337,1325,1317,1317,1345,1397,1477,1561,1637,1709,1769,1809,1837,1849,1857,1861,1865,1869,1873,1885,1889,1901,1909,1913,1909,1901,1889,1873,1865,1861,1865,1877,1881,1885,1885,1881,1885,1901,1921,1941,1961,1973,1969,1953,1933,1921,1933,1961,2005,2049,2086,2102,2114,2114,2102,2086,2061,2038,2001,1961,1917,1881,1857,1837,1821,1809,1797,1785,1773,1761,1753,1749,1741,1721,1693,1653,1613,1561,1509,1465,1433,1413,1405,1401,1405,1433,1489,1565,1645,1709,1761,1789,1797,1937,2242,2326,2350,2346,2306,2242,2154,2069,1977,1893,1821,1769,1729,1701,1673,1649,1629,1617,1605,1597,1593,1593,1597,1597,1577,1537,1481,1389,1285,1181,1097,1053,1069,1125,1209,1305,1401,1493,1573,1649,1717,1753,1757,1733,1697,1645,1581,1513,1445,1385,1337,1305,1281,1265,1265,1273,1285,1301,1313,1321,1317,1305,1285,1277,1265,1253,1237,1225,1229,1257,1321,1421,1549,1689,1829,1949,2046,2138,2198,2218,2198,2150,2073,1973,1861,1749,1649,1577,1537,1505,1485,1473,1453,1437,1421,1397,1369,1341,1317,1289,1269,1249,1225,1197,1185,1209,1289,1417,1605,1817,2018,2186,2318,2398,2462,2510,2542,2554,2538,2498,2430,2338,2242,2146,2057,1989,1941,1969,2082,2077,2046,2013,1973,1925,1873,1825,1777,1733,1701,1665,1645,1681,1797,2013,2214,2438,2658,2842,2978,3066,3110,3126,3126,3106,3050,2966,2858,2742,2610,2482,2362,2266,2190,2130,2069,2009,1953,1901,1849,1809,1761,1705,1653,1593,1533,1489,1429,1357,1289,1233,1209,1253,1373,1585,1849,2122,2350,2506,2598,2658,2694,2714,2722,2702,2666,2598,2494,2354,2198,2049,1937,1837,1749,1681,1621,1569,1533,1509,1481,1453,1421,1389,1365,1349,1321,1297,1277,1261,1261,1293,1377,1541,1777,2049,2314,2502,2662,2778,2842,2862,2842,2790,2718,2622,2510,2390,2286,2202,2150,2106,2077,2053,2026,1985,1945,1889,1829,1769,1717,1677,1657,1645,1641,1637,1629,1585,1513,1537,1653,1857,2130,2418,2670,2862,3022,3138,3214,3254,3262,3234,3174,3066,2946,2818,2690,2586,2486,2394,2314,2246,2186,2142,2094,2042,1989,1929,1865,1805,1749,1689,1637,1585,1537,1517,1549,1661,1869,2154,2454,2718,2894,3026,3114,3162,3178,3170,3138,3082,2998,2882,2738,2582,2442,2330,2226,2134,2061,2005,1957,1913,1865,1813,1757,1701,1641,1605,1561,1513,1465,1417,1401,1437,1565,1797,2098,2442,2706,2890,3014,3114,3170,3198,3202,3178,3126,3038,2914,2766,2610,2462,2350,2242,2150,2065,2001,1937,1885,1829,1769,1713,1657,1601,1553,1509,1461,1409,1361,1321,1293,1277,1257,1229,1197,1177,1205,1297,1493,1789,2134,2458,2718,2882,3006,3042,2974,2954,2930,2882,2814,2718,2606,2482,2370,2270,2194,2118,2053,1993,1941,1889,1853,1813,1769,1729,1701,1677,1661,1641,1613,1577,1537,1501,1489,1521,1625,1813,2065,2334,2546,2678,2754,2774,2750,2690,2606,2502,2374,2230,2090,1973,1893,1869,1889,1941,2018,2094,2158,2202,2238,2270,2286,2286,2274,2250,2218,2174,2122,2061,2005,1961,1921,1889,1901,1985,2158,2398,2598,2782,2914,2978,2990,2966,2930,2886,2846,2810,2762,2702,2630,2542,2434,2314,2198,2086,2001,1941,1885,1833,1773,1713,1641,1581,1513,1441,1365,1293,1221,1165,1121,1133,1237,1437,1713,1993,2226,2438,2590,2682,2734,2746,2738,2706,2654,2570,2454,2318,2182,2030,1885,1741,1661,1581,1509,1453,1401,1353,1305,1265,1241,1213,1189,1165,1145,1113,1085,1041,977,909,861,873,969,1197,1545,1953,2346,2670,2902,3042,3150,3210,3234,3234,3206,3146,3054,2926,2766,2602,2450,2326,2214,2114,2034,1969,1905,1861,1813,1765,1721,1673,1617,1561,1517,1465,1405,1349,1317,1345,1445,1649,1929,2230,2502,2714,2838,2926,2974,2986,2966,2910,2822,2690,2530,2354,2194,2057,1949,1873,1805,1749,1701,1653,1609,1573,1533,1489,1441,1389,1329,1289,1229,1169,1109,1073,1101,1209,1425,1729,2057,2354,2586,2746,2842,2906,2938,2938,2906,2842,2754,2630,2482,2334,2194,2073,1981,1893,1817,1757,1697,1645,1605,1565,1517,1469,1421,1373,1337,1285,1221,1253,1269,1321,1441,1621,1861,2114,2330,2490,2590,2634,2654,2642,2598,2522,2426,2330,2222,2106,2005,1921,1857,1817,1777,1741,1709,1669,1629,1593,1565,1533,1489,1449,1409,1377,1353,1329,1345,1441,1621,1869,2090,2318,2502,2626,2698,2726,2718,2690,2638,2558,2454,2334,2222,2126,2034,1961,1901,1857,1821,1801,1773,1749,1721,1693,1661,1633,1597,1553,1501,1449,1413,1429,1513,1693,1933,2194,2426,2590,2690,2754,2774,2754,2694,2602,2494,2362,2222,2094,1985,1905,1853,1805,1765,1729,1693,1653,1621,1581,1537,1493,1449,1401,1365,1321,1281,1245,1241,1301,1429,1605,1841,2069,2262,2394,2462,2482,2466,2418,2342,2242,2126,2022,1917,1821,1745,1689,1653,1589,1557,1537,1517,1493,1461,1433,1405,1365,1321,1273,1229,1193,1161,1129,1105,1121,1209,1405,1641,1945,2254,2510,2690,2794,2830,2822,2766,2666,2530,2374,2230,2110,2001,1917,1857,1821,1797,1785,1765,1745,1721,1701,1677,1657,1625,1585,1549,1509,1469,1449,1461,1549,1753,2057,2410,2730,2974,3182,3318,3394,3419,3398,3342,3258,3142,2994,2834,2674,2542,2426,2330,2254,2182,2118,2065,2018,1961,1905,1841,1777,1725,1669,1605,1545,1501,1521,1633,1837,2158,2506,2822,3066,3218,3306,3358,3370,3350,3298,3214,3106,2958,2782,2598,2426,2270,2162,2065,1981,1909,1841,1777,1721,1677,1621,1565,1501,1437,1377,1329,1285,1285,1397,1633,1973,2282,2606,2878,2866,2886,2922,2930,2930,2910,2858,2770,2642,2498,2350,2190,2042,1913,1813,1737,1677,1617,1553,1493,1437,1377,1337,1293,1245,1193,1141,1089,1057,1057,1133,1321,1609,1941,2242,2466,2646,2770,2842,2882,2890,2874,2834,2758,2646,2502,2346,2214,2086,1969,1877,1801,1737,1689,1633,1577,1521,1469,1421,1381,1337,1285,1237,1185,1133,1089,1053,1013,993,1049,1213,1465,1753,2077,2358,2570,2710,2790,2818,2822,2802,2758,2686,2574,2454,2310,2158,2018,1893,1793,1713,1649,1589,1529,1469,1413,1365,1325,1277,1221,1165,1113,1061,1033,993,953,913,885,897,965,1121,1365,1645,1909,2118,2258,2334,2366,2350,2302,2214,2114,2009,1885,1761,1649,1565,1505,1561,1573,1557,1537,1509,1485,1469,1445,1421,1397,1369,1341,1317,1301,1281,1261,1229,1201,1201,1253,1397,1641,1945,2250,2506,2670,2790,2862,2890,2882,2842,2778,2686,2566,2434,2306,2194,2110,2046,1997,1953,1909,1869,1833,1797,1757,1709,1657,1605,1565,1529,1481,1429,1381,1353,1397,1509,1733,2026,2326,2582,2766,2866,2930,2954,2950,2918,2866,2794,2698,2570,2422,2274,2138,2030,1941,1865,1809,1757,1709,1665,1625,1585,1533,1481,1429,1381,1345,1297,1277,1321,1469,1725,2013,2278,2538,2742,2870,2946,2970,2966,2950,2906,2834,2730,2598,2470,2330,2198,2090,1997,1925,1877,1825,1781,1737,1693,1645,1593,1553,1513,1469,1429,1393,1357,1333,1297,1261,1141,1125,1249,1469,1809,2210,2582,2878,3078,3178,3242,3274,3282,3258,3202,3114,2994,2834,2662,2486,2330,2202,2102,2005,1917,1833,1757,1681,1617,1545,1465,1389,1313,1237,1173,1089,997,909,857,885,993,1201,1473,1749,1977,2138,2226,2262,2266,2242,2178,2077,1969,1857,1729,1609,1513,1449,1409,1397,1393,1389,1377,1365,1345,1321,1285,1249,1209,1173,1141,1117,1097,1073,1045,1021,1001,993,1033,1145,1369,1685,2042,2382,2622,2830,2978,3058,3058,3002,2906,2762,2602,2442,2302,2198,2130,2086,2049,2005,1957,1905,1861,1833,1809,1785,1765,1737,1701,1673,1645,1625,1621,1641,1677,1729,1833,2030,2318,2658,2994,3270,3467,3631,3731,3759,3719,3635,3138,2862,2714,2602,2506,2438,2394,2378,2378,2370,2346,2298,2250,2198,2142,2090,2034,1977,1921,1845,1761,1665,1573,1505,1485,1525,1641,1821,2026,2222,2374,2482,2570,2634,2666,2682,2674,2646,2602,2538,2446,2338,2218,2118,2026,1949,1889,1845,1809,1785,1769,1761,1761,1757,1749,1729,1705,1665,1609,1545,1489,1481,1525,1645,1825,2030,2218,2362,2446,2502,2526,2530,2514,2482,2434,2374,2286,2182,2061,1949,1853,1785,1725,1669,1617,1561,1505,1461,1417,1373,1325,1277,1233,1197,1153,1105,1049,977,901,833,793,773,809,917,1105,1333,1557,1789,1981,2130,2234,2302,2338,2362,2370,2358,2314,2238,2150,2034,1913,1797,1701,1625,1569,1529,1489,1441,1553,1581,1565,1545,1513,1477,1437,1397,1361,1333,1293,1253,1209,1177,1169,1205,1305,1469,1677,1881,2049,2158,2234,2274,2286,2270,2230,2174,2106,2013,1913,1817,1733,1673,1637,1609,1589,1573,1557,1541,1529,1509,1493,1477,1461,1441,1429,1417,1401,1381,1357,1333,1313,1305,1313,1373,1501,1681,1873,2042,2194,2306,2374,2394,2382,2350,2298,2226,2146,2057,1977,1917,1869,1833,1797,1765,1729,1689,1657,1605,1549,1485,1421,1365,1321,1269,1213,1161,1109,1065,1045,1037,1065,1165,1349,1601,1841,2098,2334,2518,2654,2746,2790,2806,2802,2782,2730,2658,2570,2478,2382,2294,2222,2158,2106,2065,2022,1977,1933,1889,1853,1829,1805,1785,1761,1737,1709,1689,1729,1777,1889,2098,2374,2658,2898,3130,3310,3431,3507,3543,3555,3551,3523,3463,3362,3226,3086,2926,2774,2650,2558,2494,2442,2386,2318,2238,2154,2061,1973,1889,1797,1713,1645,1577,1517,1481,1481,1561,1725,1941,2170,2342,2506,2622,2678,2662,2598,2518,2402,2262,2110,1953,1813,1701,1617,1525,1437,1361,1293,1245,1217,1197,1197,1201,1201,1193,1193,1189,1177,1169,1153,1137,1125,1105,1093,1125,1241,1469,1773,2102,2466,2786,3022,3182,3282,3346,3411,3447,3455,3423,3346,3234,3086,2914,2734,2566,2418,2302,2186,2069,1961,1865,1769,1693,1601,1501,1401,1309,1221,1149,1101,1045,1001,981,997,1077,1225,1453,1725,1993,2218,2394,2506,2598,2662,2686,2482,2346,2262,2166,2057,1957,1873,1813,1769,1745,1729,1729,1737,1749,1753,1753,1749,1737,1717,1685,1649,1613,1569,1521,1473,1433,1421,1457,1565,1745,1973,2210,2406,2526,2558,2498,2354,2146,1905,1669,1457,1229,1017,833,684,568,500,444,404,372,336,284,236,168,100,60,48,64,92,132,172,224,288,384,528,741,1061,1473,1925,2370,2766,3042,3294,3499,3639,3715,3711,3643,3523,3350,3146,2942,2762,2606,2478,2342,2206,2069,1933,1805,1701,1601,1521,1457,1401,1349,1293,1221,1145,1065,1009,1013,1081,1225,1421,1621,1793,1925,2013,2090,2166,2238,2302,2342,2342,2298,2214,2094,1961,1837,1741,1673,1609,1561,1521,1489,1457,1433,1633,1701,1689,1653,1617,1589,1557,1529,1501,1481,1473,1477,1489,1521,1589,1709,1857,2005,2134,2246,2330,2386,2422,2446,2450,2450,2438,2414,2374,2318,2262,2194,2126,2061,2013,1973,1949,1933,1913,1897,1877,1861,1845,1837,1821,1813,1805,1797,1789,1785,1789,1825,1901,2013,2150,2262,2366,2454,2514,2546,2554,2542,2518,2478,2430,2370,2306,2246,2198,2146,2098,2053,2009,1965,1925,1877,1825,1777,1725,1677,1637,1597,1553,1513,1477,1445,1425,1409,1389,1377,1361,1361,1389,1453,1565,1709,1861,1997,2106,2182,2250,2302,2338,2358,2350,2330,2294,2246,2206,2170,2146,2130,2118,2110,2098,2090,2077,2069,2065,2057,2046,2030,2001,1973,1949,1913,1877,1837,1777,1745,1773,1869,2034,2226,2402,2530,2602,2646,2658,2650,2610,2538,2438,2330,2198,2077,1973,1905,1865,1857,1869,1897,1941,1989,2038,2073,2102,2126,2142,2166,2202,2230,2250,2254,2250,2266,2334,2458,2606,2778,2930,3038,3110,3138,3138,3126,3106,3074,3018,2926,2822,2690,2554,2430,2326,2238,2178,2126,2086,2049,2013,1981,1957,1933,1909,1877,1841,1801,1757,1733,1737,1813,1957,2154,2358,2534,2710,2870,3014,3142,3250,3310,3330,3294,3190,3034,2846,2678,2510,2378,2294,2250,2226,2214,2198,2174,2142,2106,2077,2057,2042,2018,1989,1965,1949,1941,1937,1937,1965,2061,2262,2558,2842,3158,3443,3643,3747,3755,3695,3603,3487,3370,3258,3154,3054,2954,2394,2073,1909,1789,1681,1593,1501,1417,1357,1305,1253,1197,1113,1001,877,761,660,584,540,528,600,773,1029,1309,1565,1817,2022,2162,2246,2278,2270,2222,2142,2034,1917,1801,1709,1617,1529,1461,1413,1377,1345,1313,1265,1217,1181,1161,1161,1165,1161,1157,1149,1137,1121,1101,1081,1081,1137,1273,1481,1677,1889,2069,2202,2286,2334,2350,2354,2346,2322,2274,2202,2130,2061,2001,1949,1905,1861,1833,1817,1821,1837,1853,1849,1829,1805,1765,1717,1645,1537,1377,1209,985,753,576,504,528,616,721,817,885,925,945,961,973,965,937,889,829,769,733,701,672,648,620,588,568,544,520,500,484,472,464,460,448,420,388,769,945,1025,1117,1281,1513,1777,2038,2226,2394,2522,2622,2698,2754,2782,2790,2770,2714,2626,2514,2410,2326,2250,2198,2158,2134,2118,2114,2110,2102,2094,2090,2086,2082,2077,2065,2053,2057,2114,2218,2406,2654,2918,3158,3350,3471,3571,3651,3695,3711,3699,3655,3591,3511,3407,3294,3186,3086,2998,2918,2854,2794,2746,2710,2686,2666,2654,2642,2618,2590,2554,2510,2470,2434,2398,2370,2342,2334,2362,2466,2650,2878,3094,3258,3403,3495,3543,3559,3543,3499,3447,3374,3290,3182,3062,2946,2826,2714,2610,2514,2426,2346,2274,2190,2102,2013,1933,1869,1813,1761,1713,1669,1633,1589,1553,1517,1521,1597,1753,1969,2162,2342,2486,2578,2630,2646,2626,2578,2290,2110,1997,1905,1829,1773,1729,1713,1713,1729,1745,1757,1765,1761,1749,1737,1733,1737,1749,1769,1797,1825,1849,1869,1889,1909,1949,2034,2182,2366,2558,2766,2938,3054,3118,3134,3114,3074,3014,2934,2838,2726,2622,2514,2410,2310,2226,2154,2098,2046,1993,1945,1909,1877,1849,1833,1813,1797,1781,1765,1753,1737,1717,1709,1741,1829,1981,2150,2354,2558,2730,2862,2954,2998,3034,3058,3062,3046,3010,2958,2902,2850,2802,2770,2758,2762,2778,2806,2838,2862,2878,2882,2870,2850,2826,2790,2746,2690,2630,2582,2570,2614,2714,2854,2978,3066,3138,3174,3186,3174,3154,3122,3090,3046,2982,2898,2794,2690,2578,2470,2374,2290,2214,2150,2090,2030,1973,1917,1465,1217,1113,1033,957,877,805,769,789,877,1041,1241,1437,1581,1673,1729,1757,1761,1745,1717,1677,1621,1545,1457,1353,1253,1177,1105,1045,997,965,945,933,929,917,901,881,857,837,817,785,749,713,676,640,616,596,596,664,817,1049,1269,1505,1709,1861,1957,2013,2042,2046,2042,2013,1965,1885,1789,1693,1581,1473,1381,1309,1253,1209,1169,1125,1077,1029,981,945,901,849,801,753,713,684,664,636,628,668,777,937,1113,1305,1465,1585,1657,1693,1697,1677,1633,1569,1489,1397,1321,1245,1177,1121,1081,1053,1041,1041,1041,1041,1041,1037,1037,1037,1033,1029,1021,1017,1013,1009,997,981,981,1029,1145,1293,1497,2290,2778,3026,3154,3198,3210,3186,3134,3050,2934,2806,2674,2534,2414,2314,2242,2194,2162,2138,2106,2077,2046,2022,2001,1981,1965,1953,1953,1953,1953,1949,1941,1953,2030,2194,2422,2662,2930,3154,3314,3407,3443,3435,3411,3362,3286,3174,3034,2890,2730,2566,2418,2282,2170,2086,2001,1925,1857,1801,1757,1725,1697,1653,1601,1541,1469,1397,1349,1349,1457,1685,2009,2358,2630,2882,3078,3210,3286,3314,3310,3290,3250,3182,3082,2954,2822,2698,2582,2482,2410,2358,2318,2286,2250,2206,2154,2098,2034,1981,1921,1857,1789,1717,1673,1685,1785,2005,2298,2606,2866,3030,3146,3218,3254,3262,3254,3222,3170,3086,2970,2826,2678,2542,2422,2306,2194,2082,1973,1665,1489,1377,1281,1193,1105,1029,977,913,849,793,745,701,656,632,632,745,941,1233,1565,1865,2138,2338,2470,2550,2598,2618,2630,2622,2586,2514,2418,2314,2198,2082,1977,1893,1837,1809,1797,1797,1801,1797,1781,1757,1725,1673,1617,1549,1481,1421,1385,1389,1473,1637,1853,2073,2222,2334,2386,2390,2354,2294,2222,2138,2030,1921,1817,1721,1641,1581,1525,1477,1433,1393,1361,1341,1325,1313,1309,1305,1297,1285,1261,1217,1161,1097,1033,997,985,1037,1185,1433,1729,2005,2218,2398,2518,2582,2598,2566,2506,2410,2294,2174,2053,1945,1873,1813,1773,1749,1741,1741,1749,1749,1745,1741,1725,1701,1657,1613,1557,1509,1469,1441,1437,1469,1573,2026,2394,2690,2926,3070,3174,3238,3270,3274,3258,3206,3118,2994,2834,2662,2494,2346,2254,2182,2130,2094,2065,2049,2038,2018,1993,1965,1937,1905,1881,1845,1805,1773,1785,1885,2049,2314,2622,2910,3130,3286,3374,3411,3431,3435,3415,3366,3294,3190,3054,2894,2734,2578,2442,2350,2274,2226,2194,2174,2150,2122,2073,2013,1941,1873,1801,1741,1697,1685,1745,1909,2158,2422,2654,2850,2974,3022,3014,2978,2926,2850,2770,2674,2562,2442,2346,2246,2158,2082,2022,1969,1933,1889,1845,1797,1753,1713,1677,1653,1617,1581,1549,1525,1505,1497,1489,1493,1549,1693,1929,2182,2474,2746,2958,3098,3182,3214,3222,3214,3186,3134,3050,2942,2814,2654,2498,2362,2250,1893,1697,1585,1501,1417,1337,1265,1221,1189,1173,1177,1197,1217,1233,1225,1205,1177,1169,1225,1365,1577,1869,2186,2466,2686,2830,2914,2966,2986,2970,2914,2822,2710,2566,2414,2258,2114,1989,1897,1817,1737,1669,1609,1557,1513,1477,1433,1389,1349,1317,1293,1281,1265,1253,1241,1233,1241,1261,1317,1445,1657,1933,2234,2450,2630,2746,2806,2818,2802,2758,2690,2594,2482,2374,2282,2206,2150,2106,2077,2053,2022,1981,1929,1857,1773,1685,1601,1521,1465,1405,1341,1277,1217,1161,1141,1165,1273,1477,1745,2026,2262,2426,2558,2638,2682,2690,2666,2610,2518,2402,2278,2162,2065,2001,1945,1885,1825,1769,1713,1669,1625,1581,1541,1505,1473,1449,1433,1421,1369,1345,1353,1413,1541,1785,2102,2430,2710,2894,2966,2978,2946,2878,2794,2686,2550,2414,2266,2106,1957,1817,1701,1609,1517,1441,1377,1325,1289,1257,1217,1161,1085,1001,917,861,801,761,789,937,1209,1497,1829,2142,2386,2566,2686,2738,2758,2746,2706,2634,2522,2386,2238,2061,1893,1741,1609,1505,1429,1353,1269,1185,1105,1021,961,889,809,729,652,588,556,528,500,492,532,676,933,1269,1737,2126,2418,2642,2786,2882,2970,3050,3118,3166,3182,3154,3094,2994,2862,2718,2574,2446,2322,2202,2090,1985,1885,1797,1721,1641,1561,1493,1433,1377,1321,1265,1249,1289,1429,1677,1933,2226,2510,2706,2822,2882,2890,2866,2810,2742,2598,2486,2386,2290,2122,2001,1893,1797,1729,1673,1633,1597,1569,1517,1469,1421,1357,1289,1229,1173,1133,1109,1081,1053,1033,1025,1053,1129,1273,1489,1745,1997,2202,2326,2410,2454,2474,2466,2438,2394,2326,2234,2126,2018,1925,1861,1825,1801,1789,1777,1761,1753,1749,1741,1737,1733,1725,1713,1697,1677,1641,1601,1557,1525,1533,1601,1733,1917,2110,2278,2398,2462,2494,2490,2454,2382,2294,2206,2106,2009,1925,1857,1805,1781,1765,1757,1757,1757,1753,1749,1733,1709,1681,1657,1629,1605,1581,1545,1525,1549,1661,1845,2061,2314,2538,2702,2806,2854,2862,2850,2810,2738,2646,2538,2434,2318,2194,2086,1989,1917,1857,1813,1761,1709,1661,1617,1589,1573,1553,1549,1561,1553,1557,1585,1673,1853,2130,2462,2798,3042,3250,3411,3507,3555,3563,3535,3475,3386,3270,3130,2982,2842,2714,2594,2490,2414,2358,2318,2278,2230,2170,2102,2030,1949,1897,1845,1801,1757,1733,1749,1821,1985,2226,2498,2738,2914,3018,3062,3078,3074,3050,3006,2946,2866,2750,2614,2470,2350,2282,2278,2334,2442,2574,2702,2810,2874,2910,2906,2870,2810,2750,2698,2658,2646,2682,2782,2970,3218,3479,3795,4011,4075,4091,4095,4095,4095,4095,4095,4095,4095,4095,4095,4095,4095,4095,4095,4095,4095,4095,4095,4095,4095,4095,4095,4095,4095,4095,4095,4055,3843,3547,3274,3078,2974,2954,2966,2998,3018,2998,2946,2878,2818,2778,2746,2714,2666,2598,2282,1685,1493,1405,1337,1273,1205,1145,1081,1025,973,933,897,873,841,805,761,709,656,624,600,612,664,749,845,933,1001,1053,1081,1089,1081,1061,1037,993,941,893,849,813,801,789,785,785,793,801,817,821,821,817,809,797,789,781,765,753,769,825,921,1037,1173,1297,1393,1457,1497,1513,1521,1517,1501,1477,1433,1393,1341,1285,1229,1181,1137,1097,1069,1041,1013,981,949,921,897,865,837,813,793,789,809,869,969,1093,1225,1341,1425,1505,1565,1601,1613,1593,1553,1509,1461,1425,1405,1417,1445,1493,1553,1621,1677,1709,1701,1665,1597,1525,1469,1449,1477,1537,1645,1805,2005,2238,2482,2662,2822,2946,3050,3162,3326,3511,3679,3867,4011,4075,4091,4091,4027,3887,3687,3467,3258,3086,2958,2866,2818,2806,2834,2882,2914,2954,2986,2994,2990,2974,2954,2922,2898,2870,2838,2806,2782,2766,2762,2758,2746,2726,2698,2662,2622,2582,2542,2502,2458,2410,2358,2310,2254,2198,2130,2061,1985,1897,1805,1721,1653,1605,1577,1557,1549,1549,1557,1581,1613,1661,1725,1789,1845,1897,1937,1981,2030,2077,2122,2162,2198,2226,2254,2282,2306,2330,2358,2374,2398,2410,2410,2394,2354,2314,2342,2382,2038,981,244,60,12,0,0,0,0,0,0,0,0,0,0,0,0,0,0,0,0,0,0,0,0,0,0,0,0,0,0,0,0,0,252,801,917,929,937,953,993,1045,1101,1157,1213,1265,1321,1377,1429,1481,1525,1569,1605,1641,1673,1713,1757,1801,1853,1901,1949,2001,2046,2090,2126,2162,2194,2222,2246,2266,2286,2302,2318,2346,2386,2426,2470,2502,2522,2538,2550,2554,2558,2554,2550,2538,2522,2502,2482,2458,2434,2414,2394,2382,2370,2362,2354,2350,2342,2338,2330,2322,2310,2302,2294,2282,2274,2266,2274,2290,2314,2350,2382,2406,2418,2426,2430,2430,2426,2422,2414,2402,2390,2374,2358,2342,2330,2318,2310,2302,2298,2290,2286,2278,2274,2270,2262,2258,2254,2246,2242,2242,2242,2254,2278,2314,2346,2370,2394,2410,2418,2422,2422,2414,2406,2398,2382,2366,2350,2338,2326,2318,2422,2666,2722,2734,2730,2726,2722,2714,2710,2702,2698,2690,2682,2678,2678,2694,2722,2766,2814,2854,2886,2910,2918,2922,2922,2918,2914,2902,2886,2870,2846,2826,2802,2786,2770,2758,2750,2742,2734,2730,2726,2718,2714,2706,2698,2690,2682,2682,2682,2698,2726,2770,2818,2854,2886,2906,2918,2922,2922,2922,2914,2906,2890,2874,2854,2834,2814,2798,2782,2770,2762,2754,2746,2738,2734,2726,2722,2714,2714,2706,2702,2694,2690,2690,2698,2722,2762,2810,2858,2898,2926,2942,2950,2954,2954,2954,2946,2934,2918,2902,2882,2858,2838,2826,2810,2798,2790,2782,2774,2766,2758,2750,2742,2734,2730,2722,2718,2710,2702,2698,2698,2714,2738,2778,2818,2858,2886,2902,2866,2766,2714,2650,2562,2450,2330,2186,2030,1881,1753,1641,1565,1513,1465,1421,1377,1329,1293,1273,1241,1213,1185,1157,1129,1113,1093,1065,1053,1077,1181,1349,1609,1917,2210,2434,2582,2658,2674,2646,2582,2490,2386,2274,2170,2053,1949,1869,1813,1781,1769,1757,1745,1729,1713,1697,1689,1677,1653,1625,1593,1553,1529,1501,1493,1549,1705,1965,2262,2530,2778,2958,3050,3086,3074,3038,2982,2898,2790,2654,2502,2370,2238,2114,2009,1933,1873,1829,1781,1729,1677,1621,1565,1509,1465,1413,1361,1309,1261,1257,1317,1485,1749,2069,2374,2614,2758,2854,2910,2926,2914,2874,2818,2734,2614,2470,2314,2154,2018,1913,1817,1741,1681,1629,1585,1549,1501,1457,1405,1345,1297,1273,1237,1197,1177,1221,1373,1593,1905,2242,2534,2750,2890,2962,2986,2986,2966,2922,2858,2762,2650,2514,2362,2222,2094,1993,1921,1861,1805,1757,1709,1669,1633,1597,1553,1509,1465,1421,1393,1377,1353,1329,1305,1313,1397,1569,1865,2226,2586,2882,3086,3198,3274,3306,3306,3282,3226,3150,3042,2906,2754,2598,2450,2338,2238,2150,2086,2030,1977,1929,1881,1825,1769,1717,1657,1609,1561,1501,1437,1373,1317,1305,1357,1509,1753,2038,2302,2506,2614,2678,2698,2678,2626,2542,2446,2342,2210,2073,1941,1825,1737,1681,1629,1589,1561,1533,1509,1493,1473,1445,1413,1381,1357,1341,1313,1285,1253,1229,1237,1309,1453,1689,1977,2262,2490,2642,2662,2570,2530,2474,2402,2306,2214,2106,1997,1897,1825,1781,1757,1737,1725,1713,1701,1681,1657,1641,1617,1593,1565,1541,1521,1509,1489,1461,1449,1501,1633,1833,2110,2398,2642,2822,2934,2978,2986,2966,2918,2846,2746,2642,2518,2390,2266,2158,2069,2005,1961,1917,1873,1833,1785,1737,1693,1645,1593,1541,1489,1437,1397,1357,1357,1445,1633,1901,2146,2394,2598,2730,2802,2834,2830,2806,2770,2702,2602,2466,2326,2190,2049,1921,1817,1733,1665,1621,1569,1521,1473,1421,1373,1337,1293,1241,1193,1141,1109,1129,1213,1401,1677,1985,2274,2482,2614,2702,2750,2770,2770,2738,2686,2602,2490,2362,2222,2090,1985,1885,1805,1737,1689,1641,1605,1577,1537,1493,1437,1365,1317,1281,1245,1205,1173,1169,1245,1397,1665,2013,2358,2646,2854,2958,3030,3066,3074,3058,3014,2946,2842,2706,2550,2390,2254,2142,2061,1989,1925,1865,1805,1753,1709,1661,1605,1549,1493,1437,1397,1353,1309,1269,1229,1193,1193,1261,1433,1709,2030,2338,2566,2706,2802,2846,2846,2814,2754,2674,2562,2426,2274,2118,1969,1853,1753,1665,1597,1541,1493,1461,1425,1385,1345,1301,1253,1213,1181,1145,1105,1065,1033,1005,1001,1029,1133,1329,1593,1881,2098,2282,2406,2466,2466,2422,2354,2258,2142,2026,1917,1817,1741,1693,1661,1641,1633,1625,1617,1613,1601,1581,1553,1529,1509,1497,1485,1469,1445,1417,1393,1409,1493,1681,1969,2294,2598,2818,2946,3026,3062,3058,3026,2970,2890,2782,2654,2514,2382,2270,2186,2118,2061,2013,1969,1925,1885,1837,1785,1737,1689,1637,1597,1549,1501,1445,1409,1425,1521,1701,1973,2282,2558,2770,2898,2954,2982,2974,2942,2886,2802,2706,2582,2434,2274,2126,1997,1909,1833,1769,1709,1649,1597,1545,1505,1449,1393,1341,1293,1253,1209,1161,1133,1165,1305,1553,1821,2130,2418,2634,2782,2866,2894,2898,2886,2850,2782,2682,2558,2426,2278,2134,1997,1889,1809,1753,1705,1657,1605,1553,1497,1453,1405,1357,1317,1277,1237,1209,1181,1161,1197,1333,1585,1901,2210,2526,2782,2958,3066,3114,3122,3122,3098,3046,2954,2838,2706,2558,2410,2278,2166,2082,2022,1961,1897,1833,1745,1633,1569,1509,1449,1397,1345,1293,1249,1213,1161,1109,1069,1077,1161,1341,1625,1957,2270,2510,2670,2742,2770,2766,2734,2678,2594,2494,2362,2198,2026,1861,1717,1605,1525,1453,1397,1349,1305,1269,1249,1225,1205,1181,1149,1105,1065,1001,917,825,745,701,725,837,1053,1349,1669,1953,2166,2302,2394,2430,2414,2350,2258,2158,2038,1921,1821,1745,1685,1649,1617,1573,1529,1489,1453,1425,1397,1357,1317,1289,1261,1237,1217,1185,1153,1129,1129,1181,1313,1549,1857,2178,2450,2654,2766,2850,2902,2926,2910,2850,2750,2610,2446,2286,2138,2018,1933,1873,1829,1793,1757,1725,1705,1693,1673,1645,1605,1553,1489,1425,1345,1257,1185,1157,1221,1369,1697,2158,2506,2774,2966,3066,3138,3178,3190,3178,3130,3046,2938,2798,2650,2506,2386,2290,2222,2162,2118,2082,2046,2005,1973,1941,1905,1869,1829,1789,1761,1721,1681,1665,1709,1857,2082,2338,2630,2894,3086,3210,3278,3298,3298,3278,3230,3154,3042,2922,2782,2638,2502,2386,2286,2206,2134,2057,1993,1933,1881,1833,1797,1749,1705,1657,1609,1565,1529,1485,1449,1417,1393,1365,1361,1389,1493,1701,2005,2354,2630,2882,3078,3214,3302,3350,3366,3354,3322,3262,3166,3042,2914,2794,2678,2582,2502,2434,2378,2334,2286,2246,2206,2162,2118,2073,2030,1981,1941,1897,1853,1821,1777,1737,1717,1761,1885,2077,2290,2530,2730,2874,2942,2950,2922,2874,2802,2702,2494,2150,1957,1785,1625,1485,1377,1297,1261,1237,1225,1221,1217,1209,1197,1189,1177,1169,1157,1149,1149,1153,1173,1201,1245,1293,1345,1393,1457,1577,1777,2073,2418,2706,2994,3238,3423,3563,3663,3723,3747,3759,3723,3647,3519,3366,3214,3062,2938,2858,2810,2790,2762,2726,2674,2594,2490,2370,2266,2158,2057,1965,1873,1781,1697,1633,1617,1673,1813,2001,2178,2306,2410,2474,2486,2458,2398,2322,2222,2094,1957,1821,1697,1609,1529,1461,1409,1357,1305,1273,1241,1205,1173,1145,1117,1089,1069,1037,1005,981,969,977,1025,1153,1381,1685,2018,2314,2514,2674,2794,2874,2934,2970,2970,2950,2898,2822,2722,2606,2494,2390,2294,2214,2158,2106,2053,2009,1901,1737,1657,1589,1525,1473,1421,1369,1321,1289,1285,1321,1425,1585,1773,1941,2065,2138,2166,2174,2162,2142,2110,2065,2009,1933,1845,1749,1653,1569,1505,1453,1409,1369,1333,1301,1277,1249,1221,1193,1177,1165,1157,1149,1137,1121,1109,1101,1105,1109,1113,1121,1157,1253,1417,1593,1805,2005,2166,2278,2342,2370,2382,2382,2370,2338,2282,2210,2122,2018,1913,1821,1741,1677,1629,1581,1541,1497,1453,1413,1381,1337,1293,1245,1201,1153,1117,1073,1025,985,981,1029,1121,1273,1457,1629,1765,1865,1921,1941,1945,1929,1889,1829,1761,1689,1605,1533,1477,1437,1417,1405,1401,1393,1389,1389,1385,1385,1377,1373,1365,1353,1333,1321,1317,1313,1305,1293,1337,1461,1545,1689,1925,2226,2526,2778,2922,3022,3070,3082,3070,3038,2986,2914,2818,2698,2566,2446,2342,2262,2194,2134,2086,2038,1993,1945,1889,1825,1757,1685,1617,1569,1513,1461,1409,1361,1329,1337,1421,1601,1861,2146,2410,2578,2706,2782,2814,2818,2794,2746,2674,2566,2434,2294,2154,2034,1945,1865,1801,1757,1721,1689,1665,1633,1593,1545,1489,1437,1401,1357,1313,1273,1245,1253,1329,1493,1761,2090,2414,2686,2874,2982,3054,3078,3062,3022,2966,2902,2822,2730,2630,2518,2414,2334,2254,2186,2122,2053,1973,1885,1793,1689,1585,1497,1413,1337,1273,1197,1125,1053,989,937,921,941,1045,1253,1549,1877,2134,2358,2522,2630,2690,2718,2722,2702,2658,2594,2498,2374,2242,2118,1993,1881,1789,1717,1653,1609,1561,1505,1441,1369,1289,1225,1149,1081,1037,1021,1025,1033,1045,1045,1045,1073,1177,1369,1609,1905,2186,2402,2550,2626,2654,2658,2642,2610,2550,2466,2378,2274,2170,2094,2049,2030,2026,2022,2013,1997,1969,1937,1901,1873,1837,1805,1773,1741,1709,1681,1637,1593,1545,1517,1525,1581,1721,1933,2174,2398,2566,2662,2714,2726,2710,2678,2638,2594,2538,2458,2358,2254,2158,2077,2013,1953,1905,1865,1829,1797,1773,1749,1717,1681,1637,1589,1553,1505,1449,1389,1349,1361,1457,1629,1885,2162,2406,2590,2698,2750,2770,2766,2738,2690,2610,2518,2394,2258,2118,1985,1869,1789,1705,1629,1565,1505,1465,1461,1433,1385,1329,1269,1209,1161,1121,1081,1073,1149,1337,1629,1917,2226,2486,2678,2798,2870,2898,2906,2894,2846,2766,2646,2518,2374,2222,2086,1973,1885,1821,1777,1733,1689,1649,1605,1569,1541,1509,1477,1445,1409,1373,1357,1349,1397,1557,1829,2178,2478,2766,2998,3154,3242,3286,3302,3290,3254,3194,3094,2962,2806,2646,2466,2302,2178,2090,2030,1993,1953,1909,1857,1793,1725,1669,1609,1545,1489,1437,1389,1365,1385,1473,1669,1961,2290,2578,2782,2938,3034,3082,3094,3082,3038,2970,2870,2738,2578,2414,2282,2158,2046,1957,1877,1797,1729,1669,1601,1541,1493,1449,1409,1365,1301,1229,1153,1077,1009,973,961,1025,1205,1505,1869,2174,2446,2602,2622,2646,2646,2622,2566,2482,2374,2258,2146,2061,1985,1921,1877,1841,1809,1785,1757,1737,1713,1693,1673,1653,1633,1605,1569,1529,1493,1465,1445,1453,1517,1669,1905,2182,2402,2606,2762,2850,2886,2866,2814,2726,2614,2490,2366,2254,2170,2094,2034,1993,1961,1937,1917,1897,1873,1845,1825,1809,1813,1829,1853,1873,1885,1889,1909,1977,2138,2402,2722,3034,3286,3463,3551,3599,3595,3567,3519,3443,3346,3186,3054,2894,2738,2606,2486,2386,2310,2246,2194,2150,2090,2013,1917,1813,1713,1633,1585,1545,1509,1489,1505,1589,1753,2013,2310,2578,2782,2914,2970,2986,2978,2946,2902,2850,2782,2682,2558,2414,2274,2162,2086,2018,1953,1885,1817,1749,1417,1249,1161,1101,1057,1029,1009,997,969,937,929,993,1169,1461,1821,2073,2274,2394,2458,2490,2518,2526,2506,2462,2382,2282,2154,2018,1889,1781,1685,1609,1521,1433,1361,1301,1257,1213,1169,1109,1037,973,917,877,853,825,801,773,741,721,733,813,1005,1289,1609,1897,2086,2226,2318,2374,2406,2422,2418,2386,2322,2214,2082,1941,1821,1729,1649,1585,1525,1469,1417,1377,1333,1289,1253,1221,1197,1181,1157,1133,1105,1069,1033,1009,997,1013,1085,1233,1449,1685,1885,2069,2202,2282,2314,2306,2274,2218,2138,2034,1913,1793,1705,1637,1589,1557,1533,1501,1473,1441,1417,1401,1385,1365,1345,1321,1289,1265,1245,1221,1201,1185,1185,1341,1721,2030,2350,2594,2810,2962,3046,3070,3058,3022,2974,2902,2810,2690,2554,2418,2286,2178,2094,2030,1973,1921,1877,1825,1757,1689,1625,1565,1525,1477,1429,1377,1325,1273,1257,1293,1417,1645,1937,2230,2466,2626,2746,2814,2842,2838,2814,2774,2714,2630,2514,2378,2234,2118,2005,1901,1817,1749,1693,1653,1613,1569,1505,1441,1361,1281,1225,1161,1109,1073,1049,1033,1029,1025,1069,1209,1469,1829,2162,2498,2798,2986,3098,3162,3186,3194,3190,3154,3082,2966,2842,2690,2534,2386,2270,2186,2130,2090,2053,2009,1965,1909,1865,1817,1761,1709,1657,1597,1557,1521,1493,1441,1405,1389,1429,1585,1777,2146,2470,2690,2894,2986,3030,3034,3014,2958,2878,2718,2602,2438,2282,2130,1997,1893,1817,1749,1701,1661,1629,1605,1581,1553,1521,1493,1465,1433,1413,1385,1357,1329,1305,1277,1261,1241,1245,1313,1477,1729,2001,2238,2458,2610,2694,2730,2726,2698,2646,2570,2474,2358,2238,2142,2049,1973,1921,1893,1873,1857,1837,1813,1785,1757,1721,1685,1661,1621,1581,1537,1497,1461,1437,1405,1393,1429,1537,1725,1921,2154,2370,2530,2626,2658,2646,2606,2534,2438,2322,2198,2098,2005,1933,1885,1853,1833,1821,1813,1797,1781,1753,1721,1701,1685,1665,1637,1609,1569,1529,1501,1489,1529,1669,1901,2198,2446,2678,2862,2978,3030,3046,3034,2998,2950,2866,2742,2574,2386,2190,1957,1689,1413,1141,905,749,608,500,805,933,953,961,957,945,929,901,877,897,977,1133,1353,1589,1793,1941,2034,2102,2150,2186,2210,2214,2206,2170,2106,2018,1913,1813,1741,1681,1633,1605,1593,1593,1605,1625,1637,1649,1653,1653,1653,1649,1633,1609,1581,1577,1637,1757,1961,2234,2514,2758,2938,3042,3122,3182,3226,3258,3266,3242,3186,3098,2986,2858,2742,2646,2574,2518,2474,2442,2410,2382,2354,2322,2294,2266,2234,2198,2166,2130,2094,2065,2053,2094,2178,2346,2570,2798,2990,3122,3190,3218,3230,3226,3206,3170,3118,3042,2934,2810,2682,2558,2454,2378,2310,2258,2226,2198,2170,2150,2118,2082,2042,2005,1969,1941,1917,1885,1849,1801,1745,1693,1653,1625,1653,1761,1949,2178,2322,2462,2578,2654,2694,2698,2678,2634,2574,2502,2426,2346,2282,2234,2190,2158,2142,2138,2138,2142,2142,2138,2130,2114,2090,2069,2046,2009,1977,1945,1925,1921,1941,2005,2122,2278,2450,2598,2706,2794,2850,2882,2886,2870,2830,2774,2702,2622,2550,2490,2446,2410,2386,2366,2346,2326,2302,2274,2242,2210,2174,2138,2106,2065,2018,1957,1897,1853,1841,1885,1997,2166,2350,2518,2634,2702,2742,2758,2754,2742,2714,2678,2626,2554,2470,2382,2298,2234,2174,2126,2086,2046,2009,1981,1953,1925,1897,1869,1833,1801,1773,1733,1701,1693,1741,1857,1997,2178,2358,2502,2594,2646,2666,2674,2670,2658,2626,2574,2506,2430,2334,2242,2158,2090,2042,2009,1981,1949,1601,1413,1321,1277,1233,1193,1157,1117,1073,1041,1005,1009,1097,1313,1637,1985,2286,2554,2742,2846,2902,2914,2906,2882,2838,2758,2642,2486,2338,2170,2009,1877,1777,1697,1649,1601,1557,1513,1461,1401,1353,1297,1245,1197,1149,1097,1053,1013,961,937,985,1153,1413,1713,2046,2326,2518,2626,2682,2698,2706,2702,2674,2614,2514,2406,2278,2146,2030,1941,1881,1841,1809,1777,1749,1717,1677,1641,1597,1553,1505,1465,1433,1405,1389,1361,1333,1321,1357,1489,1681,1969,2294,2582,2794,2926,2982,2990,2966,2914,2826,2710,2582,2446,2310,2190,2094,2030,1985,1957,1925,1893,1857,1817,1773,1733,1689,1641,1589,1537,1485,1437,1401,1349,1305,1305,1393,1585,1897,2250,2570,2814,2978,3070,3098,3106,3086,3038,2954,2842,2722,2582,2422,2266,2130,2018,1945,1877,1821,1769,1717,1661,1613,1569,1509,1453,1409,1369,1341,1329,1325,1389,1553,1817,2134,2394,2626,2798,2898,2946,2954,2934,2906,2854,2774,2662,2522,2374,2242,2106,1997,1909,1845,1793,1749,1701,1653,1601,1557,1517,1485,1445,1401,1361,1321,1285,1253,1213,1165,1145,1205,1397,1685,2005,2366,2674,2898,3042,3114,3150,3178,3186,3174,3126,3030,2902,2738,2554,2374,2222,2106,2038,1989,1957,1937,1909,1877,1841,1801,1753,1709,1665,1625,1581,1541,1493,1477,1537,1701,1945,2182,2438,2658,2814,2910,2950,2942,2898,2810,2682,2522,2334,2154,1997,1841,1709,1537,1425,1353,1297,1237,1177,1113,1049,989,933,869,809,757,709,668,644,608,564,520,480,452,472,560,761,1069,1429,1769,2026,2190,2298,2346,2350,2326,2278,2210,2110,1985,1857,1741,1645,1585,1545,1517,1493,1469,1437,1417,1389,1353,1313,1273,1237,1205,1181,1145,1105,1073,1073,1129,1261,1485,1769,2057,2306,2486,2586,2646,2666,2654,2606,2526,2430,2302,2166,2034,1929,1853,1809,1777,1745,1721,1689,1653,1621,1597,1565,1533,1493,1453,1413,1381,1337,1293,1285,1369,1569,1813,2126,2430,2670,2818,2898,2922,2918,2898,2858,2798,2710,2594,2462,2302,2134,1981,1857,1761,1705,1653,1605,1557,1501,1445,1397,1341,1277,1209,1141,1077,1029,1297,1441,1573,1765,2022,2274,2478,2658,2778,2850,2886,2898,2890,2866,2822,2746,2638,2514,2406,2290,2190,2110,2046,1989,1945,1901,1857,1817,1777,1737,1701,1669,1633,1589,1541,1501,1501,1561,1717,1957,2242,2514,2734,2862,2958,3018,3054,3066,3062,3034,2982,2902,2790,2654,2514,2394,2290,2194,2114,2049,1997,1957,1921,1877,1825,1777,1733,1693,1665,1641,1605,1565,1517,1469,1441,1413,1429,1525,1729,2013,2298,2534,2738,2882,2970,3010,3018,3006,2974,2918,2834,2726,2594,2466,2330,2194,2073,1981,1909,1865,1825,1789,1753,1721,1685,1661,1633,1605,1573,1541,1505,1473,1449,1425,1429,1493,1633,1829,2046,2286,2502,2662,2762,2814,2826,2810,2766,2694,2518,2354,2234,2122,2030,1969,1925,1897,1873,1853,1829,1793,1753,1709,1669,1633,1597,1557,1521,1489,1449,1421,1381,1337,1329,1397,1577,1809,2126,2458,2738,2942,3062,3114,3118,3102,3070,3006,2914,2794,2662,2510,2374,2262,2182,2126,2086,2057,2022,1977,1929,1873,1825,1769,1713,1657,1605,1553,1509,1465,1409,1349,1329,1393,1557,1805,2126,2442,2698,2878,2990,3038,3058,3054,3026,2970,2878,2770,2618,2450,2294,2158,2049,1973,1917,1869,1817,1761,1709,1665,1633,1593,1545,1497,1445,1393,1349,1289,1245,1245,1337,1545,1801,2126,2450,2718,2898,3006,3046,3070,3078,3070,3034,2962,2854,2722,2558,2390,2234,2102,2001,1925,1853,1785,1725,1665,1601,1545,1353,1205,1085,973,873,809,733,644,536,396,208,56,12,0,0,0,0,8,140,348,540,729,921,1125,1317,1525,1721,1885,2009,2094,2126,2126,2077,1989,1877,1761,1669,1605,1557,1521,1497,1501,1537,1593,1681,1777,1857,1905,1913,1901,1873,1837,1813,1833,1941,2114,2402,2742,3062,3314,3475,3551,3567,3551,3503,3423,3302,3154,2994,2806,2610,2426,2266,2142,2057,1989,1945,1905,1865,1825,1793,1761,1721,1673,1625,1581,1545,1505,1457,1405,1353,1305,1261,1233,1217,1257,1389,1637,1941,2234,2526,2754,2898,2978,3006,2990,2946,2858,2738,2594,2442,2314,2198,2102,2034,1985,1949,1913,1881,1841,1805,1761,1717,1681,1645,1597,1553,1509,1841,1977,2005,2005,2018,2073,2174,2310,2430,2554,2658,2730,2766,2778,2766,2738,2698,2642,2570,2494,2426,2366,2310,2266,2238,2214,2194,2174,2158,2138,2118,2098,2073,2053,2030,2005,1977,1953,1929,1925,1949,2030,2162,2330,2494,2626,2710,2770,2802,2818,2818,2810,2790,2754,2702,2626,2542,2454,2382,2306,2246,2194,2154,2122,2094,2065,2038,2013,1985,1953,1921,1885,1829,1773,1721,1689,1701,1761,1877,2038,2202,2342,2450,2514,2562,2594,2614,2630,2634,2622,2594,2542,2474,2398,2322,2250,2198,2150,2122,2098,2082,2065,2049,2030,2013,1993,1973,1949,1929,1909,1897,1921,1997,2134,2278,2442,2594,2710,2782,2822,2838,2838,2834,2814,2782,2730,2666,2594,2482,2354,2238,2142,2073,2026,1977,1925,1873,1829,1789,1757,1721,1673,1625,1573,1517,1465,1433,1429,1517,1709,1993,2278,2514,2714,2846,2906,2922,2910,2886,2850,2794,2710,2590,2446,2314,2178,2049,1941,1857,1793,1741,1697,1653,1605,1561,1509,1469,1433,1393,1353,1321,1293,1273,1261,1245,1253,1325,1485,1729,1977,2250,2486,2654,2754,2806,2810,2794,2750,2674,2566,2438,2318,2214,2122,2053,2005,1977,1957,1941,1921,1893,1869,1841,1805,1773,1729,1673,1617,1573,1529,1505,1481,1477,1525,1661,1889,2158,2406,2646,2826,2934,2982,2990,2962,2910,2842,2750,2642,2522,2418,2314,2230,2166,2126,2102,2077,2053,2026,1993,1953,1905,1861,1817,1765,1713,1665,1517,1429,1393,1409,1529,1753,2049,2350,2562,2730,2834,2882,2890,2866,2822,2758,2670,2550,2402,2234,2082,1953,1833,1737,1661,1593,1537,1493,1437,1377,1317,1261,1205,1157,1097,1033,973,953,1013,1157,1413,1741,2057,2310,2482,2566,2610,2626,2618,2594,2542,2458,2350,2206,2042,1881,1737,1625,1553,1489,1437,1389,1341,1297,1261,1221,1173,1125,1081,1041,1013,977,945,909,877,857,889,1013,1265,1625,2018,2370,2626,2778,2886,2942,2966,2966,2946,2906,2838,2730,2586,2426,2262,2134,2013,1913,1841,1785,1737,1693,1649,1601,1549,1493,1441,1393,1349,1301,1249,1213,1213,1285,1425,1669,1981,2290,2538,2706,2786,2822,2826,2798,2742,2658,2550,2422,2334,2202,2061,1949,1865,1817,1769,1717,1665,1605,1541,1485,1413,1333,1253,1177,1113,1077,1033,989,949,905,853,821,769,717,672,676,769,961,1233,1589,1925,2198,2374,2474,2522,2542,2530,2494,2434,2346,2258,2154,2049,1965,1905,1869,1857,1857,1853,1837,1817,1793,1773,1745,1717,1689,1661,1625,1593,1569,1533,1497,1469,1473,1529,1633,1821,2069,2334,2558,2710,2786,2818,2810,2762,2674,2558,2434,2322,2206,2110,2038,1989,1961,1941,1913,1877,1829,1793,1785,1809,1865,1933,1985,2009,1989,1945,1873,1781,1709,1689,1773,1957,2194,2494,2766,2970,3094,3138,3134,3098,3042,2970,2874,2754,2630,2486,2338,2194,2069,1973,1909,1849,1789,1737,1681,1749,1757,1733,1685,1629,1577,1525,1481,1445,1413,1413,1489,1657,1885,2118,2354,2542,2662,2726,2750,2750,2738,2714,2662,2590,2494,2398,2282,2162,2049,1957,1885,1837,1801,1761,1725,1685,1641,1609,1581,1541,1497,1453,1413,1381,1385,1445,1593,1829,2106,2370,2550,2694,2790,2850,2878,2882,2858,2818,2750,2658,2546,2422,2306,2206,2118,2049,1997,1957,1921,1893,1861,1821,1777,1729,1685,1653,1617,1581,1545,1517,1489,1465,1449,1437,1469,1589,1805,2077,2342,2606,2810,2942,3018,3054,3054,3050,3030,2994,2930,2838,2738,2614,2486,2362,2258,2178,2122,2077,2038,1997,1953,1905,1857,1813,1765,1713,1661,1609,1565,1529,1485,1453,1449,1505,1633,1805,2034,2178,2354,2498,2586,2610,2606,2570,2510,2422,2310,2202,2106,2013,1937,1877,1833,1809,1793,1777,1753,1733,1705,1677,1657,1629,1605,1577,1553,1529,1513,1485,1449,1433,1465,1593,1805,2065,2378,2666,2874,3006,3066,3078,3066,3026,2954,2858,2730,2610,2486,2374,2278,2206,2158,2122,2082,2038,1997,1949,1905,1857,1809,1749,1677,1601,1533,1477,1433,1393,1389,1461,1637,1909,2174,2454,2690,2854,2938,2966,2962,2942,2890,2802,2670,2510,2342,2190,2038,1913,1821,1757,1709,1673,1625,1565,1477,1373,1265,1189,1117,1057,1009,969,933,921,941,1041,1257,1569,1921,2194,2430,2598,2702,2762,2790,2794,2778,2742,2670,2562,2418,2266,2126,1989,1881,1809,1773,1793,1809,1809,1797,1781,1765,1745,1733,1713,1697,1677,1653,1625,1601,1573,1553,1581,1709,1949,2246,2530,2806,3002,3106,3122,3090,3034,2974,2914,2846,2758,2654,2554,2442,2326,2214,2118,2038,1973,1925,1873,1829,1785,1741,1701,1673,1641,1609,1581,1561,1541,1529,1513,1493,1489,1533,1677,1873,2162,2474,2750,2954,3090,3158,3178,3178,3162,3122,3058,2970,2862,2722,2570,2426,2298,2194,2122,2061,2018,1989,1965,1937,1913,1885,1841,1785,1717,1653,1609,1561,1521,1481,1445,1413,1385,1373,1389,1469,1657,1941,2250,2518,2766,2942,3042,3082,3074,3034,2974,2886,2778,2654,2518,2398,2282,2182,2106,2049,2005,1973,1945,1909,1865,1817,1773,1729,1689,1641,1389,1245,1165,1105,1069,1025,981,937,909,925,1009,1189,1441,1717,1957,2126,2222,2254,2246,2202,2126,2022,1905,1789,1653,1533,1437,1369,1329,1309,1297,1281,1261,1241,1217,1201,1173,1137,1097,1061,1029,1001,977,945,925,953,1073,1281,1545,1857,2146,2362,2498,2570,2586,2582,2554,2498,2406,2282,2154,2005,1857,1721,1609,1525,1461,1413,1357,1305,1253,1197,1149,1109,1065,1017,969,913,853,801,765,805,961,1245,1605,1909,2194,2410,2554,2638,2686,2702,2698,2670,2610,2518,2394,2266,2138,2013,1893,1797,1721,1661,1613,1565,1521,1477,1433,1389,1357,1317,1269,1221,1165,1109,1085,1105,1221,1461,1797,2158,2458,2658,2814,2914,2970,2994,3038,3034,2998,2922,2802,2654,2490,2354,2230,2130,2049,1989,1941,1905,1853,1793,1725,1661,1605,1561,1529,1489,1441,1393,1345,1309,1285,1257,1249,1309,1469,1733,2005,2318,2610,2830,2982,3070,3102,3126,3142,3142,3118,3058,2974,2870,2754,2634,2526,2430,2342,2266,2186,2106,2013,1921,1829,1761,1685,1605,1533,1461,1397,1349,1297,1245,1197,1157,1133,1157,1253,1441,1689,1953,2182,2346,2446,2510,2538,2518,2470,2402,2318,2210,2102,2001,1921,1861,1825,1809,1793,1777,1749,1709,1677,1633,1585,1529,1469,1401,1341,1285,1205,1109,1001,