2365,2327,2269,2197,2096,1999,1922,1871,1846,1840,1834,1821,1803,1782,1756,1738,1713,1684,1654,1629,1609,1590,1560,1554,1623,1797,2051,2300,2478,2582,2594,2547,2481,2430,2398,2376,2341,2276,2177,2067,1990,1929,1901,1896,1899,1898,1889,1865,1832,1796,1766,1740,1718,1702,1677,1647,1612,1596,1632,1750,1950,2210,2507,2697,2750,2714,2635,2561,2516,2485,2440,2372,2268,2140,2018,1933,1892,1883,1886,1880,1866,1842,1806,1762,1721,1677,1641,1612,1584,1559,1532,1512,1543,1699,1993,2362,2652,2868,2958,2942,2866,2791,2734,2690,2645,2582,2484,2354,2221,2115,2032,1982,1956,1949,1943,1933,1906,1869,1829,1785,1749,1728,1704,1678,1639,1603,1615,1710,1944,2292,2645,2904,3026,3032,2978,2904,2828,2773,2728,2671,2587,2467,2324,2193,2096,2039,2009,1987,1964,1945,1923,1888,1857,1819,1776,1740,1703,1663,1621,1584,1569,1638,1843,2161,2485,2730,2902,2957,2917,2830,2754,2700,2656,2607,2530,2414,2276,2159,2055,1984,1950,1936,1923,1914,1895,1861,1820,1768,1652,1460,1389,1341,1297,1255,1226,1245,1357,1619,1986,2341,2581,2680,2673,2609,2535,2471,2421,2362,2299,2198,2064,1921,1798,1714,1678,1678,1681,1670,1641,1602,1563,1527,1478,1433,1396,1362,1317,1277,1235,1220,1281,1478,1815,2136,2440,2629,2676,2625,2539,2461,2404,2364,2323,2247,2129,1992,1867,1754,1685,1652,1625,1587,1553,1500,1443,1385,1319,1261,1227,1189,1147,1093,1030,970,952,1023,1235,1588,1969,2254,2381,2380,2305,2202,2114,2055,2008,1954,1871,1754,1613,1474,1369,1320,1300,1295,1292,1274,1238,1210,1169,1120,1070,1024,990,964,930,879,829,837,974,1243,1566,1921,2177,2288,2254,2147,2068,1984,1925,1813,1679,1574,1462,1576,1634,1657,1676,1682,1672,1658,1636,1614,1608,1611,1611,1609,1598,1576,1553,1555,1627,1837,2176,2554,2856,2996,3025,2971,2879,2790,2728,2682,2629,2557,2451,2334,2224,2145,2093,2066,2055,2039,2015,1980,1949,1909,1867,1818,1781,1752,1733,1700,1657,1626,1665,1838,2120,2434,2755,2960,3016,2969,2882,2796,2730,2683,2635,2568,2462,2351,2218,2098,2021,1989,1981,1977,1960,1926,1883,1842,1797,1754,1715,1672,1640,1610,1573,1541,1542,1629,1860,2208,2564,2811,2918,2919,2848,2761,2688,2638,2598,2546,2461,2339,2205,2082,2000,1953,1938,1941,1933,1909,1875,1838,1793,1756,1721,1684,1656,1626,1583,1542,1514,1561,1734,1972,2308,2638,2851,2919,2843,2675,2558,2477,2429,2378,2294,2181,2048,1901,1771,1686,1650,1651,1654,1640,1603,1558,1497,1442,1410,1381,1351,1320,1281,1224,1181,1166,1245,1480,1852,2256,2551,2693,2715,2636,2517,2420,2358,2317,2262,2178,2055,1898,1738,1621,1532,1484,1461,1434,1402,1368,1308,1232,1162,1099,1037,993,966,923,864,804,800,916,1163,1548,1948,2249,2384,2380,2292,2172,2068,1987,1918,1843,1755,1638,1503,1384,1300,1252,1234,1223,1209,1185,1145,1101,1061,1023,978,939,907,872,827,787,759,800,984,1323,1728,2037,2255,2331,2278,2159,2042,1960,1895,1828,1743,1641,1533,1451,1404,1377,1373,1392,1420,1448,1461,1457,1445,1433,1422,1414,1415,1408,1475,1639,1669,1722,1844,2119,2499,2860,3112,3214,3193,3107,3006,2920,2858,2804,2730,2630,2506,2381,2274,2204,2171,2160,2143,2115,2073,2024,1978,1941,1903,1863,1822,1787,1751,1706,1666,1647,1730,1968,2337,2692,2929,3063,3068,2990,2879,2792,2734,2687,2632,2543,2414,2272,2162,2069,2011,1987,1982,1971,1959,1928,1883,1832,1786,1753,1719,1692,1650,1605,1567,1558,1612,1766,2067,2441,2764,2957,3010,2971,2884,2790,2708,2650,2596,2537,2450,2333,2211,2102,2028,1995,1986,1984,1976,1961,1927,1877,1826,1777,1740,1711,1683,1644,1607,1577,1589,1710,1971,2324,2615,2848,2961,2955,2878,2783,2701,2651,2615,2557,2461,2337,2219,2121,2033,1986,1970,1971,1874,1657,1580,1527,1475,1424,1380,1352,1316,1274,1226,1186,1180,1251,1428,1754,2134,2441,2605,2633,2574,2481,2384,2315,2272,2217,2141,2032,1893,1750,1627,1534,1470,1422,1380,1334,1279,1212,1148,1093,1025,961,902,844,795,755,716,718,824,1088,1434,1756,2028,2158,2154,2066,1968,1891,1830,1772,1701,1605,1485,1376,1257,1160,1101,1074,1056,1036,1013,977,946,923,906,890,874,832,782,740,701,691,744,923,1260,1680,2066,2320,2417,2407,2326,2232,2148,2080,2013,1923,1795,1666,1576,1553,1594,1657,1736,1796,1817,1799,1753,1708,1656,1607,1562,1523,1482,1447,1398,1355,1382,1545,1859,2218,2511,2727,2794,2739,2621,2498,2401,2325,2323,2381,2324,2230,2143,2059,2002,1970,1959,1945,1933,1904,1860,1813,1774,1747,1725,1711,1690,1665,1624,1588,1595,1694,1919,2234,2550,2768,2849,2827,2744,2653,2580,2530,2489,2440,2361,2255,2138,2033,1954,1921,1915,1922,1931,1929,1909,1880,1846,1802,1763,1735,1710,1682,1652,1619,1613,1686,1871,2147,2390,2609,2737,2756,2699,2619,2551,2506,2477,2441,2385,2303,2203,2103,2015,1959,1942,1941,1937,1920,1878,1824,1771,1722,1676,1651,1642,1639,1636,1618,1608,1636,1760,2003,2308,2589,2772,2834,2812,2740,2656,2580,2517,2465,2399,2307,2201,2101,2008,1925,1881,1866,1881,1878,1800,1629,1433,1152,800,406,114,28,7,1,0,0,0,0,523,1609,2048,2278,2411,2489,2538,2571,2611,2647,2675,2693,2705,2712,2717,2722,2730,2738,2741,2736,2727,2715,2701,2685,2668,2649,2635,2617,2594,2571,2550,2533,2532,2569,2650,2760,2865,2932,2945,2920,2871,2814,2764,2721,2686,2648,2613,2579,2553,2535,2523,2512,2498,2482,2463,2442,2421,2408,2397,2387,2377,2369,2367,2368,2366,2359,2358,2391,2473,2572,2689,2786,2835,2832,2793,2745,2702,2666,2636,2608,2578,2555,2537,2518,2505,2499,2491,2480,2465,2444,2424,2408,2397,2387,2380,2371,2361,2351,2340,2328,2326,2349,2414,2525,2655,2764,2825,2837,2813,2771,2728,2692,2661,2636,2611,2581,2554,2533,2514,2503,2500,2500,2500,2501,2511,2528,2545,2559,2489,2316,2244,2205,2176,2147,2127,2146,2229,2362,2512,2675,2789,2838,2827,2781,2728,2672,2627,2584,2536,2491,2456,2427,2403,2386,2371,2353,2333,2311,2286,2258,2229,2201,2180,2163,2147,2126,2102,2073,2051,2055,2114,2247,2426,2592,2703,2735,2713,2653,2582,2520,2471,2428,2393,2349,2302,2258,2218,2193,2182,2174,2164,2147,2126,2101,2083,2066,2048,2028,2009,1994,1982,1961,1941,1943,1992,2115,2284,2451,2598,2670,2669,2617,2549,2488,2436,2402,2371,2332,2287,2248,2209,2181,2166,2156,2142,2126,2106,2085,2067,2050,2034,2021,2010,1997,1983,1962,1940,1925,1948,2039,2201,2395,2558,2648,2664,2629,2564,2491,2425,2377,2342,2307,2268,2229,2199,2179,2042,1740,1650,1614,1583,1546,1511,1484,1453,1417,1381,1352,1328,1310,1286,1268,1293,1425,1683,1955,2236,2428,2479,2410,2265,2120,1980,1873,1791,1717,1643,1564,1497,1433,1378,1338,1323,1321,1322,1308,1280,1244,1206,1168,1141,1119,1110,1106,1096,1081,1089,1157,1347,1658,2009,2291,2429,2438,2349,2212,2078,1965,1880,1812,1740,1676,1627,1586,1558,1546,1534,1517,1491,1465,1426,1394,1357,1316,1278,1243,1206,1173,1136,1092,1067,1105,1265,1531,1823,2111,2290,2332,2265,2140,2023,1914,1828,1760,1702,1650,1614,1578,1547,1540,1548,1549,1541,1520,1501,1489,1486,1486,1486,1486,1488,1488,1486,1487,1498,1551,1718,2015,2375,2684,2863,2900,2851,2756,2660,2580,2531,2489,2451,2404,2349,2298,2261,2235,2215,2197,2174,2134,2078,2017,1961,1907,1855,1805,1759,1712,1669,1619,1580,1597,1721,1952,2182,2410,2565,2612,2566,2471,2372,2291,2217,2140,2054,1959,1860,1783,1712,1667,1649,1645,1635,1618,1588,1547,1503,1458,1418,1400,1388,1376,1364,1339,1321,1349,1460,1686,1969,2231,2401,2455,2426,2343,2244,2159,2106,2058,2009,1937,1848,1763,1694,1647,1618,1598,1577,1555,1528,1497,1473,1439,1415,1400,1388,1370,1340,1302,1263,1267,1373,1597,1868,2111,2314,2406,2392,2307,2199,2118,2052,1994,1931,1854,1773,1711,1655,1615,1600,1594,1580,1562,1541,1509,1473,1438,1417,1400,1382,1352,1319,1277,1235,1228,1298,1512,1830,2171,2431,2566,2582,2510,2394,2280,2189,2113,2042,1955,1830,1698,1585,1510,1479,1474,1473,1469,1456,1430,1379,1336,1288,1236,1179,1124,1084,1077,1090,1146,1287,1537,1881,2222,2488,2682,2754,2719,2642,2566,2503,2445,2371,2265,2148,2054,2013,2017,2055,2102,2142,2156,2143,2110,2078,2050,2028,1997,1941,1859,1722,1561,1411,1324,1342,1472,1719,2010,2265,2416,2432,2318,2062,1725,1375,1069,820,659,502,374,320,363,499,672,882,1093,1272,1413,1521,1605,1672,1727,1770,1818,1866,1901,1927,1981,2119,2380,2721,3040,3212,3252,3150,2953,2734,2541,2404,2286,2170,2041,1901,1760,1640,1566,1520,1505,1516,1532,1538,1543,1556,1590,1712,1906,1925,1893,1842,1804,1813,1887,2043,2234,2486,2714,2820,2752,2532,2257,2003,1760,1594,1522,1526,1563,1598,1619,1640,1684,1755,1840,1912,1975,2020,2046,2059,2063,2052,2013,1954,1876,1741,1467,1047,528,138,34,8,2,0,0,0,0,0,0,0,64,411,765,1033,1224,1375,1501,1638,1777,1900,1998,2050,2057,2020,1935,1803,1643,1496,1407,1372,1367,1392,1460,1584,1750,1929,2115,2256,2335,2366,2381,2398,2428,2460,2458,2387,2241,2083,1925,1842,1865,1971,2105,2215,2266,2245,2157,2048,1986,1995,2057,2166,2273,2344,2361,2322,2272,2252,2328,2511,2748,2960,3074,3109,3063,2965,2866,2806,2793,2804,2823,2808,2753,2673,2592,2581,2665,2687,2697,2702,2701,2695,2686,2674,2662,2653,2648,2646,2645,2645,2652,2672,2708,2751,2790,2824,2842,2847,2846,2842,2836,2829,2817,2803,2787,2772,2762,2761,2772,2788,2801,2804,2796,2781,2761,2739,2719,2703,2692,2684,2679,2673,2664,2654,2649,2658,2695,2755,2820,2872,2901,2913,2921,2925,2916,2893,2860,2829,2803,2785,2775,2770,2766,2756,2734,2701,2661,2626,2604,2594,2591,2588,2580,2560,2530,2498,2471,2450,2446,2470,2521,2586,2638,2681,2704,2708,2704,2701,2699,2697,2692,2679,2657,2629,2603,2582,2565,2554,2551,2551,2548,2539,2520,2495,2471,2453,2443,2439,2437,2438,2446,2466,2507,2564,2655,2763,2857,2915,2928,2907,2870,2820,2759,2493,1888,1542,1265,969,711,533,441,420,452,518,609,711,810,891,949,982,1004,1028,1063,1111,1166,1223,1300,1414,1564,1742,1902,2013,2087,2112,2107,2086,2061,2035,2008,1971,1916,1848,1780,1729,1696,1688,1695,1707,1721,1729,1731,1724,1704,1673,1637,1608,1592,1586,1585,1595,1638,1729,1860,2038,2203,2316,2367,2363,2333,2290,2244,2207,2179,2165,2160,2170,2200,2250,2299,2325,2322,2307,2294,2282,2259,2215,2149,2070,1978,1889,1815,1754,1702,1676,1690,1769,1908,2074,2233,2337,2412,2460,2504,2564,2606,2633,2628,2588,2513,2427,2354,2310,2293,2300,2313,2317,2302,2263,2213,2143,2054,1951,1837,1723,1637,1564,1522,1538,1629,1793,1996,2253,2555,2666,2683,2651,2603,2554,2505,2461,2426,2398,2369,2335,2290,2253,2246,2274,2316,2344,2351,2334,2298,2247,2188,2138,2087,2058,2059,2075,2084,2084,2096,2145,2230,2330,2415,2466,2486,2493,2495,2495,2495,2488,2469,2435,2384,2323,2265,2225,2207,2205,2213,2224,2230,2231,2231,2231,2225,2217,2211,2207,2205,2203,2202,2212,2257,2345,2460,2551,2621,2650,2640,2611,2583,2559,2539,2514,2476,2431,2378,2328,2288,2255,2234,2221,2211,2202,2189,2175,2165,2161,2161,2161,2158,2149,2136,2118,2104,2117,2157,2267,2367,2473,2542,2565,2556,2539,2536,2556,2591,2625,2651,2670,2695,2712,2701,2658,2597,2533,2439,2299,2132,1988,1917,1926,2003,2122,2256,2347,2383,2408,2378,2317,2273,2271,2305,2337,2327,2225,2024,1798,1636,1562,1547,1551,1545,1512,1448,1377,1337,1339,1390,1469,1532,1557,1543,1486,1418,1386,1418,1501,1594,1653,1668,1622,1579,1562,1612,1724,1897,2082,2229,2297,2260,2153,1964,1705,1369,928,399,99,24,6,1,0,0,0,0,0,0,0,0,0,0,0,0,0,0,0,0,0,72,350,704,1044,1286,1463,1562,1592,1561,1468,1332,1172,972,779,614,495,456,502,617,777,950,1120,1276,1397,1518,1634,1725,1795,1828,1845,1847,1841,1855,1928,2094,2320,2548,2793,3003,3168,3300,3391,3441,3494,3552,3606,3632,3610,3546,3468,3373,3246,3066,2832,2598,2388,2332,2274,2229,2198,2179,2167,2164,2164,2164,2167,2180,2209,2267,2343,2417,2467,2486,2485,2476,2465,2453,2439,2419,2396,2367,2333,2297,2263,2239,2226,2222,2227,2238,2248,2256,2251,2241,2218,2188,2159,2136,2126,2127,2141,2173,2228,2301,2379,2434,2473,2488,2479,2448,2400,2347,2282,2208,2123,2020,1890,1733,1533,1198,731,241,60,15,3,0,0,0,0,0,0,0,0,0,0,0,0,0,0,0,0,0,0,0,0,0,0,0,0,0,0,0,0,0,0,52,260,430,611,794,908,1035,1102,1157,1181,1147,1084,899,738,515,438,516,687,862,1023,1146,1232,1289,1323,1348,1359,1359,1350,1331,2064,2397,2482,2509,2528,2546,2564,2581,2594,2604,2612,2620,2628,2634,2640,2644,2646,2649,2658,2679,2707,2745,2784,2813,2830,2837,2838,2837,2837,2836,2835,2832,2828,2822,2817,2812,2807,2801,2795,2791,2789,2788,2788,2789,2793,2799,2810,2824,2837,2849,2861,2873,2890,2917,2953,2993,3029,3056,3070,3081,3089,3094,3098,3099,3095,3089,3079,3066,3051,3037,3023,3012,3004,2996,2988,2981,2973,2965,2957,2951,2945,2941,2937,2932,2929,2928,2932,2945,2964,2984,3008,3026,3037,3043,3046,3046,3046,3047,3045,3041,3034,3024,3013,3004,2997,2992,2990,2987,2982,2979,2975,2971,2967,2962,2957,2953,2949,2945,2941,2938,2937,2944,2962,2985,3008,3025,3032,3036,2801,2699,2677,2674,2669,2656,2641,2621,2598,2577,2559,2545,2540,2538,2535,2529,2521,2506,2493,2482,2471,2461,2451,2438,2426,2417,2419,2441,2485,2536,2577,2616,2641,2652,2657,2656,2653,2654,2653,2647,2633,2612,2587,2566,2553,2545,2542,2541,2532,2525,2516,2505,2493,2482,2470,2458,2447,2435,2425,2418,2422,2440,2482,2533,2580,2612,2628,2627,2624,2623,2622,2620,2615,2599,2578,2554,2529,2507,2491,2477,2467,2460,2454,2445,2434,2420,2405,2392,2380,2368,2355,2342,2329,2322,2329,2356,2401,2448,2477,2499,2510,2512,2511,2509,2501,2493,2482,2466,2445,2420,2395,2372,2356,2346,2340,2333,2325,2313,2303,2293,2281,2268,2254,2240,2228,2216,2205,2201,1629,1424,1488,1625,1746,1816,1836,1822,1795,1771,1749,1726,1689,1634,1562,1482,1405,1342,1299,1275,1252,1234,1213,1183,1151,1114,1074,1038,1004,972,941,911,884,875,914,1016,1161,1308,1412,1456,1473,1464,1446,1429,1412,1382,1347,1297,1233,1157,1087,1032,999,984,975,965,946,916,882,850,821,797,775,750,722,689,659,652,697,792,916,1065,1182,1242,1258,1248,1227,1211,1197,1184,1159,1112,1053,986,921,866,830,810,796,784,768,745,711,675,639,606,575,545,511,475,440,423,445,529,665,815,936,992,1010,1000,983,965,947,926,896,856,799,730,665,615,583,564,554,544,528,512,492,469,942,1137,1162,1147,1126,1103,1082,1076,1112,1214,1362,1508,1645,1730,1759,1750,1731,1712,1696,1673,1640,1584,1510,1437,1367,1314,1282,1266,1256,1243,1224,1198,1166,1132,1102,1074,1050,1021,989,954,920,909,942,1044,1206,1384,1526,1602,1622,1615,1597,1581,1569,1553,1529,1486,1424,1349,1281,1234,1211,1207,1205,1199,1190,1172,1146,1123,1105,1084,1063,1041,1016,995,973,973,1031,1167,1351,1505,1630,1704,1725,1714,1697,1679,1668,1657,1635,1591,1524,1443,1368,1304,1264,1249,1245,1240,1228,1209,1182,1149,1114,1084,1063,1048,1027,1003,981,980,1015,1122,1290,1468,1603,1669,1681,1664,1646,1634,1618,1596,1562,1520,1459,1386,1312,1246,1569,1705,1733,1731,1708,1670,1620,1576,1525,1468,1419,1376,1327,1270,1227,1210,1289,1500,1801,2098,2313,2453,2499,2486,2460,2440,2418,2389,2341,2257,2134,1987,1860,1756,1684,1647,1627,1606,1585,1552,1513,1464,1418,1374,1332,1292,1237,1182,1139,1133,1201,1372,1663,1991,2259,2407,2444,2425,2393,2364,2336,2306,2256,2178,2061,1919,1785,1677,1615,1590,1584,1580,1561,1517,1463,1416,1380,1341,1301,1260,1221,1184,1152,1126,1164,1316,1586,1915,2162,2341,2425,2425,2386,2335,2283,2239,2182,2085,1960,1814,1676,1559,1462,1405,1379,1362,1345,1320,1281,1224,1168,1114,1060,1018,975,922,868,824,827,926,1129,1444,1764,1993,2093,2093,2047,1990,2204,2285,2265,2202,2108,1967,1807,1667,1569,1533,1530,1529,1524,1502,1465,1411,1367,1315,1266,1225,1186,1140,1083,1039,1027,1123,1373,1722,2059,2303,2449,2481,2445,2391,2345,2307,2260,2206,2113,1983,1838,1727,1633,1577,1552,1543,1532,1524,1507,1480,1438,1382,1329,1299,1284,1252,1211,1177,1203,1352,1582,1926,2302,2588,2736,2775,2746,2700,2668,2648,2619,2560,2467,2347,2189,2039,1926,1867,1851,1852,1849,1819,1772,1711,1647,1597,1541,1495,1454,1408,1354,1321,1313,1404,1650,2009,2375,2632,2747,2780,2753,2716,2694,2671,2636,2576,2475,2334,2174,2030,1934,1860,1817,1800,1777,1751,1721,1677,1618,1560,1510,1457,1409,1365,1314,1270,1262,1350,1626,1976,2391,2734,2932,2984,2956,2910,2864,2837,2808,2751,2642,2506,2335,2161,2024,1934,1892,1883,1879,1855,1807,1735,1658,1598,1553,1505,1459,1402,1348,1303,1277,1317,1508,1856,2278,2634,2823,2906,2893,2837,2783,2736,2694,2645,2554,2416,2243,2068,1922,1830,1782,1770,1766,1748,1711,1659,1598,1538,1480,1426,1381,1355,1317,1269,1222,1244,1414,1681,2070,2459,2731,2848,2855,2806,2744,2698,2676,2642,2572,2457,2307,2125,1957,1846,1796,1794,1797,1786,1769,1732,1683,1635,1604,1559,1499,1436,1376,1323,1279,1268,1342,1575,1956,2364,2661,2805,2837,2787,2712,2643,2591,2532,2456,2341,2181,1989,1807,1685,1601,1548,1509,1464,1402,1358,1312,1261,1100,984,892,833,798,756,690,625,632,780,1077,1525,1970,2279,2399,2379,2315,2245,2184,2125,2052,1930,1796,1616,1446,1315,1242,1216,1212,1214,1201,1166,1114,1048,990,946,906,880,853,815,758,728,746,914,1288,1797,2298,2622,2811,2859,2808,2727,2670,2626,2575,2492,2358,2176,1994,1859,1800,1780,1789,1797,1796,1781,1753,1704,1640,1563,1489,1436,1406,1369,1317,1265,1267,1417,1722,2117,2574,2931,3120,3150,3101,3026,2962,2902,2838,2733,2569,2390,2178,1999,1879,1822,1805,1801,1792,1764,1703,1619,1541,1497,1459,1421,1382,1341,1280,1222,1201,1258,1496,1916,2397,2770,2958,3013,2963,2880,2809,2747,2697,2636,2527,2368,2184,2017,1997,1972,1953,1937,1921,1892,1855,1818,1768,1714,1661,1616,1586,1563,1528,1483,1439,1459,1609,1848,2197,2548,2791,2890,2887,2836,2769,2709,2669,2623,2548,2439,2309,2169,2049,1974,1944,1942,1940,1928,1900,1858,1813,1768,1739,1710,1682,1661,1634,1595,1557,1536,1611,1831,2167,2526,2786,2910,2936,2890,2814,2735,2670,2608,2521,2408,2266,2114,1978,1886,1811,1760,1734,1714,1687,1660,1619,1564,1511,1463,1417,1377,1343,1300,1258,1234,1269,1422,1685,2052,2395,2609,2671,2637,2563,2485,2433,2393,2345,2262,2161,2028,1894,1791,1739,1731,1734,1732,1714,1683,1631,1572,1520,1483,1439,1403,1366,1322,1274,1246,1261,1391,1676,2057,2412,2624,2719,2696,2620,2530,2466,2431,2385,2304,2181,2028,1879,1767,1697,1663,1662,1665,1652,1629,1602,1547,1482,1420,1374,1345,1324,1294,1250,1213,1243,1428,1708,2117,2538,2828,2945,2933,2855,2775,2714,2673,2633,2563,2454,2314,2150,2006,1908,1860,1841,1837,1830,1806,1761,1697,1648,1621,1581,1544,1509,1473,1424,1396,1412,1561,1882,2317,2732,3005,3124,3144,3093,3025,2964,2916,2868,2799,2686,2540,2388,2249,2161,2104,2075,2062,2037,2005,1966,1916,1866,1816,1766,1710,1661,1627,1582,1546,1551,1678,1945,2291,2686,2982,3125,3139,3088,3023,2973,2943,2898,2818,2695,2557,2392,2238,2130,2060,2021,2009,1991,1959,1915,1854,1788,1727,1678,1631,1590,1544,1488,1433,1378,1440,1669,2020,2391,2677,2805,2829,2780,2710,2638,2584,2538,2494,2421,2300,2151,2011,1903,1836,1802,1795,1796,1784,1749,1700,1635,1580,1536,1490,1445,1412,1366,1319,1304,1380,1597,1913,2236,2540,2719,2765,2723,2663,2615,2582,2542,2494,2409,2285,2163,2032,1922,1846,1812,1803,1800,1793,1771,1729,1665,1599,1558,1526,1497,1470,1441,1406,1379,1402,1533,1802,2145,2448,2631,2684,2657,2588,2521,2476,2428,2367,2269,2130,1962,1793,1659,1587,1563,1557,1554,1534,1489,1438,1382,1319,1265,1217,1171,1131,1099,1055,1008,1018,1143,1418,1732,2088,2365,2485,2469,2375,2277,2189,2121,2052,1967,1849,1727,1617,1518,1453,1427,1421,1415,1398,1367,1323,1375,1374,1341,1311,1272,1240,1202,1149,1094,1079,1146,1357,1690,2043,2311,2436,2444,2385,2298,2224,2179,2151,2115,2040,1926,1786,1660,1567,1528,1519,1521,1514,1492,1460,1436,1406,1377,1354,1337,1313,1296,1261,1228,1240,1366,1645,2005,2325,2589,2718,2721,2656,2591,2543,2508,2474,2415,2321,2189,2068,1948,1858,1813,1804,1802,1798,1784,1746,1690,1637,1584,1551,1528,1498,1464,1417,1372,1377,1482,1737,2101,2464,2715,2820,2819,2766,2702,2651,2612,2572,2520,2431,2312,2171,2046,1959,1923,1910,1912,1903,1887,1852,1807,1758,1705,1658,1620,1580,1540,1506,1482,1500,1627,1893,2255,2547,2789,2913,2922,2863,2793,2729,2679,2632,2568,2469,2334,2202,2122,2051,2008,1984,1971,1957,1946,1919,1875,1824,1782,1746,1719,1683,1642,1597,1563,1579,1690,1908,2238,2567,2794,2887,2878,2825,2760,2704,2659,2611,2553,2471,2356,2224,2109,2034,1996,1984,1975,1964,1950,1925,1888,1859,1830,1792,1753,1722,1692,1653,1625,1630,1738,1970,2294,2595,2790,2890,2879,2804,2729,2671,2627,2593,2541,2449,2325,2200,2105,2031,1990,1976,1969,1953,1924,1885,1824,1767,1722,1688,1663,1643,1607,1562,1522,1523,1625,1809,2105,2438,2686,2802,2803,2746,2664,2597,2551,2511,2447,2357,2243,2111,2000,1922,1879,1855,1833,1798,1762,1717,1661,1595,1551,1506,1464,1422,1381,1338,1308,1294,1359,1558,1871,2198,2436,2554,2572,2513,2404,2313,2251,2189,2106,1993,1863,1732,1623,1560,1515,1494,1489,1479,1449,1422,1371,1314,1262,1222,1194,1185,1164,1128,1075,1037,1092,1280,1570,1937,2261,2452,2506,2466,2386,2301,2237,2185,2127,2042,1944,1832,1727,1654,1620,1614,1625,1628,1621,1597,1565,1519,1474,1446,1416,1386,1348,1298,1248,1239,1322,1552,1903,2276,2568,2701,2722,2660,2578,2509,2464,2430,2384,2294,2161,2016,1891,1819,1790,1788,1786,1771,1735,1693,1656,1613,1579,1539,1504,1471,1444,1407,1366,1356,1455,1701,1986,2318,2584,2714,2715,2641,2558,2493,2446,2397,2336,2248,2159,2084,2034,2020,2041,2094,2165,2224,2275,2286,2259,2202,2145,2099,2046,1988,1921,1840,1756,1707,1845,2065,2374,2698,2936,3040,3028,2951,2854,2759,2686,2631,2576,2490,2370,2249,2143,2075,2048,2031,2017,2003,1975,1936,1903,1867,1836,1794,1745,1700,1662,1630,1597,1601,1707,1951,2268,2564,2819,2940,2942,2878,2796,2731,2686,2641,2577,2487,2374,2273,2180,2112,2076,2065,2056,2046,2028,1993,1951,1904,1862,1833,1804,1772,1734,1683,1637,1636,1722,1943,2273,2611,2857,2965,2960,2893,2810,2745,2705,2672,2623,2542,2427,2301,2194,2122,2083,2072,2063,2050,2030,1993,1945,1901,1856,1822,1792,1753,1704,1662,1613,1594,1665,1873,2194,2512,2732,2860,2872,2806,2717,2641,2590,2551,2497,2412,2290,2172,2079,2006,1962,1940,1923,1901,1871,1824,1769,1713,1434,1291,1244,1213,1170,1122,1066,1042,1108,1298,1634,2013,2318,2475,2491,2426,2320,2228,2155,2086,2009,1921,1785,1625,1471,1342,1252,1207,1163,1131,1111,1092,1063,1037,1025,1021,1020,1013,992,969,961,970,1056,1280,1636,2031,2304,2478,2530,2490,2415,2349,2303,2266,2219,2141,2033,1920,1826,1760,1716,1693,1680,1666,1641,1609,1575,1534,1504,1474,1443,1421,1394,1355,1313,1309,1425,1631,1969,2358,2666,2827,2838,2760,2669,2595,2540,2491,2426,2326,2208,2075,1969,1895,1852,1829,1817,1793,1756,1699,1625,1550,1502,1467,1435,1401,1352,1286,1238,1209,1266,1472,1808,2191,2489,2649,2701,2671,2593,2508,2425,2340,2221,2069,1908,1765,1662,1607,1686,1730,1739,1723,1684,1639,1563,1469,1371,1273,1184,1109,1065,1023,986,989,1075,1262,1521,1847,2133,2310,2367,2337,2286,2226,2172,2114,2046,1935,1819,1671,1523,1419,1374,1367,1378,1376,1350,1314,1286,1274,1272,1281,1301,1336,1373,1394,1391,1398,1462,1639,1916,2228,2477,2594,2612,2555,2481,2424,2400,2391,2369,2326,2253,2165,2092,2040,2012,2003,2001,1990,1970,1945,1922,1895,1867,1837,1800,1760,1728,1696,1655,1636,1692,1872,2109,2430,2719,2886,2912,2826,2692,2563,2456,2374,2299,2198,2079,1967,1842,1762,1708,1689,1681,1669,1645,1616,1588,1557,1519,1485,1448,1408,1363,1310,1258,1226,1248,1367,1623,1959,2270,2467,2533,2513,2444,2368,2335,2308,2277,2223,2145,2063,1999,1954,1936,1936,1934,1925,1912,1884,1855,1829,1805,1785,1768,1747,1728,1712,1689,1668,1699,1837,2084,2332,2585,2765,2843,2832,2779,2720,2672,2638,2595,2550,2478,2397,2332,2275,2234,2208,2192,2177,2159,2135,2095,2052,2010,1974,1954,1935,1914,1889,1856,1831,1845,1956,2185,2470,2738,2908,2962,2934,2849,2757,2681,2619,2562,2506,2425,2328,2240,2167,2121,2093,2077,2061,2045,2024,2004,1987,1958,1925,1887,1846,1818,1800,1781,1763,1790,1909,2127,2376,2578,2724,2777,2749,2666,2608,2555,2507,2458,2395,2314,2220,2143,2073,2028,2004,1990,1971,1949,1918,1880,1840,1803,1766,1729,1694,1656,1621,1587,1572,1610,1721,1767,1993,2255,2431,2489,2459,2377,2298,2245,2204,2149,2090,2003,1901,1815,1744,1703,1683,1680,1671,1656,1624,1587,1551,1525,1496,1459,1411,1360,1313,1284,1250,1234,1296,1481,1764,2057,2231,2318,2301,2217,2115,2032,1970,1926,1877,1811,1724,1640,1564,1500,1474,1469,1472,1474,1466,1437,1397,1354,1318,1287,1263,1231,1197,1159,1122,1108,1153,1310,1582,1894,2150,2283,2302,2241,2135,2028,1947,1896,1847,1784,1698,1623,1567,1534,1522,1519,1517,1509,1489,1464,1438,1419,1393,1367,1340,1320,1299,1273,1254,1270,1341,1541,1841,2137,2343,2469,2479,2411,2313,2228,2170,2119,2056,1978,1898,1831,1790,1764,1756,1744,1727,1710,1685,1650,1596,1535,1481,1547,1566,1555,1529,1488,1446,1450,1563,1769,2101,2467,2741,2870,2859,2772,2648,2528,2439,2360,2280,2200,2126,2050,1988,1945,1922,1912,1902,1889,1860,1818,1768,1720,1690,1661,1631,1595,1568,1534,1505,1491,1557,1763,2086,2426,2639,2748,2727,2616,2470,2338,2240,2168,2082,1993,1900,1815,1748,1719,1715,1713,1710,1695,1668,1648,1620,1586,1554,1525,1512,1514,1515,1506,1484,1479,1546,1712,1942,2214,2413,2486,2428,2287,2107,1893,1684,1479,1266,1042,875,726,630,590,579,581,597,604,604,595,594,636,700,808,958,1129,1283,1410,1508,1600,1752,2008,2380,2802,3173,3367,3432,3382,3261,3128,3012,2922,2826,2714,2579,2435,2291,2156,2041,1975,1913,1844,1767,1695,1642,1603,1600,1627,1662,1686,1697,1681,1645,1611,1623,1718,1853,2025,2172,2251,2250,2185,2102,2031,1969,1919,1865,1794,1721,1661,1608,1575,1559,1554,1556,1574,1588,1598,1604,1603,1600,1599,1596,1596,1596,1594,1597,1618,1691,1844,2067,2303,2482,2571,2584,2548,2492,2435,2398,2368,2330,2273,2200,2127,2064,2017,2001,1999,2001,1993,1974,1921,1886,1838,1792,1754,1725,1706,1701,1706,1715,1740,1821,1982,2181,2357,2504,2574,2572,2528,2481,2446,2431,2419,2405,2358,2305,2249,2219,2220,2237,2280,2310,2322,2307,2284,2250,2214,2193,2183,2175,2167,2149,2125,2093,2108,2191,2362,2570,2750,2851,2863,2815,2736,2660,2610,2553,2473,2428,2367,2277,2166,2058,1968,1905,1843,1793,1756,1734,1721,1711,1689,1652,1608,1564,1518,1471,1439,1426,1485,1654,1909,2167,2354,2466,2473,2416,2338,2280,2245,2218,2181,2130,2062,1983,1921,1865,1823,1802,1787,1775,1765,1748,1719,1684,1640,1601,1574,1556,1533,1498,1463,1448,1498,1616,1833,2092,2304,2423,2448,2418,2361,2308,2280,2261,2229,2177,2111,2029,1947,1884,1844,1827,1823,1812,1788,1756,1711,1657,1610,1557,1495,1432,1364,1291,1239,1186,1184,1284,1481,1710,1889,1985,2015,1985,1930,1885,1857,1837,1813,1769,1703,1628,1562,1522,1493,1474,1466,1454,1440,1429,1403,1372,1340,1308,1283,1268,1256,1234,1200,1186,1251,1406,1623,1955,2331,2483,2487,2411,2330,2248,2201,2184,2152,2080,1995,1886,1797,1746,1730,1741,1761,1768,1766,1745,1704,1658,1622,1599,1581,1565,1551,1533,1522,1554,1677,1929,2272,2597,2816,2900,2899,2846,2784,2736,2698,2659,2616,2546,2450,2350,2267,2215,2196,2191,2190,2188,2172,2149,2127,2100,2073,2047,2020,1995,1978,1950,1940,1995,2163,2444,2710,2973,3156,3227,3214,3164,3110,3051,2995,2927,2836,2723,2600,2489,2389,2323,2280,2247,2213,2187,2162,2129,2085,2044,2009,1987,1970,1956,1931,1894,1878,1927,2069,2340,2665,2952,3141,3207,3179,3083,2953,2826,2720,2639,2578,2505,2420,2340,2270,2229,2216,2228,2245,2252,2237,2206,2181,2164,2153,2150,2146,2047,1826,1714,1625,1607,1697,1900,2136,2330,2474,2519,2483,2420,2366,2326,2280,2229,2157,2062,1959,1875,1809,1767,1749,1744,1740,1722,1695,1661,1616,1561,1507,1466,1434,1395,1351,1313,1292,1337,1458,1682,1954,2182,2315,2346,2315,2254,2200,2164,2131,2076,2002,1901,1778,1666,1575,1523,1507,1506,1506,1499,1478,1442,1396,1357,1314,1267,1219,1170,1124,1091,1064,1084,1202,1426,1696,1924,2055,2102,2068,1994,1916,1862,1819,1765,1692,1589,1481,1385,1325,1280,1241,1210,1189,1169,1151,1130,1106,1082,1059,1026,1004,977,950,925,918,969,1109,1329,1620,1884,2048,2093,2062,2016,1961,1922,1889,1852,1795,1729,1639,1541,1463,1427,1447,1498,1571,1721,1924,1927,1849,1755,1686,1647,1647,1659,1662,1654,1654,1704,1857,2103,2378,2600,2706,2732,2702,2639,2569,2508,2455,2394,2322,2235,2148,2076,2032,2014,2010,2006,1987,1947,1899,1855,1819,1792,1761,1727,1694,1670,1643,1614,1613,1683,1852,2058,2308,2521,2644,2670,2627,2569,2520,2481,2447,2403,2337,2255,2168,2077,2007,1964,1944,1931,1916,1888,1857,1829,1798,1758,1725,1683,1646,1618,1603,1608,1654,1763,1970,2249,2521,2716,2806,2805,2739,2649,2566,2507,2464,2423,2369,2298,2205,2100,2015,1962,1937,1934,1940,1936,1913,1879,1823,1749,1668,1596,1544,1514,1495,1480,1480,1525,1656,1861,2086,2307,2447,2489,2465,2405,2352,2291,2231,2166,2086,1935,1728,1540,1361,1236,1168,1132,1111,1085,1031,955,880,818,779,762,741,721,703,671,647,681,791,1013,1300,1567,1739,1804,1784,1718,1658,1607,1565,1526,1491,1433,1357,1295,1255,1243,1256,1264,1255,1228,1199,1180,1180,1168,1135,1096,1072,1068,1086,1110,1147,1248,1449,1733,2025,2247,2394,2443,2449,2463,2495,2536,2592,2631,2617,2546,2466,2425,2438,2485,2531,2547,2504,2417,2289,2168,2107,2128,2194,2239,2251,2202,2084,1930,1820,1836,1998,2305,2617,2770,2680,2433,2186,2058,2204,2570,2928,3061,2960,2680,2297,1828,1307,639,159,39,9,2,0,0,0,0,0,0,32,184,353,512,685,913,1233,1616,1990,2240,2398,2514,2656,2693,2708,2717,2724,2723,2711,2691,2668,2645,2625,2615,2627,2656,2689,2711,2721,2720,2705,2677,2641,2602,2570,2536,2505,2479,2462,2462,2476,2506,2545,2582,2609,2626,2638,2647,2654,2662,2672,2681,2683,2676,2657,2625,2577,2519,2465,2432,2406,2376,2333,2290,2266,2275,2308,2353,2394,2424,2441,2452,2464,2488,2532,2586,2631,2657,2668,2664,2642,2605,2563,2535,2527,2533,2537,2526,2506,2496,2503,2526,2554,2571,2566,2545,2523,2504,2501,2517,2548,2576,2583,2564,2522,2474,2432,2408,2411,2444,2505,2573,2628,2660,2667,2661,2649,2640,2643,2656,2670,2674,2671,2665,2665,2670,2675,2679,2686,2706,2740,2774,2794,2795,2784,2770,2757,2745,2733,2696,2639,2699,2846,3026,3171,3237,3220,3151,3062,2971,2873,2764,2658,2571,2494,2423,2340,2239,2159,2151,2249,2440,2650,2798,2850,2829,2771,2709,2639,2538,2406,2281,2129,2015,2107,2555,3250,3823,4027,4059,4070,4089,4094,4095,4001,2558,731,182,45,11,2,0,0,0,0,0,0,0,0,0,0,0,0,0,0,0,0,0,0,0,0,0,208,729,1294,1744,2076,2276,2428,2606,2830,3029,3245,3432,3572,3683,3776,3820,3842,3829,3787,3736,3692,3647,3582,3476,3322,3159,3032,2957,2925,2939,2990,3063,3134,3183,3190,3174,3138,3086,3015,2933,2857,2770,2660,2509,2326,2136,1968,1833,1705,1596,1477,1308,1101,894,687,1027,2018,2278,2356,2384,2394,2395,2396,2405,2426,2453,2489,2529,2566,2599,2626,2647,2662,2675,2686,2693,2695,2690,2680,2671,2670,2676,2684,2690,2689,2682,2666,2645,2626,2614,2608,2610,2617,2630,2646,2662,2675,2691,2709,2725,2738,2749,2757,2763,2773,2781,2784,2778,2764,2747,2728,2712,2698,2687,2679,2673,2670,2670,2668,2665,2659,2653,2647,2643,2640,2639,2639,2640,2639,2639,2641,2649,2665,2682,2697,2711,2719,2722,2724,2725,2724,2724,2723,2719,2710,2694,2673,2643,2605,2565,2529,2502,2483,2468,2452,2438,2428,2420,2416,2420,2435,2463,2499,2536,2572,2601,2629,2651,2663,2667,2665,2662,2661,2661,2662,2658,2649,2637,2624,2609,2601,2603,2609,2510,2248,2085,1911,1728,1566,1453,1408,1407,1439,1487,1539,1595,1651,1724,1818,1924,2034,2140,2224,2310,2368,2379,2362,2349,2350,2354,2359,2356,2347,2339,2336,2337,2344,2346,2334,2307,2278,2257,2258,2277,2284,2240,2134,2018,1897,1791,1697,1623,1593,1614,1663,1709,1725,1711,1685,1671,1678,1710,1764,1832,1902,1960,1996,2017,2027,2029,2025,2015,1998,1971,1943,1919,1905,1905,1920,1945,1980,2011,2041,2075,2109,2144,2183,2221,2253,2277,2293,2300,2309,2324,2343,2368,2391,2403,2410,2407,2396,2380,2363,2346,2329,2312,2294,2274,2251,2223,2192,2156,2118,2075,2032,1987,1949,1912,1877,1848,1823,1792,1756,1700,1636,1581,1549,1541,1558,1591,1634,1674,1689,1648,1586,1535,1493,1476,1475,1477,1466,1433,1361,1263,1153,1034,912,813,680,541,488,612,934,1297,1677,1963,2123,2193,2222,2242,2259,2263,2221,2106,1933,1750,1589,1427,1286,1174,1087,1015,960,875,762,631,496,375,315,283,285,319,373,443,534,648,790,943,1091,1220,1319,1390,1439,1475,1509,1556,1621,1688,1761,1826,1874,1907,1930,1944,1944,1927,1904,1887,1873,1847,1806,1763,1785,1929,2149,2240,1940,969,242,60,15,3,0,19,41,10,2,0,0,0,0,0,0,0,0,0,0,0,0,0,0,0,35,178,351,524,690,844,999,1149,1298,1458,1648,1840,2089,2360,2523,2442,2147,2091,2430,2535,2600,2663,2734,2797,2841,2866,2870,2865,2864,2868,2871,2873,2872,2871,2869,2867,2864,2863,2864,2866,2869,2873,2875,2883,2902,2931,2963,2992,3012,3022,3027,3020,3003,2987,2985,2996,3020,3045,3064,3078,3089,3091,3095,3098,3097,3091,3081,3066,3047,3026,3006,2986,2967,2949,2932,2918,2913,2922,2945,2972,2998,3017,3022,3020,3015,3006,2994,2982,2969,2955,2942,2930,2920,2914,2911,2912,2915,2920,2922,2926,2932,2938,2944,2948,2945,2943,2940,2936,2934,2936,2945,2962,2981,3000,3006,3007,3002,2997,2993,2988,2982,2973,2960,2947,2934,2923,2915,2910,2907,2905,2905,2903,2895,2882,2867,2853,2838,2825,2812,2798,2784,2771,2763,2767,2278,2090,2069,2073,2081,2080,2078,2076,2070,2060,2048,2028,2001,1973,1949,1929,1915,1903,1891,1879,1865,1850,1834,1818,1806,1794,1782,1770,1760,1750,1748,1766,1811,1869,1922,1972,2004,2016,2017,2013,2009,2008,2005,1995,1976,1955,1932,1910,1891,1875,1864,1858,1852,1847,1840,1831,1817,1803,1789,1778,1768,1757,1746,1736,1733,1748,1788,1843,1896,1935,1959,1967,1976,1988,2005,2023,2038,2041,2037,2027,2016,2011,2013,2013,2021,2032,2044,2050,2050,2045,2034,2022,2009,1994,1978,1964,1949,1937,1939,1962,2007,2060,2097,2125,2137,2134,2123,2112,2099,2086,2074,2057,2037,2015,1995,1976,1963,1953,1946,1941,1934,1927,1921,1916,1911,1906,1901,1888,1865,1840,1822,1832,1907,2016,2204,2413,2579,2668,2689,2661,2617,2583,2547,2506,2452,2381,2299,2212,2138,2075,2034,2007,1970,1936,1897,1851,1803,1754,1704,1654,1600,1549,1481,1374,1255,1174,1181,1300,1476,1634,1724,1755,1758,1749,1748,1760,1783,1782,1773,1765,1760,1761,1759,1749,1746,1746,1746,1739,1725,1704,1668,1630,1594,1561,1530,1499,1462,1423,1410,1455,1583,1757,1924,2082,2179,2212,2198,2170,2136,2108,2078,2026,1945,1848,1751,1656,1575,1516,1475,1443,1416,1393,1371,1340,1303,1267,1234,1204,1174,1145,1114,1093,1108,1166,1309,1508,1702,1844,1916,1921,1901,1877,1863,1852,1834,1798,1741,1671,1596,1534,1488,1454,1432,1419,1411,1446,1531,1531,1503,1475,1453,1434,1414,1388,1360,1342,1360,1452,1618,1817,1976,2071,2128,2135,2122,2101,2079,2052,2026,1989,1932,1860,1788,1729,1688,1665,1652,1642,1628,1606,1583,1551,1526,1506,1493,1481,1467,1450,1429,1421,1456,1550,1683,1857,2002,2081,2099,2075,2033,2000,1970,1939,1897,1843,1778,1700,1622,1560,1515,1486,1463,1449,1434,1409,1373,1337,1310,1289,1271,1252,1233,1203,1174,1161,1148,1174,1502,2169,1902,580,145,36,9,2,0,0,0,0,0,0,0,0,0,0,0,0,0,0,0,0,0,0,0,0,0,0,0,0,0,0,0,0,0,0,0,0,0,0,0,0,0,0,0,646,2103,2472,2569,2599,2611,2618,2624,2630,2634,2637,2640,2643,2645,2647,2649,2651,2653,2656,2661,2672,2687,2704,2717,2724,2727,2727,2725,2725,2725,2724,2722,2720,2716,2712,2708,2706,2706,2706,2706,2706,2706,2705,2704,2702,2701,2700,2699,2698,2697,2695,2693,2693,2697,2707,2720,2732,2743,2748,2749,2747,2744,2742,2740,2738,2736,2732,2726,2722,2717,2713,2710,2709,2708,2707,2706,2705,2703,2701,2698,2697,2695,2693,2691,2688,2686,2685,2688,2697,2711,2725,2735,2740,2740,2737,2734,2731,2729,2727,2723,2719,2713,2707,2702,2698,2696,2695,2695,2694,2693,2691,2689,2687,2685,2683,2681,2679,2677,2676,2674,2674,2679,2689,2702,2715,2724,2729,2729,2689,2592,2556,2535,2513,2485,2447,2400,2348,2309,2273,2247,2235,2229,2223,2221,2213,2198,2182,2163,2145,2132,2122,2106,2086,2068,2068,2109,2194,2325,2460,2557,2602,2607,2589,2567,2549,2531,2507,2476,2442,2399,2351,2309,2281,2272,2276,2288,2302,2312,2321,2327,2333,2338,2340,2340,2340,2337,2329,2316,2312,2345,2437,2572,2720,2826,2902,2932,2924,2901,2881,2862,2844,2823,2792,2749,2701,2659,2629,2611,2608,2611,2612,2610,2601,2590,2573,2557,2540,2524,2509,2493,2476,2457,2448,2465,2515,2621,2755,2873,2942,2961,2941,2908,2878,2850,2828,2804,2769,2727,2677,2631,2596,2571,2559,2552,2545,2533,2518,2499,2476,2457,2437,2415,2396,2380,2360,2337,2168,1840,1852,2020,2242,2426,2525,2559,2537,2485,2431,2382,2339,2293,2236,2163,2082,2005,1955,1922,1902,1888,1873,1855,1840,1817,1790,1763,1734,1703,1682,1667,1648,1621,1603,1636,1743,1910,2128,2315,2424,2452,2425,2380,2329,2283,2242,2197,2136,2067,1983,1896,1826,1773,1738,1718,1701,1683,1658,1627,1594,1566,1537,1498,1458,1421,1383,1341,1323,1347,1453,1649,1876,2064,2159,2183,2155,2106,2057,2012,1974,1934,1874,1796,1706,1616,1551,1515,1492,1481,1474,1457,1428,1407,1381,1347,1311,1281,1261,1254,1237,1205,1179,1202,1314,1496,1697,1898,2037,2091,2083,2048,2010,1973,1948,1916,1859,1778,1705,1621,1545,1499,1475,1462,1456,1439,1418,1399,1424,1500,1510,1494,1475,1450,1423,1396,1378,1401,1493,1674,1911,2133,2277,2335,2338,2307,2270,2237,2213,2198,2174,2141,2092,2041,2003,1987,1989,2008,2029,2048,2066,2083,2092,2094,2094,2094,2094,2094,2094,2089,2074,2076,2150,2323,2519,2752,2944,3049,3080,3064,3024,2991,2966,2936,2899,2845,2775,2704,2637,2590,2560,2544,2533,2524,2513,2493,2458,2422,2393,2369,2343,2311,2282,2251,2220,2206,2247,2373,2579,2804,2976,3056,3059,3016,2956,2901,2857,2812,2758,2685,2602,2521,2453,2397,2359,2335,2311,2289,2263,2224,2195,2159,2123,2091,2063,2034,2009,1982,1942,1923,1968,2111,2312,2503,2668,2752,2757,2716,2661,2609,2568,2530,2482,2415,2332,2260,2149,2011,1961,1938,1925,1914,1896,1877,1857,1834,1807,1782,1767,1752,1731,1705,1683,1678,1707,1797,1946,2108,2231,2288,2291,2262,2217,2173,2139,2108,2079,2036,1970,1902,1838,1788,1756,1738,1726,1712,1699,1681,1662,1639,1608,1578,1553,1531,1508,1486,1457,1440,1467,1566,1725,1869,2000,2074,2088,2065,2025,1985,1956,1925,1889,1839,1778,1717,1668,1621,1583,1562,1556,1549,1545,1533,1511,1484,1456,1433,1421,1406,1388,1365,1340,1327,1355,1442,1596,1770,1915,2002,2030,2017,1982,1945,1920,1900,1877,1843,1789,1712,1662,1614,1581,1570,1567,1565,1557,1546,1532,1519,1497,1472,1450,1431,1412,1394,1377,1363,1386,1473,1626,1793,1927,2027,2069,2066,2107,2230,2246,2233,2207,2168,2115,2056,2014,1983,1970,1976,1990,2004,2014,2022,2030,2038,2042,2038,2034,2029,2026,2021,2013,2005,2024,2088,2237,2446,2656,2807,2880,2887,2861,2825,2793,2763,2744,2713,2664,2598,2527,2464,2417,2390,2378,2375,2371,2360,2338,2304,2273,2246,2222,2200,2177,2149,2129,2102,2088,2127,2239,2419,2601,2734,2820,2834,2795,2740,2695,2660,2626,2583,2519,2443,2366,2305,2253,2222,2207,2198,2185,2170,2145,2113,2076,2037,1999,1972,1945,1921,1892,1860,1841,1865,1953,2117,2313,2477,2570,2584,2559,2507,2459,2420,2387,2346,2296,2227,2150,2079,2028,1997,1984,1971,1956,1939,1915,1888,1866,1840,1808,1779,1760,1737,1711,1688,1601,1480,1541,1708,1905,2049,2146,2175,2159,2122,2081,2044,2009,1968,1917,1853,1776,1700,1645,1598,1567,1552,1534,1520,1503,1475,1444,1413,1385,1355,1337,1316,1287,1255,1233,1252,1330,1536,1714,1899,2024,2072,2065,2034,1997,1963,1931,1895,1852,1797,1722,1645,1576,1526,1494,1486,1483,1471,1449,1419,1391,1372,1349,1325,1301,1277,1249,1222,1201,1202,1271,1432,1647,1840,1969,2039,2045,2021,1991,1965,1940,1911,1876,1818,1743,1665,1607,1558,1528,1519,1515,1508,1503,1489,1463,1431,1397,1372,1352,1344,1320,1292,1271,1285,1356,1472,1709,1917,2057,2118,2119,2093,2060,2042,2041,2042,2032,2004,1954,1898,1855,1834,1833,1845,1866,1887,1896,1898,2175,2296,2321,2319,2316,2322,2319,2306,2287,2283,2340,2507,2785,3080,3310,3476,3533,3513,3454,3394,3345,3308,3267,3204,3111,3005,2915,2841,2790,2763,2751,2733,2711,2689,2662,2627,2577,2524,2484,2456,2430,2394,2351,2317,2332,2415,2617,2900,3170,3350,3412,3390,3328,3256,3186,3121,3053,2982,2887,2778,2678,2596,2536,2503,2481,2452,2416,2373,2328,2279,2234,2180,2126,2077,2028,1976,1935,1892,1889,1978,2179,2453,2681,2862,2952,2951,2894,2825,2768,2723,2677,2611,2519,2413,2318,2245,2187,2156,2146,2130,2106,2078,2041,1998,1961,1927,1891,1865,1835,1797,1754,1712,1704,1771,1934,2214,2515,2744,2851,2858,2813,2742,2678,2623,2568,2509,2443,2349,1948,1732,1633,1585,1570,1562,1545,1522,1495,1459,1428,1403,1372,1338,1308,1282,1257,1231,1206,1230,1340,1533,1758,1923,2038,2075,2052,2002,1950,1914,1880,1843,1793,1721,1639,1565,1511,1470,1446,1432,1418,1405,1394,1366,1334,1304,1278,1257,1246,1225,1198,1164,1139,1157,1233,1399,1626,1847,2005,2073,2077,2042,1990,1947,1911,1875,1835,1787,1713,1638,1577,1536,1517,1510,1502,1489,1467,1444,1421,1407,1387,1362,1330,1302,1280,1266,1251,1256,1326,1495,1740,1987,2177,2323,2392,2411,2411,2410,2416,2422,2418,2393,2349,2295,2250,2218,2202,2197,2191,2173,2147,2121,2098,2080,2064,2048,2028,2005,1983,1962,1942,1925,1935,2005,2168,2394,2611,2758,2806,2793,2752,2705,2660,2624,2587,2545,2487,2418,2350,2294,2256,2234,2218,2207,2196,2177,2154,2132,2109,2081,2050,2026,2004,1975,1948,1917,1905,1946,2067,2250,2409,2546,2615,2611,2562,2499,2447,2397,2346,2284,2210,2128,2056,2002,1955,1927,1912,1901,1884,1865,1835,1802,1767,1732,1692,1669,1647,1624,1595,1563,1549,1577,1682,1860,2064,2222,2299,2309,2280,2238,2200,2168,2139,2101,2054,1987,1915,1847,1794,1764,1750,1739,1728,1709,1681,1646,1618,1584,1551,1519,1489,1459,1435,1411,1391,1413,1512,1682,1862,2004,2104,2134,2108,2055,2005,1964,1922,1883,1836,1777,1708,1653,1598,1552,1521,1506,1497,1490,1480,1457,1429,1399,1373,1353,1341,1325,1281,1240,1213,1230,1309,1471,1683,1877,2005,2051,2045,2008,1963,1924,1895,1866,1832,1775,1700,1624,1560,1518,1498,1494,1489,1479,1460,1433,1408,1391,1370,1347,1323,1301,1282,1267,1244,1241,1305,1453,1662,1841,1987,2064,2078,2051,2017,1988,1969,1951,1919,1867,1801,1742,1697,1661,1650,1655,1670,1686,1698,1705,1709,1717,1725,1737,1747,1757,1760,1756,1745,1749,1792,1894,2085,2316,2521,2645,2690,2675,2635,2593,2560,2531,2496,2453,2391,2323,2261,2218,2190,2177,2173,2170,2158,2144,2125,2103,2081,2053,2025,2005,1984,1960,1935,1907,1899,1955,2099,2300,2463,2594,2663,2664,2619,2566,2520,2486,2452,2402,2336,2260,2192,2142,2104,2078,2065,2051,2090,2097,2079,2045,2002,1961,1927,1905,1880,1851,1813,1769,1752,1789,1914,2105,2302,2444,2505,2502,2457,2402,2353,2318,2286,2249,2200,2127,2052,1992,1945,1917,1903,1891,1875,1856,1833,1804,1780,1753,1728,1704,1680,1654,1630,1602,1590,1640,1779,1978,2168,2299,2375,2381,2346,2293,2246,2208,2168,2120,2060,1988,1907,1850,1798,1757,1732,1717,1698,1683,1656,1620,1585,1551,1513,1480,1457,1430,1394,1361,1354,1397,1503,1685,1893,2057,2147,2163,2137,2094,2050,2014,1975,1932,1886,1820,1744,1669,1609,1569,1549,1541,1530,1509,1483,1459,1439,1424,1403,1380,1363,1346,1325,1307,1295,1330,1446,1638,1856,2015,2119,2155,2141,2108,2077,2056,2031,2000,2046,2011,1925,1841,1776,1724,1697,1684,1681,1675,1663,1637,1610,1585,1554,1522,1504,1480,1451,1413,1389,1424,1531,1741,2003,2239,2388,2435,2420,2385,2352,2338,2342,2341,2327,2295,2246,2190,2140,2113,2117,2132,2158,2181,2200,2209,2211,2209,2202,2192,2178,2161,2144,2136,2135,2163,2265,2460,2721,2957,3112,3201,3211,3177,3130,3089,3048,3002,2952,2882,2794,2706,2634,2578,2537,2512,2497,2482,2457,2428,2390,2342,2289,2239,2200,2165,2132,2096,2056,2040,2093,2212,2423,2667,2862,2963,2971,2925,2856,2786,2728,2672,2606,2534,2438,2335,2238,2158,2102,2067,2042,2007,1967,1928,1889,1850,1814,1769,1723,1684,1645,1605,1576,1560,1617,1781,2025,2275,2254,2255,2252,2221,2178,2136,2097,2061,2021,1967,1898,1821,1758,1718,1688,1672,1666,1657,1641,1626,1599,1568,1542,1522,1505,1496,1481,1454,1423,1414,1465,1588,1757,1961,2131,2219,2233,2203,2158,2115,2075,2037,1990,1923,1858,1781,1707,1647,1609,1591,1585,1572,1550,1520,1488,1456,1428,1409,1385,1365,1343,1311,1282,1281,1328,1460,1659,1873,2044,2127,2144,2114,2066,2027,1992,1957,1914,1862,1791,1714,1639,1586,1555,1536,1531,1530,1525,1515,1502,1475,1444,1413,1387,1374,1362,1341,1318,1311,1351,1473,1634,1841,2023,2135,2168,2152,2122,2082,2049,2026,1998,1951,1892,1829,1768,1725,1710,1724,1752,1780,1805,1827,1839,1839,1834,1833,1838,1846,2052,2140,2152,2158,2211,2369,2645,2989,3305,3504,3576,3568,3505,3431,3377,3329,3271,3197,3092,2965,2838,2734,2666,2633,2619,2607,2595,2577,2552,2519,2481,2444,2412,2379,2346,2308,2269,2248,2280,2419,2659,2937,3239,3461,3567,3576,3528,3463,3413,3369,3310,3229,3121,3018,2913,2829,2770,2732,2695,2659,2624,2588,2540,2476,2405,2345,2298,2255,2207,2150,2081,2030,2032,2136,2370,2675,2955,3134,3197,3179,3105,3019,2946,2883,2831,2760,2652,2525,2402,2308,2251,2227,2217,2209,2190,2158,2120,2078,2025,1960,1899,1852,1808,1773,1725,1681,1690,1815,2072,2350,2643,2854,2946,2932,2857,2774,2702,2641,2594,2530,2441,2331,2222,2109,2038,2003,1993,1989,1702,1555,1488,1437,1394,1355,1332,1307,1277,1239,1188,1148,1156,1244,1440,1700,1946,2108,2169,2154,2094,2036,1990,1955,1920,1882,1819,1734,1636,1548,1479,1448,1433,1429,1423,1414,1403,1386,1367,1343,1322,1306,1299,1294,1292,1293,1330,1447,1666,1943,2159,2326,2415,2437,2429,2412,2391,2370,2345,2306,2242,2161,2083,2016,1966,1938,1918,1902,1887,1871,1844,1802,1754,1714,1677,1645,1612,1582,1549,1524,1533,1599,1760,1996,2231,2394,2469,2476,2449,2414,2384,2356,2325,2271,2195,2095,2001,1929,1886,1868,1864,1866,1867,1867,1867,1867,1867,1867,1867,1867,1867,1858,1836,1808,1804,1873,2045,2299,2552,2733,2857,2897,2875,2823,2763,2698,2636,2571,2473,2383,2301,2234,2187,2165,2159,2157,2156,2145,2120,2088,2062,2040,2015,1991,1967,1939,1905,1869,1847,1869,1952,2119,2316,2482,2570,2575,2533,2462,2390,2325,2265,2202,2139,2062,1981,1908,1849,1818,1813,1817,1815,1806,1786,1762,1739,1718,1695,1677,1667,1657,1643,1625,1607,1625,1721,1903,2129,2296,2416,2462,2446,2396,2343,2301,2252,2197,2128,2045,1951,1867,1800,1738,1682,1623,1568,1528,1504,1487,1472,1452,1427,1396,1371,1334,1297,1263,1243,1272,1360,1531,1757,1967,2110,2181,2196,2180,2151,2118,2084,2048,1999,1935,1847,1754,1679,1652,1682,1735,1793,1802,1734,1598,1425,1267,1048,750,392,111,27,6,1,0,0,0,187,514,1495,1942,2060,2073,2052,2029,2015,2000,1981,1954,1922,1886,1861,1825,1783,1735,1684,1632,1590,1562,1529,1504,1489,1482,1482,1487,1481,1466,1453,1463,1507,1581,1670,1747,1792,1803,1794,1786,1771,1748,1703,1614,1465,1304,1071,794,506,227,60,15,3,0,0,0,0,0,0,0,0,4,47,115,201,307,454,639,831,989,1097,1153,1172,1168,1153,1135,1119,1107,1081,1054,1035,1033,1053,1090,1123,1145,1152,1144,1122,1107,1074,1039,1021,1029,1060,1115,1179,1251,1341,1463,1628,1809,1978,2140,2266,2355,2428,2500,2580,2682,2788,2888,2969,3028,3059,3087,3118,3158,3210,3263,3292,3309,3308,3297,3284,3271,3259,3247,3239,3229,2942,2807,2763,2746,2746,2763,2790,2815,2828,2828,2824,2818,2812,2806,2795,2779,2758,2732,2700,2670,2644,2627,2620,2618,2616,2615,2615,2616,2618,2620,2620,2618,2616,2612,2602,2580,2547,2515,2495,2497,2511,2533,2552,2558,2552,2537,2520,2497,2473,2450,2426,2399,2370,2338,2296,2251,2205,2165,2136,2120,2110,2109,2117,2128,2142,2159,2175,2190,2201,2211,2229,2261,2320,2401,2483,2550,2593,2612,2612,2596,2566,2523,2471,2414,2356,2289,2232,2193,2176,2176,2188,2208,2236,2272,2310,2346,2373,2396,2410,2411,2400,2379,2355,2337,2329,2347,2391,2448,2497,2525,2533,2523,2501,2472,2439,2410,2381,2356,2338,2327,2325,2331,2345,2362,2374,2372,2354,2329,1883,1606,1442,1321,1245,1228,1272,1372,1506,1635,1741,1827,1903,1982,2032,2021,1921,1725,1515,1279,1107,1064,1139,1278,1410,1529,1615,1679,1741,1810,1874,1924,1964,1996,2027,2075,2160,2294,2523,2799,3054,3235,3336,3368,3388,3413,3441,3455,3438,3380,3289,3181,3072,2976,2901,2843,2793,2742,2685,2627,2575,2534,2502,2475,2451,2423,2390,2348,2304,2252,2196,2143,2091,2047,2015,1977,1940,1912,1909,1948,2027,2123,2235,2324,2370,2374,2351,2320,2290,2264,2238,2208,2174,2141,2103,2063,2027,1990,1955,1929,1904,1881,1861,1845,1829,1812,1792,1764,1734,1708,1687,1678,1692,1739,1819,1913,1994,2037,2046,2030,2002,1972,1945,1920,1898,1866,1824,1778,1735,1711,1702,1700,1705,1715,1723,1731,1740,1748,1754,1760,1763,1765,1766,1766,1764,1766,1783,1822,1881,1936,1991,2024,2029,2009,1976,1946,1905,1851,1787,1723,1672,1645,1643,1658,1683,1709,1731,1748,1763,1779,1796,1817,1838,1855,1868,1875,1879,1879,1877,1880,1893,1927,1980,2036,2079,2105,2114,2114,2114,2114,2114,2113,2108,2101,2091,2082,2075,2073,2073,2073,2075,2076,2079,2087,2098,2104,2105,2098,2089,2092,2128,2194,2283,2404,2519,2606,2661,2687,2691,2687,2668,2631,2571,2488,2402,2301,2191,2075,1959,1850,1770,1701,1630,1514,1315,1055,853,710,687,771,869,845,625,268,67,16,4,1,0,0,0,0,0,0,0,0,1084,1619,1800,1887,1949,2008,2076,2151,2218,2267,2299,2321,2343,2372,2410,2450,2486,2516,2540,2565,2585,2595,2597,2602,2617,2651,2700,2752,2800,2838,2862,2883,2905,2926,2946,2961,2967,2966,2964,2960,2954,2947,2937,2923,2906,2887,2869,2854,2846,2841,2841,2840,2831,2812,2785,2762,2749,2750,2763,2785,2809,2827,2831,2820,2796,2771,2754,2747,2742,2734,2717,2692,2660,2626,2598,2573,2554,2544,2540,2541,2543,2544,2541,2535,2527,2517,2511,2505,2501,2501,2503,2509,2520,2536,2559,2585,2609,2628,2642,2651,2658,2661,2661,2659,2657,2654,2650,2646,2647,2651,2660,2671,2685,2697,2706,2710,2713,2713,2711,2706,2698,2690,2683,2676,2671,2668,2672,2683,2588,2557,2556,2559,2558,2554,2547,2540,2532,2524,2514,2503,2489,2472,2456,2443,2432,2425,2423,2423,2422,2420,2418,2413,2406,2397,2389,2384,2381,2379,2380,2388,2406,2427,2454,2479,2495,2503,2506,2507,2506,2502,2493,2478,2459,2440,2425,2412,2403,2398,2395,2393,2392,2390,2388,2386,2386,2386,2388,2388,2388,2386,2384,2382,2383,2392,2411,2439,2469,2493,2506,2511,2512,2511,2511,2509,2504,2495,2482,2463,2442,2422,2404,2389,2372,2354,2335,2317,2299,2286,2271,2253,2235,2215,2197,2181,2171,2166,2176,2203,2246,2293,2332,2362,2376,2378,2375,2371,2369,2367,2361,2351,2336,2319,2305,2292,2283,2282,2286,2293,2300,2306,2311,2312,2312,2310,2306,2304,1977,1853,1864,1925,2020,2126,2271,2426,2546,2605,2602,2573,2538,2519,2514,2509,2497,2472,2434,2383,2331,2287,2255,2236,2224,2212,2201,2184,2170,2168,2166,2125,2022,1875,1713,1524,1354,1209,1228,1480,1888,2307,2619,2802,2906,2936,2913,2846,2740,2587,2348,2051,1761,1540,1414,1367,1380,1485,1694,1980,2271,2481,2651,2773,2855,2908,2939,2946,2939,2908,2845,2749,2655,2601,2593,2601,2588,2543,2482,2432,2410,2419,2456,2500,2531,2536,2519,2483,2440,2404,2379,2362,2355,2346,2337,2324,2309,2293,2277,2266,2260,2261,2262,2265,2276,2318,2418,2576,2759,2926,3045,3102,3136,3158,3177,3192,3203,3195,3180,3158,3131,3109,3092,3078,3066,3066,3076,3089,2941,2871,2848,2839,2832,2823,2810,2797,2782,2770,2770,2797,2865,2967,3052,3133,3189,3216,3220,3211,3193,3170,3148,3119,3083,3038,2992,2948,2913,2887,2871,2859,2850,2835,2818,2799,2781,2765,2752,2735,2719,2701,2683,2673,2682,2709,2780,2879,2977,3046,3075,3072,3049,3026,3006,2985,2960,2925,2879,2825,2770,2720,2678,2647,2625,2613,2602,2589,2576,2561,2542,2524,2504,2486,2471,2460,2451,2445,2457,2503,2589,2697,2788,2841,2870,2875,2867,2856,2845,2827,2807,2781,2746,2702,2659,2623,2595,2579,2572,2569,2567,2557,2547,2530,2510,2487,2464,2445,2427,2410,2396,2385,2394,2439,2499,2584,2668,2725,2749,2745,2725,2705,2689,2675,2654,2624,2587,2548,1816,1449,1324,1277,1257,1241,1220,1192,1162,1132,1103,1075,1045,1018,994,971,953,951,1006,1149,1360,1580,1748,1836,1852,1833,1798,1767,1742,1715,1678,1625,1554,1473,1395,1331,1289,1264,1257,1254,1246,1228,1203,1167,1125,1089,1058,1033,1007,979,962,981,1075,1251,1451,1621,1761,1835,1849,1828,1800,1770,1742,1707,1659,1587,1495,1405,1319,1248,1199,1171,1152,1134,1112,1088,1056,1020,986,955,927,900,874,851,844,873,960,1137,1351,1542,1662,1706,1696,1670,1641,1611,1580,1542,1490,1421,1338,1235,1167,1111,1078,1062,1057,1050,1034,1005,971,933,890,852,825,801,778,758,752,794,914,1101,1305,1447,1547,1593,1592,1570,2085,2289,2292,2239,2150,2039,1917,1801,1706,1626,1572,1545,1530,1515,1491,1450,1393,1330,1270,1219,1179,1143,1112,1090,1117,1238,1424,1716,2037,2298,2447,2495,2479,2433,2385,2343,2294,2216,2139,2033,1904,1784,1691,1628,1592,1568,1546,1513,1466,1400,1324,1266,1209,1165,1140,1119,1086,1051,1054,1151,1374,1689,2005,2226,2328,2355,2321,2266,2215,2170,2119,2055,1958,1836,1703,1578,1493,1439,1418,1411,1396,1371,1331,1281,1221,1160,1101,1050,1009,982,956,931,942,1045,1275,1526,1813,2041,2159,2175,2127,2054,2013,1975,1930,1867,1771,1657,1538,1418,1318,1246,1200,1164,1136,1088,1022,954,876,794,734,668,605,557,508,466,460,527,1099,1540,1861,2088,2201,2236,2209,2160,2107,2070,2031,1977,1895,1788,1672,1563,1480,1431,1404,1397,1385,1364,1330,1299,1259,1221,1185,1148,1116,1104,1085,1057,1046,1098,1253,1490,1743,2018,2146,2176,2134,2071,2022,1982,1952,1908,1836,1736,1645,1550,1474,1428,1407,1398,1395,1392,1370,1322,1262,1211,1183,1161,1138,1118,1093,1065,1057,1161,1292,1546,1873,2168,2361,2432,2440,2428,2423,2426,2426,2407,2356,2272,2166,2054,1994,1956,1941,1937,1925,1902,1848,1778,1720,1657,1601,1567,1534,1519,1513,1514,1554,1670,1885,2142,2368,2547,2629,2632,2584,2526,2476,2439,2395,2325,2229,2115,2017,1923,1856,1816,1796,1786,1773,1740,1686,1622,1567,1568,1626,1619,1593,1561,1533,1509,1530,1629,1859,2191,2518,2747,2846,2845,2800,2749,2710,2680,2642,2583,2493,2375,2238,2101,1992,1930,1911,1918,1924,1921,1888,1834,1776,1715,1653,1599,1568,1553,1545,1533,1550,1641,1850,2147,2400,2624,2756,2791,2767,2722,2687,2653,2606,2534,2434,2315,2194,2089,1998,1939,1916,1909,1893,1871,1831,1784,1740,1698,1653,1620,1585,1554,1528,1506,1520,1604,1781,2069,2387,2634,2766,2791,2743,2683,2632,2585,2535,2464,2374,2256,2117,1984,1876,1801,1754,1716,1668,1599,1511,1419,1360,1301,1241,1181,1123,1067,1023,992,989,1066,1266,1577,1896,2141,2302,2343,2304,2240,2183,2137,2086,2016,1917,1800,1677,1585,1512,1512,1605,1660,1690,1693,1677,1639,1595,1549,1509,1477,1456,1434,1406,1373,1353,1391,1498,1714,2001,2269,2445,2512,2501,2456,2408,2373,2333,2277,2203,2117,2015,1917,1844,1805,1793,1796,1796,1786,1758,1718,1686,1668,1647,1617,1591,1578,1569,1566,1566,1614,1760,2019,2330,2585,2718,2757,2720,2646,2582,2538,2507,2475,2426,2361,2287,2220,2174,2147,2134,2125,2109,2080,2047,2005,1952,1890,1831,1776,1737,1714,1699,1693,1703,1772,1932,2167,2480,2752,2909,2937,2885,2803,2726,2665,2611,2556,2479,2390,2273,2151,2051,1988,1955,1943,1924,1901,1873,1841,1807,1775,1750,1734,1721,1709,1697,1691,1692,1732,1868,2121,2421,2670,2793,2826,2789,2722,2641,2534,2402,2300,2181,2042,1899,1775,1685,1627,1584,1554,1519,1474,1432,1397,1358,1305,1248,1194,1152,1136,1130,1128,1132,1182,1325,1531,1821,2108,2306,2376,2341,2262,2181,2110,2065,2018,1959,1892,1808,1707,1617,1565,1547,1542,1545,1543,1526,1502,1462,1417,1392,1374,1361,1350,1344,1340,1338,1372,1496,1750,2101,2449,2690,2809,2836,2791,2708,2629,2559,2503,2446,2377,2292,2200,2118,2059,2009,1970,1942,1918,1892,1862,1821,1777,1739,1703,1670,1653,1643,1633,1639,1712,1898,2163,2429,2679,2821,2838,2768,2659,2557,2466,2392,2331,2279,2224,2166,2110,2071,2048,2036,2036,2035,2026,2008,1974,1928,1880,1832,1791,1758,1740,1724,1706,1719,1786,1980,2293,2637,2901,3039,3054,3008,2923,2831,2745,2658,2555,2429,2266,2094,1942,1840,1798,1802,1834,1870,1890,1886,1870,1858,1847,1829,1803,1770,1724,1681,1638,1621,1673,1817,2034,2238,2373,2451,2456,2417,2368,2335,2321,2305,2277,2221,2146,2068,2009,1966,1938,1916,1895,1857,1815,1765,1710,1656,1608,1562,1528,1491,1470,1464,1464,1488,1580,1752,2028,2315,2521,2607,2589,2519,2432,2352,2289,2227,2163,2097,2014,1935,1871,1828,1813,1815,1830,1833,1820,1790,1742,1692,1644,1593,1547,1516,1500,1485,1472,1476,1556,1740,2003,2272,2453,2563,2581,2531,2466,2405,2344,2277,2196,2100,2009,1934,1877,1841,1816,1791,1759,1713,1661,1622,1582,1545,1505,1466,1381,1246,1195,1158,1124,1104,1150,1268,1486,1748,1957,2048,2018,1917,1801,1684,1598,1540,1490,1436,1377,1298,1229,1177,1153,1164,1193,1229,1255,1261,1255,1236,1216,1180,1136,1090,1053,1027,1008,1002,1035,1159,1383,1664,1897,2039,2093,2057,1968,1872,1799,1743,1682,1615,1540,1465,1405,1367,1331,1297,1263,1234,1205,1184,1152,1115,1084,1059,1037,1023,1022,1010,997,1004,1071,1221,1439,1717,1951,2072,2066,1977,1881,1795,1744,1714,1680,1636,1598,1564,1542,1541,1549,1556,1553,1546,1533,1511,1480,1439,1399,1363,1323,1295,1273,1258,1248,1255,1324,1511,1795,2098,2320,2406,2384,2289,2170,2075,2014,1967,1925,1854,1757,1652,1564,1505,1476,1466,1546,1716,1749,1737,1711,1657,1586,1527,1491,1483,1493,1491,1485,1504,1611,1846,2152,2435,2662,2749,2707,2598,2486,2402,2339,2291,2222,2123,2015,1921,1837,1778,1748,1745,1746,1742,1730,1705,1662,1612,1553,1515,1476,1437,1410,1393,1388,1429,1551,1796,2121,2425,2628,2692,2659,2558,2453,2381,2345,2320,2288,2217,2112,1994,1893,1823,1796,1795,1804,1815,1810,1778,1734,1691,1625,1561,1514,1495,1500,1512,1519,1564,1699,1950,2262,2506,2684,2748,2715,2640,2563,2507,2454,2386,2299,2192,2083,1987,1907,1837,1784,1757,1740,1724,1700,1653,1585,1516,1443,1363,1319,1272,1222,1170,1134,1149,1244,1464,1782,2100,2324,2412,2397,2327,2231,2142,2074,2020,1994,2000,1946,1872,1796,1723,1658,1624,1604,1590,1578,1563,1531,1495,1440,1373,1315,1283,1271,1276,1279,1301,1404,1616,1898,2149,2308,2377,2358,2289,2216,2162,2131,2091,2035,1952,1856,1774,1723,1693,1684,1675,1654,1623,1595,1555,1508,1465,1429,1396,1374,1361,1353,1351,1354,1393,1509,1710,2000,2288,2484,2554,2530,2473,2409,2364,2341,2311,2250,2185,2119,2061,2025,2015,2013,2009,2001,1974,1932,1881,1837,1806,1786,1763,1744,1722,1692,1655,1641,1679,1818,2074,2386,2661,2810,2863,2826,2736,2636,2553,2482,2417,2341,2248,2157,2078,2022,1989,1973,1976,1982,1977,1964,1943,1902,1845,1794,1749,1725,1722,1716,1698,1694,1747,1909,2155,2417,2667,2792,2768,2692,2602,2528,2473,2432,2388,2332,2261,2188,2111,2043,1991,1965,1959,1958,1953,1942,1918,1880,1831,1796,1768,1755,1760,1772,1777,1789,1837,1966,2190,2457,2684,2806,2825,2774,2699,2628,2568,2514,2460,2383,2290,2206,2140,2094,2076,2071,2070,2059,2031,1996,1964,1936,1900,1866,1833,1808,1780,1751,1713,1695,1745,1908,2171,2414,2631,2744,2739,2657,2562,2493,2443,2397,2329,2226,2093,1959,1847,1742,1664,1620,1596,1571,1546,1501,1433,1353,1289,1249,1240,1221,1189,1135,1063,1000,1009,1129,1384,1705,1983,2142,2174,2141,2078,2021,1981,1933,1871,1789,1673,1557,1469,1422,1420,1457,1508,1561,1601,1619,1616,1607,1571,1505,1429,1361,1322,1379,1517,1560,1613,1727,1914,2115,2273,2376,2396,2359,2295,2241,2203,2166,2123,2077,2030,1973,1927,1878,1841,1830,1840,1856,1874,1890,1895,1891,1877,1857,1841,1840,1852,1872,1894,1933,2017,2162,2393,2642,2833,2925,2914,2848,2759,2682,2627,2589,2545,2498,2438,2374,2319,2284,2268,2265,2259,2252,2241,2225,2206,2179,2150,2115,2083,2063,2051,2041,2032,2040,2110,2273,2502,2727,2858,2913,2885,2806,2717,2645,2593,2552,2509,2455,2392,2328,2269,2219,2167,2124,2092,2064,2035,2002,1953,1895,1831,1774,1731,1708,1687,1668,1652,1671,1774,1939,2189,2441,2614,2666,2615,2521,2430,2358,2317,2299,2286,2264,2237,2197,2146,2096,2052,2026,2019,2032,2056,2017,1885,1823,1773,1717,1676,1667,1688,1720,1760,1831,1971,2186,2436,2659,2793,2842,2845,2818,2789,2765,2737,2699,2653,2610,2576,2569,2593,2632,2701,2787,2862,2904,2891,2827,2726,2588,2442,2305,2199,2134,2105,2093,2086,2103,2185,2350,2519,2691,2778,2737,2580,2368,2185,2021,1915,1861,1816,1728,1592,1442,1280,1154,1074,1017,964,897,773,615,462,342,268,246,228,196,152,122,169,313,605,1040,1567,2097,2555,2841,3019,3064,2987,2860,2759,2710,2699,2710,2723,2740,2757,2768,2770,2777,2775,2758,2727,2688,2643,2585,2511,2425,2341,2272,2217,2177,2178,2260,2434,2662,2858,2971,3003,2952,2857,2771,2709,2666,2627,2565,2469,2350,2219,2161,2203,2192,2182,2179,2178,2175,2165,2142,2112,2083,2057,2040,2032,2026,2022,2021,2042,2101,2194,2316,2424,2487,2496,2469,2436,2403,2380,2367,2355,2334,2307,2269,2228,2193,2170,2159,2158,2161,2165,2166,2160,2146,2128,2109,2093,2081,2071,2061,2053,2055,2085,2161,2276,2398,2492,2532,2536,2518,2493,2474,2464,2452,2429,2392,2344,2294,2251,2221,2203,2193,2186,2175,2160,2136,2111,2083,2057,2038,2029,2030,2032,2030,2027,2036,2076,2165,2263,2371,2452,2485,2475,2438,2399,2366,2337,2310,2278,2241,2210,2189,2180,2183,2195,2213,2230,2240,2244,2243,2240,2239,2236,2234,2234,2236,2239,2240,2241,2252,2282,2342,2410,2460,2481,2479,2470,2465,2466,2480,2472,2352,2172,1909,1606,1310,1058,866,767,690,620,558,509,476,464,476,513,594,718,876,1024,1148,1267,1422,1677,2042,2435,2720,2921,2991,2948,2843,2720,2605,2470,2300,2075,1799,1480,1152,821,373,93,23,5,1,0,0,0,0,0,0,0,0,0,0,0,0,0,0,0,0,0,0,0,0,0,0,0,0,0,0,0,0,0,0,0,0,0,0,0,0,0,2,108,327,588,841,1082,1322,1691,2247,2960,3671,3989,4069,4089,4094,4095,4095,4095,4095,4095,4095,4095,4095,4095,4095,4095,4095,4095,4095,4095,4095,4095,4095,4095,4095,4095,4095,4095,4095,4094,4073,4078,4091,4094,3738,2945,2757,2709,2689,2675,2664,2659,2658,2658,2655,2646,2633,2619,2607,2595,2584,2572,2561,2547,2531,2510,2485,2458,2432,2411,2392,2378,2369,2364,2362,2366,2382,2409,2439,2463,2476,2476,2471,2463,2456,2452,2448,2442,2435,2424,2411,2399,2389,2383,2380,2379,2379,2379,2377,2374,2371,2366,2360,2354,2349,2345,2343,2341,2343,2352,2375,2407,2435,2460,2475,2476,2471,2463,2456,2451,2446,2439,2430,2420,2409,2398,2388,2380,2375,2372,2368,2365,2360,2354,2348,2341,2335,2329,2323,2317,2312,2308,2307,2314,2331,2357,2386,2406,2413,2411,2402,2390,2378,2365,2350,2332,2313,2288,2261,2241,2228,2222,2220,2218,2212,2204,2194,2185,2178,2174,2170,2169,1964,1508,1401,1378,1380,1407,1470,1560,1655,1722,1764,1777,1770,1755,1738,1724,1704,1676,1642,1605,1571,1548,1538,1537,1548,1567,1584,1598,1608,1611,1614,1618,1625,1637,1656,1678,1699,1722,1752,1804,1870,1969,2081,2180,2241,2264,2258,2241,2224,2212,2205,2201,2196,2187,2177,2168,2160,2151,2139,2126,2115,2109,2102,2092,2081,2065,2049,2030,2010,1992,1973,1959,1955,1978,2034,2103,2166,2198,2199,2180,2154,2135,2125,2120,2111,2101,2085,2064,2043,2021,2004,1994,1990,1992,1990,1982,1967,1948,1930,1913,1899,1892,1892,1898,1910,1929,1963,2021,2096,2177,2263,2325,2354,2359,2347,2321,2284,2236,2180,2122,2069,2032,2004,1986,1974,1967,1958,1946,1988,2092,2103,2090,2075,2057,2039,2018,1997,1968,1937,1902,1877,1868,1872,1875,1861,1821,1769,1699,1630,1582,1568,1580,1606,1635,1656,1669,1680,1693,1711,1732,1755,1782,1808,1832,1852,1869,1883,1895,1909,1924,1944,1966,1994,2023,2069,2149,2266,2374,2485,2562,2592,2585,2559,2529,2502,2475,2443,2400,2345,2286,2231,2182,2149,2130,2117,2101,2084,2060,2029,1992,1952,1911,1877,1843,1813,1789,1770,1758,1764,1798,1869,1961,2046,2098,2114,2104,2078,2045,2003,1943,1870,1805,1745,1711,1711,1739,1781,1816,1845,1853,1835,1791,1733,1679,1640,1611,1598,1605,1628,1653,1672,1680,1684,1713,1783,1891,1987,2069,2119,2132,2117,2092,2071,2047,2018,1984,1922,1827,1779,1747,1730,1723,1721,1715,1703,1688,1670,1655,1639,1619,1593,1570,1552,1538,1532,1535,1568,1642,1780,1959,2125,2232,2267,2253,2210,2167,2139,2120,2095,2064,2026,1975,1929,1891,1870,1864,1866,1867,1862,1848,1830,1811,1798,1787,1776,1768,1765,1760,1754,1751,1780,1869,2022,2201,2343,2419,2440,2411,2362,2317,2285,2260,2230,2195,2153,2103,2054,2015,1983,1965,1961,1957,1948,1936,1914,1885,1859,1833,1812,1793,1777,1761,1749,1752,1794,1888,2021,2182,2313,2381,2386,2352,2308,2262,2225,2194,2163,2125,2081,2025,1965,1914,1879,1864,1861,1860,1855,1842,1823,1798,1771,1748,1718,1687,1664,1653,1658,1679,1738,1853,2017,2180,2294,2336,2392,2478,2444,2400,2367,2339,2309,2254,2176,2083,2002,1940,1905,1891,1888,1887,1876,1847,1808,1757,1701,1651,1606,1572,1560,1554,1548,1566,1652,1839,2058,2316,2524,2630,2641,2587,2521,2472,2434,2395,2337,2248,2144,2043,1938,1854,1807,1785,1765,1743,1705,1654,1596,1544,1501,1467,1421,1368,1319,1275,1242,1248,1325,1513,1793,2087,2348,2425,2381,2285,2222,2174,2152,2114,2034,1919,1800,1698,1640,1619,1622,1639,1654,1649,1620,1582,1528,1479,1444,1429,1432,1438,1432,1419,1428,1516,1762,1989,2272,2401,2420,2361,2277,2205,2153,2114,2071,2003,1907,1818,1729,1661,1632,1627,1631,1632,1620,1586,1541,1497,1458,1428,1404,1380,1367,1358,1363,1400,1462,1623,1885,2189,2432,2555,2566,2505,2423,2349,2290,2245,2193,2129,2040,1945,1862,1796,1757,1745,1743,1742,1741,1731,1711,1689,1651,1607,1570,1557,1551,1548,1542,1555,1647,1857,2218,2458,2643,2749,2748,2678,2598,2525,2474,2434,2391,2331,2253,2158,2078,2004,1948,1922,1910,1899,1885,1854,1808,1759,1712,1671,1643,1624,1593,1559,1532,1545,1635,1814,2084,2363,2558,2628,2596,2517,2419,2328,2258,2200,2142,2088,2006,1903,1794,1698,1624,1588,1569,1559,1547,1534,1509,1481,1457,1425,1398,1386,1383,1389,1416,1473,1631,1902,2248,2572,2766,2868,2883,2847,2816,2807,2797,2775,2712,2585,2401,2187,1990,1849,1754,1715,1712,1709,1681,1617,1468,1252,1064,888,729,626,541,473,431,451,576,787,1100,1432,1697,1845,1893,1890,1877,1869,1860,1834,1767,1663,1541,1400,1279,1185,1127,1104,1108,1111,1108,1087,1019,878,712,451,140,35,8,2,0,0,0,0,0,0,73,120,41,10,2,0,0,0,0,0,0,0,0,0,0,0,0,0,0,0,0,0,0,0,0,0,0,0,0,0,0,0,0,0,0,0,0,0,0,55,312,567,752,909,1079,1367,1793,2253,2570,2637,2495,2270,2023,1824,1665,1581,1519,1478,1447,1433,1443,1476,1527,1603,1762,2038,2396,2737,2960,3028,2993,2893,2786,2706,2660,2630,2593,2525,2419,2288,2295,2536,2592,2608,2616,2623,2626,2623,2618,2611,2603,2595,2587,2580,2574,2562,2546,2533,2534,2558,2597,2639,2681,2708,2716,2708,2691,2671,2649,2629,2608,2587,2565,2547,2527,2508,2494,2485,2476,2470,2457,2441,2419,2395,2371,2354,2346,2343,2342,2339,2331,2325,2328,2345,2375,2405,2424,2430,2430,2429,2436,2455,2483,2519,2554,2592,2629,2661,2687,2707,2721,2741,2768,2799,2832,2859,2876,2883,2882,2876,2868,2865,2867,2871,2883,2906,2949,3014,3090,3143,3181,3191,3175,3145,3113,3084,3061,3043,3025,3004,2977,2949,2917,2895,2876,2864,2857,2852,2844,2837,2826,2813,2795,2775,2758,2744,2731,2718,2707,2707,2719,2753,2800,2841,2864,2863,2845,2821,2621,2204,2084,2040,2007,1974,1937,1900,1871,1854,1849,1846,1841,1827,1802,1770,1736,1707,1673,1631,1582,1530,1478,1433,1400,1383,1407,1480,1588,1696,1778,1840,1872,1884,1890,1898,1906,1915,1922,1924,1921,1914,1901,1880,1851,1823,1790,1744,1697,1639,1583,1531,1486,1447,1416,1392,1368,1356,1363,1399,1483,1575,1686,1785,1842,1853,1834,1819,1819,1831,1849,1865,1884,1899,1912,1919,1920,1921,1925,1926,1926,1927,1932,1943,1959,1971,1977,1984,1987,2000,2063,2188,2381,2687,3038,3354,3579,3689,3705,3672,3595,3493,3380,3264,3150,3033,2912,2796,2694,2611,2549,2503,2472,2448,2423,2395,2362,2325,2284,2240,2198,2156,2118,2082,2046,2016,1998,2011,1866,1819,1835,1854,1858,1848,1830,1811,1794,1778,1761,1742,1719,1697,1678,1662,1652,1647,1644,1640,1633,1623,1615,1609,1604,1590,1564,1505,1392,1202,954,728,624,628,717,835,934,988,995,928,781,584,398,270,217,215,226,250,293,356,436,528,630,738,843,943,1035,1111,1182,1249,1315,1381,1447,1500,1552,1602,1652,1709,1775,1839,1891,1937,1968,1991,2009,2026,2039,2055,2061,2051,2027,1994,1959,1928,1904,1888,1876,1865,1852,1837,1822,1809,1799,1791,1783,1774,1761,1746,1730,1717,1715,1726,1758,1799,1835,1853,1849,1831,1808,1787,1773,1764,1756,1746,1733,1716,1700,1687,1678,1673,1668,1664,1658,1649,1639,1629,1620,1612,2104,2324,2377,2388,2391,2392,2397,2413,2442,2476,2501,2515,2516,2506,2490,2475,2465,2459,2454,2447,2437,2424,2413,2405,2398,2393,2390,2388,2386,2385,2381,2376,2370,2366,2362,2360,2360,2360,2361,2365,2378,2398,2431,2467,2497,2511,2512,2503,2490,2476,2463,2449,2435,2422,2410,2399,2393,2392,2393,2394,2394,2392,2388,2381,2372,2360,2351,2343,2336,2333,2331,2329,2329,2333,2348,2378,2417,2454,2477,2484,2480,2469,2456,2444,2432,2422,2412,2402,2393,2387,2382,2378,2374,2370,2367,2366,2366,2368,2368,2368,2365,2360,2354,2350,2348,2346,2348,2358,2382,2418,2452,2483,2501,2500,2488,2472,2459,2450,2442,2435,2424,2412,2401,2393,2388,2388,2390,2393,2022,1839,1757,1680,1609,1554,1514,1494,1494,1512,1524,1518,1523,1579,1744,2024,2346,2612,2750,2752,2662,2536,2418,2330,2262,2199,2136,2046,1944,1845,1765,1717,1700,1704,1707,1699,1678,1644,1611,1574,1542,1519,1512,1510,1513,1515,1536,1625,1825,2114,2402,2611,2733,2741,2676,2590,2520,2467,2414,2360,2289,2197,2099,2025,1962,1921,1893,1867,1836,1795,1738,1667,1600,1535,1473,1426,1406,1392,1380,1374,1401,1497,1679,1964,2273,2500,2598,2580,2510,2424,2351,2299,2249,2179,2097,1991,1873,1773,1695,1642,1616,1605,1596,1580,1551,1508,1466,1424,1381,1355,1353,1362,1371,1385,1407,1495,1692,1965,2244,2418,2504,2500,2424,2330,2249,2193,2150,2096,1999,1888,1781,1699,1646,1611,1592,1577,1560,1538,1518,1491,1462,1421,1375,1336,1320,1315,1318,1330,1387,1557,1796,2119,2433,2635,2701,2661,2573,2500,2458,2434,2397,2338,2248,2141,2022,1916,1844,1803,1788,1783,1767,1743,1709,1672,1634,1599,1564,1543,1531,1513,1491,1490,1554,1741,2045,2387,2658,2791,2791,2721,2626,2544,2492,2453,2412,2346,2240,2105,1974,1872,1813,1783,1774,1771,1760,1737,1705,1660,1601,1545,1507,1478,1455,1438,1427,1453,1584,1847,2196,2474,2694,2802,2799,2739,2674,2618,2567,2522,2457,2363,2244,2127,2008,1903,1831,1796,1787,1784,1780,1760,1726,1675,1614,1561,1526,1501,1495,1499,1519,1578,1691,1896,2164,2402,2543,2590,2560,2532,2523,2518,2493,2414,2285,2126,1917,1698,1500,1354,1272,1235,1222,1226,1226,1217,1197,1165,1107,1034,962,917,902,910,922,977,1130,1404,1736,2013,2183,2271,2284,2267,2252,2246,2233,2209,2164,2105,2034,1958,1904,1866,1852,1861,1886,1903,1897,1863,1795,1710,1614,1510,1419,1338,1242,1126,997,914,927,1058,1304,1573,1771,1859,1857,1826,1790,1783,1808,1865,1917,1947,1950,1922,1877,1826,1766,1710,1672,1641,1634,1642,1645,1619,1553,1447,1349,1305,1326,1389,1466,1555,1683,1879,2132,2380,2535,2640,2689,2698,2685,2629,2530,2368,2149,1905,1681,1508,1406,1365,1364,1395,1448,1501,1542,1585,1650,1728,1807,1866,1896,1908,1912,1911,2055,2149,2264,2419,2668,2949,3177,3316,3371,3369,3354,3351,3350,3343,3315,3261,3175,3066,2941,2819,2703,2586,2486,2374,2257,2147,2059,2004,1983,1974,1970,1958,1929,1878,1832,1837,1950,2181,2456,2678,2779,2769,2684,2576,2487,2434,2403,2374,2324,2246,2149,2046,1946,1867,1797,1752,1735,1742,1759,1769,1763,1730,1671,1601,1535,1491,1470,1463,1494,1606,1816,2084,2342,2570,2682,2678,2619,2556,2522,2516,2522,2517,2485,2428,2364,2295,2237,2193,2170,2156,2141,2117,2066,2008,1961,1927,1911,1901,1891,1880,1870,1859,1856,1884,1993,2191,2431,2641,2772,2813,2807,2774,2734,2681,2599,2488,2359,2208,2066,1943,1836,1751,1680,1603,1510,1391,1231,1052,1198,1231,1186,1105,981,803,632,430,275,245,364,593,843,1043,1179,1234,1238,1234,1251,1290,1351,1416,1468,1487,1470,1443,1406,1385,1400,1455,1528,1590,1640,1666,1671,1660,1640,1615,1589,1557,1526,1501,1495,1528,1607,1742,1899,2033,2110,2132,2125,2117,2123,2141,2153,2143,2111,2051,1971,1894,1846,1835,1849,1873,1889,1887,1865,1830,1793,1763,1739,1719,1699,1673,1646,1618,1598,1631,1740,1913,2101,2233,2317,2338,2317,2283,2251,2228,2207,2183,2152,2121,2090,2065,2048,2043,2045,2057,2080,2106,2130,2154,2174,2178,2164,2142,2123,2106,2098,2105,2159,2285,2439,2652,2860,3003,3061,3048,3001,2947,2898,2847,2795,2739,2679,2619,2559,2508,2463,2440,2424,2405,2379,2345,2313,2289,2278,2273,2268,2255,2232,2203,2174,2155,2157,2194,2270,2360,2434,2468,2467,2440,2405,2378,2368,2371,2374,2371,2355,2326,2289,2251,2223,2203,2196,2200,2210,2217,2219,2213,2200,2186,2172,2160,2152,2147,2144,2148,2168,2213,2273,2330,2379,2401,2394,2371,2347,2333,2325,2317,2298,2267,2226,2188,2145,2102,2065,2035,2015,2005,1999,1993,1985,1978,1974,1972,1970,1967,1964,1964,1964,1964,1974,2007,2066,2144,2217,2265,2280,2268,2233,2186,2132,2071,2016,1969,1924,1891,1870,1855,1845,1841,1835,1829,1824,1814,1799,1791,1781,1776,1776,1781,1789,1801,1815,1835,1879,1956,2063,2169,2247,2292,2288,2249,2193,2141,2020,1910,1798,1640,1406,1083,766,350,89,22,5,1,0,0,0,0,0,0,0,0,0,0,0,0,13,131,336,562,759,906,1001,1063,1107,1147,1185,1218,1243,1262,1259,1250,1250,1267,1303,1353,1406,1454,1487,1503,1506,1502,1500,1491,1487,1490,1491,1491,1494,1516,1590,1725,1891,2039,2125,2165,2173,2170,2169,2171,2169,2156,2124,2077,2029,1993,1983,2000,2047,2115,2191,2261,2319,2362,2400,2432,2448,2448,2435,2419,2405,2401,2420,2482,2599,2722,2867,2991,3070,3106,3131,3173,3242,3355,3460,3514,3504,3449,3377,3303,3228,3156,3085,3013,2946,2880,2815,2751,2698,2659,2634,2624,2634,2671,2750,2887,3066,3257,3475,3639,3096,2824,2728,2667,2602,2522,2420,2294,2143,2009,1862,1728,1627,1563,1526,1514,1502,1491,1486,1491,1509,1544,1595,1655,1707,1739,1747,1745,1749,1771,1843,1981,2173,2364,2512,2621,2669,2662,2606,2510,2415,2337,2319,2362,2431,2509,2585,2699,2840,2976,3076,3125,3128,3107,3092,3090,3078,3021,2924,2819,2722,2652,2591,2522,2461,2439,2467,2526,2582,2614,2620,2604,2575,2545,2528,2531,2549,2565,2560,2523,2452,2355,2246,2148,2071,2009,1969,1952,1957,1978,2009,2050,2101,2155,2200,2233,2250,2258,2265,2283,2317,2364,2406,2436,2458,2470,2479,2488,2497,2503,2506,2505,2503,2501,2499,2495,2493,2493,2490,2483,2473,2462,2451,2441,2431,2423,2417,2413,2238,2164,2161,2190,2237,2282,2310,2320,2303,2266,2221,2177,2141,2108,2084,2066,2052,2042,2034,2026,2020,2016,2015,2014,2013,2011,2008,2003,1997,1992,1988,1983,1976,1967,1957,1951,1955,1973,2010,2053,2090,2112,2117,2109,2094,2078,2065,2053,2044,2035,2026,2019,2015,2014,2014,2014,2013,2011,2008,2001,1993,1985,1976,1970,1964,1960,1958,1956,1956,1958,1969,1996,2033,2069,2091,2100,2095,2081,2065,2052,2043,2037,2029,2021,2013,2006,2003,2002,2003,2005,2007,2006,2003,1999,1993,1986,1977,1972,1968,1967,1966,1964,1964,1973,1999,2035,2072,2109,2132,2136,2126,2109,2093,2078,2067,2057,2047,2036,2026,2019,2012,2008,2006,2004,2002,1998,1994,1990,1665,1506,1456,1435,1423,1414,1401,1393,1407,1461,1574,1729,1880,1988,2030,2018,1969,1912,1861,1815,1774,1736,1693,1656,1623,1603,1593,1590,1591,1588,1582,1568,1552,1534,1515,1494,1472,1449,1428,1413,1403,1402,1437,1530,1676,1833,1941,2009,2021,1986,1929,1876,1835,1795,1753,1706,1660,1618,1587,1566,1552,1546,1545,1540,1529,1518,1499,1478,1458,1438,1421,1412,1402,1388,1382,1398,1467,1572,1726,1880,1987,2026,2006,1954,1896,1840,1796,1758,1719,1679,1641,1601,1568,1544,1528,1522,1521,1519,1510,1494,1473,1451,1436,1422,1414,1408,1397,1386,1388,1417,1506,1648,1808,1938,2007,2016,1983,1926,1867,1817,1782,1748,1710,1668,1624,1584,1553,1536,1580,1599,1604,1597,1577,1554,1511,1462,1419,1388,1369,1350,1332,1318,1346,1484,1755,2093,2401,2661,2775,2751,2640,2511,2410,2323,2243,2156,2048,1939,1851,1775,1718,1686,1668,1654,1633,1614,1591,1559,1514,1467,1423,1397,1374,1350,1326,1322,1389,1542,1831,2195,2519,2719,2767,2708,2589,2457,2357,2286,2220,2153,2072,1966,1856,1767,1708,1682,1682,1681,1672,1649,1614,1570,1532,1486,1443,1413,1395,1375,1364,1373,1462,1680,2022,2395,2652,2810,2837,2772,2661,2547,2450,2377,2298,2194,2068,1953,1858,1798,1753,1714,1679,1628,1544,1456,1350,1240,1147,1077,1015,971,908,825,745,715,799,1025,1334,1700,1992,2146,2160,2088,2006,1927,1870,1829,1955,1987,1962,1920,1880,1855,1848,1857,1874,1891,1897,1896,1886,1872,1852,1826,1795,1771,1752,1728,1710,1721,1802,1983,2239,2503,2693,2763,2743,2661,2552,2455,2383,2327,2265,2193,2117,2053,1998,1951,1923,1912,1909,1906,1892,1876,1868,1853,1834,1814,1794,1778,1769,1758,1754,1795,1927,2161,2401,2646,2820,2876,2833,2740,2655,2579,2523,2469,2401,2323,2243,2181,2124,2081,2066,2063,2059,2051,2028,2000,1961,1920,1890,1868,1847,1816,1780,1751,1752,1803,1962,2225,2522,2760,2887,2906,2854,2771,2692,2628,2570,2510,2438,2342,2243,2158,2084,2034,2010,1999,2002,1998,1984,1953,1918,1872,1827,1785,1752,1726,1701,1690,1703,1792,1995,2280,2553,2745,2855,2859,2779,2662,2561,2487,2416,2341,2240,2117,1988,1886,1782,1705,1666,1646,1630,1618,1607,1590,1554,1499,1442,1391,1347,1302,1264,1248,1290,1452,1696,2062,2449,2727,2843,2819,2734,2631,2538,2460,2377,2286,2174,2050,1910,1786,1697,1653,1634,1631,1621,1605,1570,1521,1469,1424,1370,1322,1279,1239,1210,1206,1252,1420,1741,2149,2512,2721,2800,2758,2645,2529,2433,2362,2298,2205,2078,1938,1813,1717,1658,1618,1600,1592,1579,1553,1522,1475,1420,1364,1308,1265,1251,1239,1221,1217,1282,1489,1810,2166,2514,2727,2777,2716,2608,2508,2419,2343,2262,2164,2041,1922,1799,1691,1618,1580,1567,1562,1551,1525,1486,1439,1384,1325,1278,1241,1221,1202,1161,1150,1225,1438,1806,2232,2584,2776,2807,2738,2619,2491,2383,2294,2215,2123,2006,1879,1753,1653,1579,1536,1515,1504,1491,1462,1425,1382,1315,1242,1189,1145,1122,1114,1103,1103,1185,1410,1776,2126,2465,2686,2755,2693,2570,2456,2361,2287,2205,2107,1985,1857,1743,1640,1565,1527,1523,1533,1532,1504,1459,1412,1357,1299,1259,1227,1208,1182,1154,1149,1214,1425,1798,2238,2604,2803,2831,2761,2640,2532,2443,2373,2300,2199,2067,1937,1818,1726,1682,1666,1657,1648,1634,1612,1574,1538,1484,1428,1390,1359,1327,1291,1258,1245,1322,1549,1918,2319,2636,2852,2906,2836,2716,2607,2528,2454,2378,2279,2154,2010,1896,1791,1715,1679,1672,1668,1658,1640,1647,1625,1573,1519,1477,1452,1426,1395,1363,1347,1412,1562,1844,2206,2529,2726,2780,2742,2648,2536,2432,2342,2252,2156,2053,1927,1808,1707,1634,1598,1590,1597,1597,1574,1530,1484,1444,1398,1355,1329,1312,1298,1291,1282,1321,1462,1739,2108,2405,2637,2734,2715,2624,2518,2435,2374,2316,2240,2136,2008,1889,1794,1714,1663,1639,1622,1608,1596,1560,1511,1459,1405,1350,1318,1283,1245,1205,1177,1176,1256,1438,1744,2080,2342,2462,2453,2373,2256,2152,2073,2004,1923,1835,1723,1604,1496,1408,1352,1331,1318,1304,1291,1277,1248,1210,1167,1119,1082,1052,1024,1003,987,972,1016,1186,1487,1854,2142,2355,2439,2401,2304,2201,2125,2057,1990,1910,1807,1810,1771,1715,1663,1639,1636,1636,1636,1624,1594,1559,1517,1470,1433,1408,1384,1365,1345,1334,1360,1448,1648,1942,2247,2473,2573,2570,2494,2395,2311,2249,2195,2135,2065,1980,1894,1822,1780,1767,1771,1784,1790,1774,1748,1714,1689,1661,1629,1604,1586,1573,1564,1552,1574,1687,1921,2240,2536,2732,2839,2839,2774,2689,2611,2555,2505,2451,2373,2267,2152,2063,1991,1945,1930,1926,1925,1923,1906,1877,1839,1794,1760,1738,1721,1700,1678,1659,1674,1760,1937,2227,2539,2782,2901,2910,2862,2795,2735,2686,2641,2590,2521,2401,2299,2192,2104,2047,2018,2009,2007,2000,1980,1939,1892,1850,1807,1772,1746,1723,1701,1687,1691,1761,1942,2216,2510,2714,2847,2767,2681,2602,2537,2488,2450,2403,2337,2252,2155,2065,1999,1946,1914,1902,1892,1879,1863,1839,1809,1768,1727,1696,1679,1661,1639,1613,1600,1641,1746,1949,2213,2452,2602,2644,2607,2540,2471,2412,2378,2338,2286,2214,2118,2022,1940,1881,1856,1853,1853,1848,1835,1810,1782,1754,1718,1685,1659,1639,1614,1594,1581,1591,1669,1840,2081,2302,2441,2500,2471,2389,2292,2201,2137,2072,2001,1911,1808,1703,1630,1578,1553,1550,1556,1564,1564,1560,1537,1499,1454,1411,1378,1359,1339,1319,1300,1290,1340,1457,1673,1943,2180,2317,2345,2316,2256,2191,2137,2090,2045,1993,1923,1833,1744,1666,1613,1594,1598,1600,1592,1577,1561,1542,1523,1494,1465,1438,1418,1440,1448,1448,1474,1570,1763,2021,2229,2394,2469,2457,2395,2322,2260,2215,2169,2113,2047,1970,1898,1841,1794,1776,1782,1796,1802,1796,1775,1755,1735,1714,1692,1673,1656,1641,1627,1625,1654,1769,1921,2164,2413,2593,2669,2662,2612,2545,2486,2442,2397,2344,2283,2199,2104,2023,1956,1925,1916,1914,1910,1894,1865,1833,1802,1773,1742,1713,1689,1664,1646,1633,1646,1740,1934,2198,2454,2614,2704,2716,2677,2625,2581,2547,2515,2473,2405,2316,2215,2125,2061,2017,1996,1991,1993,1986,1964,1932,1894,1850,1809,1780,1763,1742,1726,1709,1718,1796,1929,2154,2414,2629,2749,2770,2734,2677,2628,2588,2542,2482,2404,2313,2208,2101,2010,1937,1900,1888,1889,1833,1796,1765,1730,1700,1674,1648,1627,1607,1585,1566,1563,1621,1730,1944,2200,2403,2515,2556,2530,2475,2425,2387,2358,2329,2282,2203,2103,2008,1932,1876,1845,1834,1827,1818,1802,1778,1731,1680,1649,1619,1594,1579,1561,1545,1539,1574,1675,1843,2088,2330,2496,2559,2543,2488,2424,2366,2305,2243,2152,2063,1952,1827,1711,1611,1539,1495,1459,1413,1370,1327,1302,1283,1260,1232,1209,1195,1184,1173,1176,1203,1296,1522,1732,2003,2160,2235,2234,2191,2142,2110,2077,2043,1991,1914,1825,1737,1674,1626,1598,1590,1591,1591,1586,1563,1532,1499,1461,1426,1399,1386,1377,1367,1362,1381,1463,1617,1863,2128,2335,2441,2453,2413,2341,2274,2224,2177,2166,2202,2150,2073,2003,1951,1928,1926,1936,1946,1947,1932,1904,1872,1852,1830,1805,1781,1760,1740,1727,1725,1786,1951,2211,2482,2662,2767,2783,2739,2675,2617,2571,2532,2486,2425,2342,2250,2165,2104,2063,2049,2045,2033,2009,1987,1957,1923,1882,1846,1820,1808,1803,1791,1774,1772,1842,1997,2217,2493,2721,2849,2878,2845,2791,2744,2709,2677,2630,2563,2479,2373,2267,2178,2122,2094,2086,2084,2081,2064,2033,1993,1955,1911,1866,1833,1810,1789,1772,1767,1808,1938,2162,2427,2650,2777,2830,2810,2759,2704,2657,2612,2564,2500,2418,2323,2222,2144,2073,2025,2008,2004,2003,2000,1986,1954,1911,1865,1829,1807,1792,1774,1755,1744,1785,1907,2080,2328,2525,2601,2652,2625,2561,2496,2444,2401,2353,2275,2173,2064,1940,1829,1752,1712,1698,1688,1679,1662,1629,1580,1525,1487,1445,1409,1376,1345,1313,1301,1323,1422,1641,1951,2269,2485,2567,2565,2506,2433,2381,2346,2310,2256,2170,2052,1914,1790,1705,1653,1630,1632,1638,1626,1605,1565,1516,1470,1424,1379,1351,1327,1304,1277,1265,1317,1461,1683,1974,2228,2368,2391,2340,2267,2198,2145,2090,2023,1928,1828,1697,1560,1450,1370,1329,1319,1319,1310,1279,1219,1149,1088,1041,995,958,933,914,900,897,915,1015,1244,1570,1900,2122,2252,2275,2225,2151,2080,2027,1965,1883,1778,1654,1531,1432,1372,1339,1336,1352,1367,1371,1362,1340,1325,1304,1279,1340,1518,1552,1543,1527,1533,1605,1741,1978,2266,2514,2660,2699,2661,2599,2536,2484,2441,2398,2338,2263,2169,2081,2011,1966,1952,1956,1959,1954,1931,1896,1857,1826,1801,1774,1747,1725,1700,1678,1666,1698,1829,2062,2345,2573,2698,2743,2710,2640,2568,2512,2466,2419,2362,2285,2197,2106,2041,1991,1965,1961,1960,1953,1941,1916,1876,1830,1789,1749,1714,1694,1674,1658,1654,1687,1792,1967,2220,2471,2647,2717,2704,2652,2589,2533,2482,2432,2376,2309,2222,2125,2039,1976,1942,1934,1936,1932,1921,1893,1837,1761,1684,1607,1549,1510,1466,1403,1351,1317,1350,1488,1726,1996,2192,2329,2378,2349,2280,2208,2153,2124,2106,2081,2025,1944,1862,1812,1805,1847,1918,1978,2006,1997,1957,1894,1831,1789,1768,1772,1788,1799,1802,1814,1871,2005,2212,2504,2776,2951,3002,2963,2892,2821,2768,2723,2673,2602,2510,2389,2267,2165,2101,2069,2049,2028,1994,1947,1894,1835,1793,1752,1723,1700,1678,1658,1636,1621,1623,1687,1851,2099,2353,2537,2646,2664,2626,2575,2523,2474,2414,2336,2245,2143,2038,1959,1894,1853,1831,1808,1781,1740,1693,1640,1586,1531,1483,1450,1433,1420,1416,1415,1424,1486,1601,1820,2105,2370,2542,2595,2571,2501,2423,2353,2294,2239,2178,2111,2033,1956,1892,1847,1826,1820,1817,1811,1794,1763,1724,1692,1660,1627,1584,1535,1478,1425,1357,1317,1340,1475,1722,1997,2214,2353,2370,2292,2181,2069,1969,1942,1943,1941,1926,1892,1858,1825,1801,1796,1804,1814,1818,1804,1768,1718,1661,1609,1584,1581,1595,1622,1657,1695,1750,1844,2019,2246,2456,2585,2612,2565,2472,2370,2278,2200,2132,2074,2018,1962,1900,1831,1762,1717,1684,1656,1626,1595,1564,1528,1494,1459,1433,1413,1394,1386,1380,1374,1389,1469,1654,1916,2138,2324,2416,2411,2349,2275,2216,2173,2141,2103,2056,1995,1929,1873,1825,1794,1787,1792,1800,1807,1795,1763,1733,1714,1710,1722,1740,1753,1758,1750,1760,1817,1963,2189,2431,2618,2699,2679,2602,2503,2424,2389,2386,2386,2362,2298,2194,2075,1974,1914,1897,1907,1923,1912,1857,1768,1689,1619,1587,1594,1622,1651,1669,1668,1658,1680,1801,2063,2351,2569,2711,2735,2667,2566,2484,2438,2423,2417,2403,2367,2317,2272,2233,2212,2214,2223,2232,2231,2228,2206,2155,2072,1958,1825,1703,1579,1480,1395,1327,1312,1382,1579,1859,2131,2310,2382,2380,2343,2313,2301,2290,2258,2202,2119,2031,1938,1845,1752,1666,1596,1533,1514,1547,1615,1680,1709,1686,1605,1498,1412,1382,1405,1487,1632,1852,2139,2462,2707,2904,3008,3020,2979,2922,2869,2834,2824,2818,2800,2755,2681,2581,2443,2274,2075,1860,1652,1496,1330,1164,1015,890,790,735,693,677,696,738,809,931,1121,1397,1700,1959,2136,2228,2259,2249,2200,2126,2029,1919,1814,1701,1607,1557,1579,1671,1780,1893,1960,1942,1854,1745,1748,1886,1967,2058,2149,2215,2238,2213,2154,2107,2124,2227,2375,2516,2653,2746,2799,2836,2868,2888,2913,2933,2927,2888,2830,2778,2750,2757,2793,2847,2904,2944,2953,2936,2895,2856,2828,2810,2795,2769,2714,2626,2528,2461,2438,2444,2446,2417,2355,2288,2271,2383,2593,2522,1568,445,111,27,6,1,0,0,0,0,7,145,149,45,11,2,17,155,422,789,1162,1432,1663,1945,2371,2933,3540,3943,4057,4086,4093,4095,4095,4095,4095,4060,3823,3481,3131,2825,2617,2473,2401,2391,2419,2464,2507,2576,2670,2769,2852,2903,2910,2892,2851,2800,2775,2811,2917,3068,3257,3401,3464,3450,3398,3343,3308,3301,3320,3344,3340,3282,3169,3020,2809,2576,2514,2496,2489,2485,2480,2473,2465,2457,2452,2448,2446,2445,2445,2445,2448,2456,2473,2498,2526,2551,2563,2568,2566,2561,2557,2553,2549,2546,2539,2528,2516,2505,2496,2491,2487,2485,2483,2480,2474,2467,2460,2453,2445,2439,2432,2426,2420,2414,2410,2411,2421,2436,2459,2481,2494,2497,2491,2482,2474,2468,2465,2463,2460,2454,2446,2437,2429,2422,2417,2414,2412,2410,2408,2405,2400,2396,2393,2389,2385,2382,2378,2374,2370,2370,2378,2395,2417,2436,2446,2447,2441,2433,2425,2419,2415,2412,2410,2408,2404,2401,2399,2399,2399,2400,2403,2408,2413,2416,2417,2416,2413,2408,2402,2396,2390,2386,2383,2387,2401,2422,2445,2467,2480,2481,2475,2467,2335,2047,1975,1957,1939,1895,1836,1758,1674,1600,1540,1505,1488,1477,1459,1438,1417,1399,1385,1374,1358,1335,1307,1277,1259,1278,1365,1531,1737,1921,2034,2063,2046,2002,1962,1935,1911,1879,1836,1781,1717,1655,1604,1562,1534,1515,1507,1499,1483,1457,1430,1401,1373,1344,1316,1292,1278,1263,1254,1267,1328,1461,1629,1782,1908,1966,1968,1941,1908,1879,1854,1826,1785,1729,1662,1599,1534,1484,1452,1440,1439,1437,1429,1409,1378,1335,1289,1255,1216,1178,1144,1112,1084,1079,1120,1231,1401,1584,1731,1809,1825,1801,1760,1722,1688,1650,1611,1555,1488,1420,1359,1308,1281,1266,1257,1248,1232,1208,1182,1161,1135,1114,1095,1074,1058,1046,1033,1029,1150,1466,1734,1961,2174,2306,2342,2306,2244,2190,2151,2124,2090,2038,1960,1874,1804,1738,1699,1690,1691,1692,1691,1681,1658,1631,1598,1558,1536,1515,1502,1498,1497,1505,1546,1661,1872,2130,2358,2499,2543,2520,2463,2405,2355,2313,2270,2218,2140,2051,1967,1896,1846,1826,1821,1820,1817,1802,1773,1746,1714,1684,1654,1623,1595,1578,1556,1547,1575,1691,1910,2164,2369,2519,2568,2543,2482,2424,2382,2349,2313,2269,2204,2119,2040,1959,1892,1855,1843,1840,1839,1836,1821,1792,1756,1714,1685,1663,1644,1632,1622,1616,1645,1739,1938,2205,2461,2632,2696,2687,2640,2591,2557,2530,2499,2455,2389,2298,2200,2118,2052,2017,2005,2000,1990,1978,1957,1926,1870,1782,1728,1686,1657,1628,1607,1592,1604,1695,1891,2160,2383,2567,2658,2659,2605,2541,2494,2462,2430,2383,2308,2208,2114,2039,1968,1924,1900,1889,1884,1878,1864,1834,1788,1737,1689,1655,1620,1592,1573,1556,1567,1629,1787,2038,2319,2539,2656,2675,2632,2572,2517,2473,2433,2385,2319,2227,2121,2025,1947,1890,1860,1845,1832,1809,1774,1734,1702,1659,1605,1559,1514,1476,1443,1421,1401,1427,1550,1784,2050,2270,2429,2487,2460,2394,2330,2283,2247,2207,2140,2042,1921,1819,1725,1655,1615,1605,1602,1596,1590,1566,1530,1482,1431,1392,1367,1344,1322,1301,1282,1301,1386,1573,1839,2112,2316,2407,2409,2355,2282,2225,2185,2149,2100,2037,1938,1830,1755,1732,1716,1714,1717,1712,1695,1668,1638,1616,1589,1559,1528,1507,1495,1497,1499,1514,1597,1789,2069,2349,2549,2671,2693,2646,2580,2515,2471,2432,2384,2312,2217,2122,2047,1984,1949,1938,1942,1942,1937,1923,1896,1855,1813,1771,1740,1715,1693,1673,1661,1669,1723,1857,2099,2388,2633,2774,2807,2773,2717,2660,2622,2592,2550,2494,2409,2307,2209,2127,2064,2027,2011,2007,2004,1991,1962,1921,1881,1841,1815,1792,1777,1772,1766,1763,1799,1926,2161,2451,2676,2847,2924,2910,2853,2794,2753,2727,2695,2646,2568,2466,2363,2277,2198,2155,2141,2138,2132,2117,2083,2033,1980,1935,1897,1865,1835,1801,1770,1749,1773,1853,2035,2298,2565,2757,2838,2831,2734,2570,2500,2465,2431,2380,2310,2213,2105,2007,1928,1880,1861,1856,1853,1840,1815,1783,1754,1713,1670,1632,1606,1585,1571,1554,1550,1603,1753,1993,2248,2448,2585,2624,2596,2544,2495,2459,2432,2395,2331,2246,2148,2062,1987,1927,1890,1875,1871,1864,1840,1802,1755,1708,1668,1636,1615,1595,1575,1555,1538,1557,1642,1829,2084,2341,2517,2580,2564,2506,2448,2407,2372,2325,2268,2180,2067,1949,1839,1752,1692,1659,1640,1626,1606,1571,1530,1492,1442,1393,1359,1339,1325,1317,1302,1287,1317,1441,1664,1883,2100,2241,2276,2231,2152,2086,2040,2004,1965,1906,1825,1731,1645,1560,1503,1483,1484,1492,1502,1494,1466,1424,1377,1335,1314,1290,1269,1249,1259,1315,1347,1427,1598,1847,2104,2298,2389,2393,2349,2282,2228,2188,2149,2106,2043,1957,1870,1799,1758,1749,1761,1776,1781,1780,1766,1748,1717,1688,1663,1638,1623,1614,1608,1594,1597,1658,1823,2055,2294,2519,2650,2683,2647,2586,2538,2503,2471,2429,2365,2283,2206,2122,2049,2002,1978,1972,1969,1955,1931,1902,1864,1824,1792,1773,1753,1736,1718,1698,1688,1717,1832,2052,2333,2582,2733,2779,2760,2711,2668,2636,2612,2579,2527,2448,2349,2249,2159,2099,2074,2066,2064,2061,2042,2008,1974,1934,1889,1846,1806,1780,1765,1748,1729,1740,1829,2025,2270,2494,2684,2775,2777,2728,2674,2629,2596,2563,2520,2446,2351,2256,2159,2073,2014,1981,1968,1963,1943,1912,1877,1834,1789,1758,1732,1711,1688,1658,1634,1627,1662,1780,1997,2258,2481,2607,2638,2616,2566,2517,2483,2456,2426,2375,2301,2209,2108,2021,1960,1925,1914,1915,1909,1896,1867,1830,1782,1740,1701,1672,1653,1638,1625,1614,1626,1703,1880,2082,2313,2499,2589,2593,2550,2503,2465,2432,2390,2338,2270,2188,2102,2011,1924,1857,1810,1783,1766,1747,1716,1669,1608,1551,1514,1475,1440,1416,1400,1386,1385,1415,1515,1711,1954,2173,2302,2339,2317,2257,2201,2155,2110,2070,2014,1935,1843,1748,1666,1610,1569,1559,1564,1564,1549,1530,1494,1456,1418,1380,1343,1321,1302,1283,1265,1266,1329,1470,1665,1908,2111,2222,2238,2194,2135,2076,2035,2001,1976,1957,1900,1822,1741,1683,1655,1652,1662,1672,1670,1656,1630,1601,1577,1563,1547,1536,1531,1526,1522,1528,1574,1720,1967,2259,2502,2619,2645,2603,2535,2482,2452,2429,2398,2346,2265,2165,2065,2000,1966,1958,1963,1970,1959,1932,1895,1852,1810,1772,1741,1718,1704,1691,1673,1659,1695,1829,2024,2303,2576,2755,2818,2795,2742,2686,2644,2625,2602,2554,2481,2389,2280,2180,2110,2075,2065,2062,2062,2053,2027,1986,1936,1894,1853,1823,1801,1783,1762,1745,1745,1813,1991,2260,2542,2737,2823,2831,2788,2732,2683,2645,2612,2569,2498,2397,2283,2174,2095,2037,2011,2007,2005,1997,1982,1946,1897,1847,1801,1760,1733,1715,1689,1664,1662,1720,1857,2061,2307,2514,2672,2720,2678,2608,2546,2509,2484,2448,2385,2307,2201,2081,1978,1895,1850,1831,1822,1812,1787,1748,1696,1651,1613,1575,1548,1527,1504,1479,1466,1485,1588,1810,2112,2403,2575,2657,2644,2573,2494,2433,2395,2366,2318,2230,2102,1964,1850,1770,1716,1689,1672,1651,1625,1595,1544,1484,1426,1379,1338,1312,1286,1262,1249,1256,1332,1496,1736,2044,2310,2465,2499,2450,2375,2304,2246,2198,2141,2062,1972,1857,1741,1647,1584,1560,1564,1573,1572,1548,1506,1452,1409,1364,1319,1288,1264,1249,1243,1242,1265,1368,1587,1896,2196,2402,2518,2520,2448,2371,2313,2275,2236,2185,2105,2010,1909,1843,1796,1782,1792,1811,1819,1805,1778,1728,1673,1625,1602,1597,1582,1555,1523,1499,1510,1606,1775,2057,2381,2636,2768,2775,2712,2628,2561,2516,2471,2408,2318,2216,2095,1985,1906,1875,1875,1884,1890,1883,1854,1810,1755,1710,1655,1606,1571,1544,1518,1497,1491,1535,1688,1969,2306,2579,2731,2794,2767,2701,2646,2609,2572,2519,2443,2344,2230,2122,2037,1966,1922,1900,1888,1876,1865,1838,1804,1758,1707,1658,1624,1598,1572,1541,1521,1539,1641,1834,2139,2455,2683,2785,2782,2722,2654,2599,2556,2505,2439,2360,2252,2130,2024,1941,1895,1879,1877,1869,1848,1809,1755,1706,1665,1599,1554,1519,1501,1490,1484,1489,1554,1731,2014,2334,2559,2701,2731,2675,2591,2518,2467,2428,2377,2299,2188,2066,1962,1892,1802,1687,1650,1633,1621,1599,1552,1491,1415,1336,1264,1215,1173,1134,1103,1080,1114,1232,1493,1871,2234,2464,2527,2460,2336,2203,2099,2020,1942,1856,1765,1640,1505,1382,1294,1251,1242,1238,1227,1212,1193,1158,1135,1120,1110,1100,1085,1066,1057,1049,1060,1145,1352,1673,2012,2271,2440,2468,2403,2304,2215,2147,2082,2014,1934,1835,1721,1632,1555,1506,1485,1472,1448,1419,1367,1302,1235,1168,1123,1110,1120,1132,1146,1160,1177,1230,1366,1638,2005,2359,2598,2676,2637,2537,2437,2377,2348,2320,2278,2195,2081,1970,1881,1828,1812,1812,1813,1811,1794,1758,1709,1656,1602,1560,1536,1529,1527,1531,1528,1540,1633,1861,2193,2484,2744,2897,2911,2819,2675,2537,2462,2402,2338,2257,2169,2091,2029,1978,1954,1948,1939,1920,1894,1856,1808,1765,1729,1697,1679,1654,1626,1597,1572,1565,1614,1736,1955,2207,2407,2497,2481,2404,2307,2233,2197,2163,2101,1995,1903,1809,1746,1729,1745,1770,1794,1797,1768,1719,1668,1634,1606,1583,1561,1543,1534,1522,1509,1494,1500,1581,1773,2029,2265,2460,2544,2526,2452,2365,2297,2233,2173,2100,2028,1944,1872,1808,1762,1741,1740,1733,1717,1679,1588,1453,1307,1182,1093,1031,965,897,818,726,662,679,803,1045,1332,1575,1715,1756,1728,1656,1601,1542,1497,1460,1430,1398,1368,1351,1340,1338,1330,1311,1290,1268,1246,1223,1201,1155,1076,973,860,758,698,645,776,1167,1336,1502,1656,1754,1780,1730,1630,1518,1432,1373,1314,1243,1146,1020,893,788,689,629,609,617,636,660,669,680,712,779,878,990,1112,1227,1316,1372,1419,1495,1639,1894,2228,2601,2795,2887,2892,2854,2811,2789,2783,2779,2761,2713,2639,2548,2469,2413,2385,2373,2363,2338,2287,2218,2147,2087,2026,1986,1968,1956,1931,1897,1840,1796,1808,1925,2152,2413,2558,2639,2611,2539,2423,2293,2138,1998,1778,1553,1316,1128,927,729,549,381,225,120,34,8,2,0,0,0,0,0,0,0,0,0,5,176,510,858,1155,1395,1572,1742,1916,2107,2324,2561,2758,2961,3140,3285,3401,3491,3546,3568,3574,3552,3512,3467,3017,2815,2764,2752,2746,2737,2721,2699,2675,2670,2700,2770,2859,2922,2965,2974,2952,2914,2872,2834,2797,2756,2707,2643,2568,2497,2433,2369,2316,2279,2259,2250,2248,2248,2245,2239,2233,2227,2226,2229,2234,2235,2236,2253,2291,2365,2465,2562,2631,2666,2677,2677,2679,2684,2689,2688,2678,2661,2639,2614,2591,2575,2568,2564,2561,2556,2549,2540,2528,2517,2503,2488,2474,2463,2453,2441,2432,2435,2464,2527,2607,2676,2716,2730,2718,2694,2669,2648,2630,2613,2590,2558,2517,2477,2444,2415,2394,2381,2373,2365,2352,2337,2317,2295,2273,2251,2235,2224,2215,2210,2207,2214,2238,2280,2349,2425,2485,2516,2523,2514,2499,2484,2465,2439,2408,2376,2341,2097,1596,1466,1440,1438,1433,1426,1413,1401,1390,1379,1364,1345,1327,1308,1288,1272,1262,1283,1365,1508,1673,1791,1868,1886,1851,1800,1769,1748,1727,1700,1654,1597,1541,1502,1475,1465,1473,1491,1511,1522,1520,1504,1472,1435,1402,1378,1365,1360,1359,1362,1384,1458,1568,1738,1924,2068,2149,2165,2142,2100,2076,2053,2019,1967,1909,1845,1791,1754,1734,1721,1712,1702,1680,1641,1594,1548,1513,1488,1465,1439,1412,1372,1322,1278,1262,1321,1463,1648,1816,1913,1965,1976,1962,1942,1925,1907,1884,1845,1789,1718,1643,1585,1537,1505,1486,1469,1451,1434,1420,1408,1401,1402,1413,1432,1461,1507,1569,1654,1778,1962,2153,2385,2599,2750,2827,2841,2748,2666,2591,2510,2411,2287,2141,1989,1821,1682,1587,1526,1479,1432,1369,1301,1243,1205,1190,1197,1224,1263,1307,1354,1411,1476,1580,1736,1932,2134,2295,2383,2399,2376,2330,2283,2240,2197,2154,2107,2064,2026,1998,1980,1967,1959,1950,1932,1905,1871,1841,1816,1795,1782,1770,1760,1751,1741,1731,1731,1757,1827,1936,2055,2179,2258,2278,2254,2212,2174,2146,2126,2103,2072,2026,1974,1917,1863,1827,1813,1813,1820,1824,1821,1806,1779,1746,1712,1677,1639,1605,1578,1555,1538,1533,1555,1616,1708,1805,1875,1904,1901,1873,1828,1766,1683,1599,1489,1369,1257,1164,1092,1039,1001,962,932,904,853,777,686,561,436,328,257,229,247,282,334,1056,1435,1628,1775,1934,2086,2210,2295,2346,2372,2384,2393,2400,2406,2405,2397,2384,2366,2351,2340,2334,2334,2335,2336,2333,2325,2310,2293,2277,2263,2251,2239,2227,2217,2213,2223,2259,2325,2401,2466,2501,2507,2498,2480,2463,2448,2433,2413,2388,2358,2329,2305,2290,2282,2277,2273,2266,2258,2249,2239,2229,2220,2213,2208,2201,2194,2186,2179,2177,2192,2233,2294,2358,2424,2466,2476,2461,2435,2412,2395,2379,2363,2345,2323,2303,2283,2265,2258,2256,2256,2255,2251,2245,2237,2224,2209,2195,2183,2173,2165,2159,2152,2149,2156,2183,2238,2310,2376,2415,2420,2402,2376,2351,2333,2317,2302,2285,2264,2242,2222,2208,2201,2198,2196,2191,2182,2168,2149,2195,2200,2182,2165,2157,2157,2161,2164,2164,2169,2198,2261,2341,2413,2471,2497,2496,2482,2469,2456,2441,2417,2384,2349,2320,2301,2289,2283,2273,2257,2235,2218,2203,2191,2179,2168,2156,2143,2130,2114,2100,2094,2096,2107,2138,2202,2296,2397,2475,2511,2512,2488,2455,2426,2406,2387,2364,2327,2282,2238,2202,2179,2168,2165,2166,2164,2160,2153,2146,2138,2125,2108,2093,2081,2073,2069,2066,2070,2092,2145,2226,2303,2380,2429,2440,2422,2396,2374,2356,2343,2328,2306,2280,2256,2237,2226,2225,2230,2237,2236,2227,2212,2197,2186,2179,2175,2171,2162,2148,2126,2097,2072,2069,2100,2171,2260,2338,2379,2382,2360,2328,2302,2286,2273,2257,2238,2216,2197,1869,1725,1684,1666,1632,1581,1526,1481,1464,1466,1467,1435,1364,1259,1156,1093,1090,1160,1336,1631,2016,2376,2624,2766,2768,2682,2584,2528,2506,2504,2469,2365,2196,2019,1894,1830,1834,1882,1926,1934,1907,1834,1746,1657,1597,1573,1570,1576,1574,1548,1502,1464,1490,1614,1876,2216,2527,2715,2756,2696,2587,2471,2395,2362,2364,2384,2417,2434,2428,2411,2405,2403,2411,2419,2420,2404,2365,2315,2251,2169,2082,2015,1965,1932,1909,1905,1959,2111,2372,2676,2888,3023,3044,2973,2863,2763,2682,2630,2575,2498,2396,2275,2162,2075,2012,1973,1936,1888,1828,1786,1747,1704,1645,1575,1496,1431,1371,1325,1295,1288,1343,1479,1684,1960,2211,2357,2389,2344,2238,2161,2107,2055,1988,1900,1819,1716,1619,1541,1504,1506,1536,1596,1688,1814,1969,2130,2269,2364,2435,2472,2490,2503,2503,2493,2500,2573,2752,3006,3228,3352,3382,3303,3140,2925,2690,2489,2287,2079,1871,1677,1505,1386,1293,1225,1177,1149,1126,1106,1087,1058,1029,1005,986,974,973,970,970,986,1057,1225,1444,1735,2008,2183,2238,2199,2135,2063,2012,1971,1927,1865,1787,1708,1624,1559,1510,1476,1455,1441,1418,1386,1344,1307,1278,1265,1247,1231,1224,1221,1214,1225,1279,1421,1655,1927,2151,2261,2262,2186,2085,2005,1955,1922,1886,1830,1746,1662,1592,1540,1519,1520,1533,1536,1522,1492,1464,1428,1394,1371,1357,1345,1340,1337,1328,1323,1433,1557,1709,1874,2041,2144,2170,2145,2095,2054,2024,2000,1972,1931,1874,1818,1760,1711,1682,1668,1664,1665,1662,1648,1622,1586,1550,1524,1506,1492,1483,1474,1463,1461,1482,1559,1705,1896,2078,2202,2248,2237,2193,2144,2097,2049,2006,1951,1886,1815,1749,1696,1660,1635,1605,1573,1541,1511,1490,1482,1481,1486,1493,1491,1478,1465,1442,1423,1429,1491,1625,1773,1929,2045,2087,2062,2007,1947,1910,1889,1876,1858,1826,1792,1753,1705,1666,1641,1638,1649,1659,1656,1635,1594,1545,1499,1471,1452,1443,1440,1440,1444,1465,1525,1657,1843,2033,2169,2227,2224,2187,2143,2110,2091,2074,2052,2014,1958,1899,1844,1801,1776,1760,1752,1748,1742,1730,1715,1719,1702,1678,1679,1704,1735,1756,1777,1843,2018,2319,2643,2906,3095,3152,3104,3001,2894,2807,2721,2629,2524,2408,2289,2201,2128,2081,2062,2045,2018,1990,1954,1893,1812,1728,1651,1571,1503,1419,1317,1202,1094,1067,1161,1438,1849,2249,2533,2661,2675,2639,2601,2582,2575,2543,2457,2319,2124,1941,1825,1794,1829,1887,1940,1962,1944,1899,1851,1816,1792,1776,1769,1756,1740,1727,1726,1768,1936,2250,2645,2995,3211,3320,3304,3217,3123,3031,2944,2834,2695,2536,2367,2200,2063,1936,1824,1738,1683,1648,1629,1603,1573,1540,1494,1421,1340,1277,1223,1189,1189,1253,1415,1660,1999,2324,2542,2620,2595,2527,2455,2415,2391,2352,2272,2179,2037,1876,1744,1666,1640,1646,1661,1667,1661,1641,1604,1562,1531,1507,1496,1500,1509,1518,1531,1567,1686,1916,2217,2497,2658,2727,2710,2646,2586,2547,2518,2483,2423,2344,2251,2164,2094,2055,2048,2056,2060,2052,2028,1993,1944,1898,1860,1819,1778,1741,1700,1659,1641,1696,1859,2072,2356,2617,2774,2813,2762,2684,2617,2573,2537,2494,2421,2327,2223,2108,2014,1949,1915,1906,1907,1901,1876,1828,1770,1716,1682,1654,1629,1608,1592,1579,1577,1615,1740,1967,2252,2507,2664,2717,2700,2648,2601,2577,2551,2511,2446,2361,2259,2159,2078,2033,2008,2000,1998,1995,1975,1945,1902,1854,1806,1760,1723,1701,1687,1670,1672,1723,1868,2093,2341,2601,2770,2826,2794,2734,2682,2608,2556,2503,2422,2316,2211,2095,1990,1915,1877,1868,1869,1868,1850,1809,1756,1702,1654,1616,1578,1546,1526,1508,1506,1543,1680,1930,2245,2533,2711,2763,2740,2689,2639,2592,2543,2488,2413,2309,2191,2075,1975,1912,1882,1873,1869,1854,1828,1784,1736,1682,1621,1560,1518,1488,1477,1475,1476,1514,1650,1895,2181,2420,2606,2673,2651,2597,2546,2512,2477,2431,2358,2250,2117,2001,1891,1803,1750,1732,1723,1719,1698,1661,1606,1547,1490,1449,1405,1370,1340,1314,1298,1315,1398,1589,1858,2135,2336,2426,2428,2384,2338,2307,2273,2221,2153,2049,1923,1793,1678,1590,1543,1525,1518,1510,1489,1451,1401,1354,1302,1244,1197,1160,1147,1141,1132,1139,1208,1482,1765,1994,2200,2321,2349,2319,2267,2224,2187,2154,2109,2034,1930,1825,1731,1654,1612,1600,1606,1608,1599,1572,1534,1494,1450,1408,1383,1361,1347,1332,1321,1331,1381,1515,1745,2024,2267,2409,2451,2427,2374,2327,2290,2254,2213,2164,2084,1983,1876,1789,1738,1725,1730,1733,1718,1689,1651,1622,1586,1546,1513,1492,1481,1481,1482,1497,1557,1705,1943,2202,2400,2538,2579,2556,2509,2469,2439,2408,2370,2311,2225,2122,2033,1949,1883,1856,1853,1851,1846,1826,1788,1742,1695,1658,1629,1604,1575,1551,1530,1528,1577,1705,1940,2219,2452,2591,2632,2614,2575,2534,2507,2481,2438,2375,2286,2177,2064,1970,1905,1874,1870,1879,1880,1861,1833,1801,1769,1754,1720,1687,1662,1639,1625,1623,1671,1808,2048,2341,2557,2709,2762,2745,2705,2668,2640,2612,2572,2501,2398,2278,2171,2086,2014,1967,1951,1945,1931,1914,1885,1840,1787,1736,1690,1656,1625,1600,1578,1563,1594,1711,1904,2179,2438,2602,2663,2651,2616,2582,2561,2538,2494,2424,2334,2218,2099,1990,1914,1882,1882,1893,1896,1877,1838,1786,1743,1700,1656,1617,1590,1568,1556,1556,1577,1677,1879,2161,2419,2586,2673,2671,2626,2589,2567,2544,2505,2436,2341,2226,2106,2010,1921,1859,1828,1810,1785,1751,1708,1642,1569,1505,1447,1401,1377,1365,1354,1350,1360,1434,1575,1810,2078,2298,2421,2440,2404,2348,2300,2259,2221,2163,2083,1989,1866,1744,1645,1577,1555,1562,1571,1567,1545,1515,1480,1445,1400,1355,1320,1295,1272,1262,1261,1308,1444,1677,1958,2187,2310,2350,2326,2278,2238,2216,2191,2145,2069,1968,1856,1751,1682,1637,1624,1637,1654,1657,1648,1623,1590,1564,1539,1510,1491,1478,1467,1457,1463,1521,1662,1875,2160,2417,2571,2614,2584,2539,2502,2483,2459,2410,2333,2242,2133,2029,1943,1896,1882,1884,1880,1870,1844,1798,1747,1706,1678,1650,1621,1596,1574,1556,1557,1604,1737,1971,2255,2498,2627,2674,2647,2587,2540,2509,2483,2440,2370,2275,2165,2051,1961,1905,1881,1881,1884,1880,1864,1838,1792,1742,1702,1667,1641,1625,1599,1568,1550,1579,1705,1889,2155,2413,2589,2655,2627,2562,2503,2495,2476,2440,2377,2291,2190,2068,1957,1876,1833,1824,1829,1829,1812,1782,1743,1701,1669,1638,1614,1599,1590,1594,1610,1651,1757,1947,2204,2442,2592,2647,2642,2610,2578,2553,2527,2490,2431,2344,2240,2131,2034,1973,1935,1917,1907,1897,1877,1852,1808,1759,1706,1660,1621,1596,1586,1576,1573,1606,1714,1901,2132,2390,2578,2659,2651,2603,2553,2502,2461,2416,2351,2262,2175,2085,1999,1929,1881,1845,1814,1791,1758,1716,1662,1608,1557,1514,1467,1430,1404,1381,1361,1362,1418,1559,1776,2011,2190,2269,2275,2226,2165,2118,2089,2059,2015,1945,1852,1754,1668,1612,1584,1567,1555,1542,1519,1486,1464,1439,1411,1380,1346,1318,1305,1293,1283,1286,1328,1494,1715,1948,2177,2317,2345,2295,2226,2175,2142,2111,2061,1983,1884,1792,1697,1628,1597,1597,1607,1616,1611,1593,1563,1524,1483,1463,1444,1433,1436,1452,1477,1510,1558,1671,1877,2143,2394,2550,2602,2574,2504,2439,2393,2360,2328,2275,2199,2115,2038,1975,1939,1922,1922,1919,1905,1878,1851,1824,1785,1748,1713,1688,1676,1672,1666,1669,1692,1786,1982,2199,2443,2627,2700,2681,2621,2559,2508,2464,2413,2344,2251,2154,2073,2011,1977,1971,1977,1983,1976,1950,1912,1870,1842,1820,1809,1799,1790,1786,1783,1784,1809,1901,2099,2379,2663,2866,2954,2953,2907,2862,2840,2824,2798,2747,2657,2540,2417,2317,2255,2228,2225,2223,2209,2177,2129,2082,2035,1901,1819,1768,1731,1712,1694,1676,1675,1718,1843,2032,2231,2420,2523,2525,2466,2390,2326,2268,2213,2152,2066,1970,1891,1820,1773,1759,1767,1781,1791,1790,1772,1727,1654,1543,1405,1250,1042,821,605,397,221,104,38,79,196,321,404,468,561,756,1082,1483,1868,2126,2294,2381,2413,2418,2411,2401,2385,2363,2333,2280,2192,2083,1983,1886,1824,1794,1770,1730,1680,1598,1493,1409,1389,1457,1565,1684,1734,1682,1558,1411,1295,1213,1118,985,785,490,151,37,9,2,0,0,0,0,0,0,0,0,0,0,0,0,0,0,0,0,0,0,0,0,0,0,0,0,0,0,0,0,0,0,0,256,1385,2414,2791,2961,3068,3146,3207,3256,3281,3299,3308,3310,3306,3295,3272,3238,3195,3149,3107,3079,3068,3070,3081,3090,3095,3102,3116,3127,3144,3161,3171,3171,3164,3151,3141,3133,3124,3117,3116,3127,3161,3201,3259,3320,3372,3409,3433,3462,3488,3505,3507,3494,3471,3455,3458,3481,3514,3541,3543,3531,3499,3444,3363,3256,3133,3005,2857,2709,2575,2460,2375,2319,2274,2246,2233,2233,2242,2258,2276,2296,2314,2320,2307,2287,2245,2193,2144,2110,2098,2109,2138,2175,2213,2243,2262,2272,2279,2281,2285,2296,2315,2340,2365,2370,2294,2175,1954,1661,1403,1121,876,702,555,399,397,821,1821,2995,3773,4015,4075,4090,4094,4095,4095,4095,4095,4095,4095,3195,2781,2670,2637,2619,2605,2588,2566,2542,2520,2501,2486,2473,2462,2452,2442,2432,2421,2413,2407,2403,2399,2396,2391,2388,2388,2389,2383,2347,2283,2173,2037,1907,1808,1743,1717,1708,1714,1730,1751,1765,1777,1788,1797,1809,1829,1858,1893,1929,1966,1998,2019,2031,2039,2049,2067,2093,2120,2143,2159,2172,2186,2202,2218,2234,2252,2272,2292,2315,2329,2333,2330,2328,2326,2320,2298,2250,2178,2095,2033,1983,1959,1967,2000,2045,2085,2128,2165,2195,2219,2238,2253,2271,2294,2323,2354,2384,2408,2424,2438,2448,2455,2459,2459,2460,2463,2465,2466,2463,2459,2452,2446,2442,2438,2433,2428,2422,2418,2416,2414,2412,2408,2403,2397,2392,2386,2381,2378,2352,2342,2346,2352,2355,2353,2349,2341,2334,2328,2322,2315,2307,2297,2287,2278,2269,2261,2254,2248,2241,2234,2227,2221,2215,2208,2202,2196,2189,2183,2176,2169,2163,2159,2161,2168,2179,2190,2195,2198,2198,2196,2193,2191,2188,2185,2182,2177,2171,2163,2155,2147,2141,2137,2134,2132,2130,2128,2126,2124,2122,2120,2118,2115,2114,2114,2112,2112,2114,2119,2129,2140,2149,2152,2151,2149,2146,2145,2145,2145,2144,2141,2136,2130,2124,2119,2115,2114,2113,2113,2112,2110,2106,2102,2098,2094,2092,2092,2092,2090,2089,2089,2092,2103,2112,2125,2134,2138,2140,2139,2137,2135,2133,2130,2126,2122,2118,2113,2108,2103,2099,2096,2095,2095,2095,2094,2091,2087,1608,1374,1298,1263,1241,1227,1220,1223,1240,1277,1318,1374,1428,1468,1496,1516,1526,1543,1563,1584,1601,1610,1607,1592,1578,1568,1565,1566,1563,1555,1545,1527,1503,1481,1464,1451,1447,1448,1450,1450,1448,1445,1459,1497,1554,1626,1668,1689,1688,1678,1665,1656,1649,1637,1619,1595,1564,1528,1492,1458,1428,1407,1397,1390,1380,1368,1343,1325,1291,1261,1222,1197,1169,1149,1139,1143,1166,1207,1245,1282,1306,1312,1307,1300,1293,1292,1292,1289,1277,1253,1225,1199,1179,1167,1161,1155,1146,1136,1127,1119,1111,1102,1091,1081,1072,1066,1059,1051,1045,1046,1064,1101,1152,1202,1235,1247,1245,1235,1225,1217,1211,1207,1201,1189,1169,1144,1119,1185,1357,1382,1381,1390,1405,1411,1404,1383,1349,1312,1279,1254,1238,1229,1223,1227,1258,1332,1427,1519,1599,1644,1653,1640,1621,1604,1592,1574,1539,1482,1411,1347,1287,1243,1224,1221,1224,1224,1220,1208,1186,1158,1132,1110,1094,1081,1070,1067,1066,1074,1101,1169,1278,1403,1511,1580,1607,1611,1603,1589,1575,1558,1535,1505,1471,1436,1414,1405,1406,1408,1411,1409,1395,1368,1335,1304,1275,1252,1237,1228,1220,1209,1192,1180,1197,1259,1361,1453,1539,1590,1596,1571,1534,1504,1483,1462,1433,1395,1347,1302,1263,1234,1219,1210,1198,1182,1165,1142,1123,1108,1093,1073,1056,1036,1012,983,958,952,984,1061,1182,1305,1392,1427,1422,1396,1363,1523,1924,1994,1968,1910,1815,1708,1614,1555,1537,1539,1544,1544,1536,1519,1489,1452,1409,1351,1292,1240,1194,1162,1139,1126,1173,1300,1481,1649,1748,1768,1715,1620,1515,1412,1337,1245,1132,1010,894,792,737,682,614,529,450,405,404,425,415,351,259,177,118,56,14,3,0,0,0,0,0,40,195,389,572,695,724,634,456,244,84,68,230,522,749,792,744,723,735,713,643,587,585,634,705,753,707,536,316,156,121,173,323,583,926,1288,1587,1780,1891,1925,1909,1882,1852,1817,1740,1624,1471,1293,1104,961,804,642,482,305,113,28,7,1,0,0,0,0,0,0,0,0,0,351,1158,1391,1476,1525,1574,1635,1708,1802,1925,2080,2259,2449,2615,2804,3013,3226,3427,3602,3717,3820,3900,3948,3967,3959,3926,3875,3812,3740,3667,3594,3529,3472,3432,3418,3420,3421,3400,3355,3283,3185,3067,2934,2784,2643,2464,2243,1974,1662,1352,1131,1041,1038,1094,1169,1245,1321,1398,1473,1545,1607,1653,1688,1723,1756,1797,1860,1952,2070,2186,2300,2394,2462,2511,2551,2587,2622,2657,2687,2704,2710,2708,2703,2696,2691,2689,2690,2688,2683,2673,2661,2649,2639,2632,2633,2641,2654,2668,2679,2692,2714,2753,2815,2883,2937,2968,2977,2969,2956,2945,2938,2932,2924,2911,2895,2875,2858,2845,2837,2831,2828,2827,2825,2821,2815,2809,2803,2798,2643,2302,2213,2187,2177,2173,2180,2200,2230,2259,2278,2289,2290,2283,2275,2267,2261,2256,2251,2244,2235,2225,2216,2208,2202,2199,2199,2199,2197,2195,2192,2186,2177,2169,2162,2156,2151,2147,2143,2141,2148,2163,2189,2219,2241,2252,2252,2246,2238,2233,2229,2223,2215,2205,2195,2184,2174,2167,2162,2158,2155,2151,2146,2140,2133,2127,2121,2114,2108,2103,2101,2098,2096,2095,2100,2119,2148,2181,2207,2219,2219,2209,2195,2184,2176,2171,2165,2157,2146,2134,2123,2115,2110,2106,2102,2097,2091,2086,2082,2081,2081,2081,2079,2078,2078,2079,2084,2099,2130,2175,2230,2299,2364,2414,2448,2464,2468,2470,2474,2482,2498,2519,2534,2550,2563,2569,2567,2560,2593,2672,2673,2662,2646,2623,2585,2539,2497,2465,2440,2418,2394,2373,2375,2411,2471,2529,2552,2531,2481,2407,2326,2252,2188,2132,2073,2009,1940,1876,1819,1772,1736,1711,1700,1697,1691,1678,1658,1630,1596,1564,1534,1511,1498,1482,1466,1461,1487,1546,1611,1680,1727,1743,1737,1727,1722,1722,1725,1723,1707,1675,1638,1604,1575,1559,1553,1551,1544,1527,1493,1444,1386,1328,1271,1229,1187,1151,1122,1100,1086,1092,1123,1180,1245,1294,1307,1288,1248,1185,1120,1059,1002,944,890,809,704,596,500,423,388,367,363,370,384,401,428,456,489,531,582,644,710,775,840,920,1031,1175,1322,1440,1526,1558,1542,1503,1458,1425,1394,1367,1485,1789,1849,1852,1842,1833,1831,1837,1847,1859,1871,1880,1886,1888,1888,1889,1892,1894,1893,1890,1889,1899,1924,1971,2034,2089,2127,2144,2144,2139,2132,2128,2123,2113,2100,2082,2060,2039,2020,2004,1994,1986,1978,1969,1956,1942,1928,1919,1910,1901,1892,1885,1883,1885,1891,1908,1943,1997,2061,2127,2184,2247,2317,2393,2468,2530,2572,2607,2628,2638,2639,2639,2634,2629,2625,2615,2595,2566,2531,2491,2446,2401,2354,2304,2258,2210,2168,2144,2144,2176,2234,2307,2400,2485,2546,2570,2558,2525,2497,2492,2499,2479,2406,2315,2229,2196,2221,2272,2327,2370,2424,2491,2563,2629,2678,2704,2711,2714,2713,2708,2694,2673,2647,2626,2621,2637,2664,2681,2686,2669,2589,2494,2411,2350,2305,2263,2214,2150,2075,2004,1943,1894,1853,1822,1791,1751,1702,1647,1578,1502,1428,1359,1295,1246,1191,1134,1090,1084,1133,1216,1319,1398,1423,1398,1343,1289,1248,1215,1191,1162,1119,1070,1026,986,964,951,930,894,864,824,785,753,724,695,680,665,661,672,690,710,734,769,821,885,934,934,882,801,688,596,555,573,638,725,819,899,948,971,975,981,985,992,1006,1027,1047,1067,1070,1047,992,912,820,738,676,611,567,559,603,693,797,897,964,994,1002,1007,1023,1051,1085,1121,1150,1171,1191,1209,1232,1267,1314,1365,1410,1444,1465,1471,1467,1464,1463,1469,1486,1512,1649,1916,1995,2029,2069,2129,2194,2250,2285,2294,2283,2259,2229,2200,2172,2144,2117,2084,2045,2003,1965,1942,1934,1933,1933,1932,1930,1924,1918,1905,1893,1887,1891,1900,1910,1920,1930,1952,1998,2058,2119,2160,2179,2172,2150,2124,2103,2091,2084,2078,2071,2064,2055,2048,2045,2044,2047,2050,2051,2050,2045,2036,2023,2008,1993,1984,1977,1975,1973,1971,1976,1998,2041,2110,2188,2247,2274,2276,2263,2240,2215,2189,2162,2135,2107,2074,2045,2020,2000,1990,1988,1988,1985,1976,1964,1950,1938,1928,1914,1901,1889,1880,1873,1869,1867,1885,1930,1996,2060,2099,2115,2107,2084,2059,2040,2029,2021,2011,1997,1978,1957,1940,1928,1916,1901,1885,1872,1862,1710,1367,1263,1215,1178,1152,1148,1140,1131,1125,1140,1208,1340,1556,1801,1987,2074,2070,2016,1949,1885,1830,1781,1722,1650,1572,1477,1391,1329,1293,1283,1288,1284,1266,1242,1218,1194,1181,1156,1131,1113,1099,1087,1086,1091,1135,1265,1488,1740,1931,2030,2042,1989,1907,1830,1770,1726,1677,1614,1548,1486,1436,1419,1428,1457,1490,1513,1521,1522,1515,1500,1486,1474,1462,1466,1481,1496,1513,1546,1637,1800,2013,2257,2441,2516,2497,2421,2343,2277,2242,2224,2198,2149,2089,2006,1927,1868,1836,1830,1837,1848,1849,1830,1797,1763,1739,1720,1699,1689,1683,1669,1658,1670,1743,1918,2170,2420,2589,2654,2646,2593,2533,2496,2479,2458,2422,2362,2297,2274,2312,2296,2281,2280,2280,2280,2280,2275,2263,2244,2216,2179,2144,2117,2101,2089,2079,2093,2183,2368,2594,2786,2941,3003,2989,2934,2878,2833,2796,2753,2698,2629,2547,2470,2391,2329,2294,2284,2281,2274,2255,2226,2183,2127,2077,2046,2014,1993,1987,1977,1968,1990,2076,2260,2496,2708,2837,2873,2840,2787,2730,2676,2636,2590,2537,2467,2382,2301,2235,2185,2157,2142,2130,2112,2095,2068,2039,2011,1977,1942,1918,1910,1905,1899,1890,1905,1981,2132,2324,2468,2555,2564,2507,2425,2345,2292,2234,2165,2080,1976,1861,1764,1694,1643,1617,1611,1612,1608,1602,1579,1552,1517,1473,1427,1401,1386,1382,1382,1391,1425,1507,1671,1892,2118,2281,2351,2340,2251,2097,2011,1949,1896,1841,1783,1704,1625,1560,1514,1493,1497,1507,1509,1501,1482,1457,1440,1418,1382,1348,1320,1300,1296,1296,1310,1382,1536,1751,1967,2122,2221,2243,2212,2165,2131,2118,2112,2097,2065,2018,1968,1938,1918,1919,1936,1945,1948,1947,1938,1916,1894,1873,1854,1838,1826,1814,1803,1800,1839,1943,2106,2344,2569,2719,2766,2735,2672,2613,2569,2537,2505,2468,2424,2374,2330,2301,2292,2290,2290,2288,2280,2270,2249,2213,2165,2109,2047,1983,1935,1908,1893,1891,1920,2018,2206,2445,2666,2785,2836,2825,2787,2747,2705,2655,2592,2508,2417,2325,2244,2178,2135,2119,2120,2128,2129,2122,2117,2098,2065,2023,1978,1951,1946,1946,1939,1936,1957,2046,2188,2395,2605,2744,2801,2792,2754,2716,2688,2663,2624,2565,2485,2393,2300,2223,2170,2143,2135,2127,2113,2091,2069,2036,1992,1954,1926,1910,1898,1887,1876,1874,1895,1973,2119,2311,2485,2592,2622,2599,2550,2490,2438,2393,2352,2299,2239,2169,2096,2016,1945,1874,1810,1749,1686,1622,1563,1514,1451,1387,1324,1277,1254,1251,1257,1264,1290,1370,1523,1697,1888,2025,2071,2050,1995,1943,1894,1850,1798,1729,1649,1578,1518,1449,1398,1374,1376,1395,1418,1435,1438,1426,1407,1377,1355,1325,1297,1275,1265,1258,1269,1319,1442,1635,1846,2013,2097,2109,2079,2035,1994,1964,1936,1910,1867,1808,1744,1690,1656,1652,1673,1707,1732,1749,1754,1759,1766,1783,1795,1806,1818,1836,1860,1894,1956,2079,2278,2499,2694,2852,2919,2906,2850,2791,2743,2708,2668,2611,2533,2448,2380,2323,2289,2285,2299,2309,2305,2285,2251,2205,2147,2089,2042,2000,1960,1931,1909,1897,1913,1990,2155,2372,2570,2693,2726,2699,2646,2594,2565,2549,2524,2483,2423,2346,2269,2205,2156,2128,2120,2124,2130,2123,2100,2068,2027,1977,1932,1896,1865,1846,1837,1833,1859,1956,2138,2357,2523,2642,2692,2685,2648,2600,2553,2506,2447,2376,2291,2203,2131,2090,2073,2074,2081,2081,2071,2055,2031,1994,1954,1922,1903,1895,1896,1892,1883,1875,1895,1956,2094,2293,2484,2604,2639,2613,2559,2503,2448,2396,2341,2284,2227,2158,2089,2027,1854,1554,1465,1427,1391,1351,1309,1250,1191,1120,1057,1014,994,998,1011,1031,1069,1169,1357,1601,1822,1941,1959,1878,1744,1611,1514,1462,1417,1353,1269,1167,1073,1014,959,926,918,910,886,854,818,759,688,622,555,496,444,388,341,309,321,421,600,878,1180,1412,1523,1519,1469,1388,1301,1222,1141,1052,952,861,759,680,640,632,643,658,659,646,635,632,636,644,647,648,656,674,680,692,714,781,942,1199,1488,1695,1823,1848,1788,1700,1623,1565,1528,1497,1460,1427,1408,1396,1402,1420,1447,1466,1478,1470,1451,1417,1378,1337,1298,1270,1266,1264,1248,1219,1203,1265,1426,1649,1924,2142,2253,2262,2217,2161,2249,2512,2555,2526,2457,2380,2299,2228,2183,2161,2148,2140,2132,2117,2089,2051,2015,1986,1960,1929,1904,1888,1876,1868,1873,1921,2049,2237,2421,2543,2591,2589,2560,2529,2506,2489,2470,2433,2370,2299,2236,2182,2137,2101,2070,2048,2041,2039,2039,2039,2037,2027,2021,2025,2035,2045,2047,2037,2038,2090,2229,2388,2572,2712,2761,2732,2671,2618,2586,2564,2544,2515,2465,2397,2321,2242,2174,2125,2090,2069,2055,2038,2019,2000,1983,1976,1978,1980,1980,1981,1984,1985,1996,2046,2167,2354,2551,2697,2758,2747,2694,2634,2590,2561,2532,2500,2468,2428,2380,2325,2268,2221,2184,2145,2101,2049,1993,1940,1887,1838,1795,1762,1738,1733,1737,1738,1751,1811,1870,1908,2077,2248,2344,2367,2356,2343,2330,2317,2303,2272,2204,2103,2005,1898,1802,1737,1707,1699,1689,1675,1660,1637,1611,1572,1530,1494,1456,1428,1412,1401,1430,1517,1695,1949,2208,2394,2467,2444,2361,2273,2211,2184,2183,2172,2144,2087,2012,1941,1895,1887,1906,1941,1967,1974,1963,1951,1938,1925,1923,1942,1973,2027,2092,2191,2326,2514,2768,3049,3245,3376,3418,3387,3336,3292,3257,3222,3170,3070,2906,2689,2483,2322,2204,2148,2144,2156,2146,2080,1923,1684,1426,1215,1091,1065,1101,1154,1177,1163,1162,1241,1432,1770,2232,2510,2699,2757,2719,2627,2545,2511,2530,2579,2624,2665,2664,2583,2432,2252,2120,2044,2074,2207,2403,2581,2680,2694,2560,2311,2235,2224,2235,2248,2270,2309,2376,2454,2510,2520,2498,2466,2444,2448,2474,2497,2514,2500,2452,2392,2350,2340,2352,2377,2397,2401,2392,2377,2352,2320,2266,2192,2114,2055,2028,2031,2048,2062,2085,2130,2215,2368,2548,2691,2765,2776,2743,2679,2586,2478,2387,2345,2347,2371,2409,2434,2427,2375,2305,2254,2250,2306,2404,2517,2616,2667,2684,2654,2580,2489,2407,2355,2346,2394,2499,2630,2744,2798,2802,2768,2708,2644,2583,2508,2399,2242,2071,1930,1835,1768,1719,1665,1611,1550,1481,1393,1314,1220,1124,1039,968,917,886,864,844,838,872,967,1117,1294,1492,1662,1781,1861,1918,1952,1959,1933,1892,1852,1812,1772,1715,1649,1586,1544,1607,1787,1844,1812,1610,1203,687,252,68,33,242,706,1310,1960,2488,2999,3433,3762,3986,4068,4089,4094,4095,4095,4090,4008,3855,3668,3457,3266,3134,3068,3036,3007,2976,2938,2893,2836,2770,2704,2626,2573,2514,2452,2387,2330,2275,2253,2284,2364,2461,2527,2563,2547,2486,2401,2315,2248,2202,2166,2135,2103,2076,2057,2039,2014,1983,1940,1897,1859,1835,1814,1797,1785,1774,1761,1749,1719,1675,1629,1602,1616,1675,1761,1854,1909,1913,1882,1850,1838,1839,1851,1865,1871,1852,1820,1760,1689,1627,1585,1562,1559,1561,1565,1575,1581,1585,1583,1578,1562,1538,1510,1479,1456,1458,1494,1574,1682,1779,1838,1859,1851,1825,1795,1761,1722,1686,1636,1659,1805,1828,1825,1820,1819,1819,1821,1822,1820,1818,1814,1806,1797,1789,1782,1780,1783,1787,1794,1809,1834,1868,1898,1923,1938,1944,1943,1942,1942,1942,1940,1938,1936,1933,1930,1928,1925,1925,1928,1934,1938,1940,1939,1938,1939,1939,1940,1942,1943,1942,1940,1942,1958,1984,2027,2074,2113,2138,2147,2146,2141,2134,2127,2121,2112,2100,2086,2068,2049,2036,2026,2020,2018,2016,2012,2004,1991,1974,1960,1945,1934,1929,1931,1938,1947,1958,1977,2004,2034,2058,2073,2078,2079,2079,2079,2081,2080,2079,2077,2072,2065,2057,2049,2045,2041,2037,2034,2032,2030,2029,2026,2021,2015,2010,2009,2012,2018,2026,2037,2055,2086,2126,2158,2184,2198,2200,2196,2320,2599,2657,2658,2636,2591,2532,2475,2421,2380,2353,2336,2323,2312,2299,2275,2247,2225,2207,2191,2174,2152,2129,2106,2087,2091,2133,2223,2340,2445,2507,2522,2510,2487,2461,2436,2410,2382,2346,2304,2236,2185,2137,2097,2073,2061,2052,2043,2028,2011,1988,1970,1957,1945,1939,1936,1927,1922,1920,1949,2025,2135,2258,2319,2348,2346,2322,2293,2265,2243,2225,2210,2183,2144,2098,2055,2030,2011,2000,1997,1994,1989,1987,1980,1967,1956,1941,1930,1925,1927,1926,1927,1945,2005,2112,2210,2314,2379,2399,2386,2367,2351,2332,2320,2303,2281,2246,2212,2173,2140,2123,2124,2133,2139,2137,2125,2101,2073,2044,2029,2017,2008,2001,1990,1980,1982,2014,2093,2145,2157,2254,2302,2295,2251,2201,2160,2121,2091,2055,1993,1886,1808,1722,1677,1656,1653,1650,1636,1617,1597,1576,1559,1536,1510,1483,1468,1450,1438,1432,1456,1561,1748,1967,2125,2222,2254,2223,2188,2147,2121,2091,2050,1981,1918,1836,1768,1727,1703,1696,1694,1692,1678,1650,1621,1589,1564,1537,1526,1520,1512,1502,1497,1534,1650,1806,2011,2198,2308,2340,2311,2264,2214,2175,2136,2098,2035,1964,1900,1834,1781,1750,1743,1744,1744,1738,1722,1702,1675,1641,1612,1586,1567,1554,1544,1542,1561,1622,1754,1946,2151,2298,2352,2346,2301,2248,2209,2177,2143,2099,2032,1943,1861,1790,1746,1727,1719,1712,1694,1660,1622,1591,1556,1523,1486,1450,1421,1371,1328,1298,1315,1431,1667,1965,2235,2449,2533,2508,2427,2339,2278,2223,2163,2080,1968,1848,1762,1693,1650,1634,1630,1625,1614,1604,1602,1599,1587,1573,1561,1539,1513,1494,1479,1469,1512,1636,1881,2195,2469,2627,2654,2602,2511,2424,2361,2306,2244,2175,2083,2001,1934,1904,1906,1917,1929,1927,1914,1883,1849,1820,1785,1744,1710,1688,1675,1654,1638,1652,1763,2004,2325,2627,2806,2885,2864,2786,2700,2625,2565,2508,2436,2337,2223,2106,2029,1992,1978,1978,1972,1959,1936,1903,1856,1811,1776,1745,1717,1708,1690,1665,1660,1723,1904,2142,2447,2714,2863,2887,2841,2779,2730,2695,2660,2606,2527,2426,2321,2223,2147,2101,2085,2077,2066,2047,2010,1938,1884,1839,1807,1780,1765,1753,1730,1718,1738,1827,2031,2325,2615,2811,2881,2861,2790,2712,2659,2622,2569,2502,2404,2288,2174,2081,2031,2017,2013,2007,1996,1974,1939,1898,1863,1824,1785,1754,1727,1707,1690,1682,1716,1847,2091,2388,2612,2773,2832,2810,2741,2670,2615,2561,2499,2420,2326,2218,2121,2048,1997,1975,1975,1967,1945,1913,1855,1795,1739,1684,1634,1597,1558,1521,1483,1463,1509,1630,1867,2169,2439,2600,2636,2595,2508,2417,2343,2276,2206,2123,2028,1912,1816,1757,1729,1724,1734,1737,1730,1709,1683,1656,1637,1612,1588,1571,1559,1548,1544,1546,1605,1774,2052,2356,2582,2691,2709,2649,2567,2493,2451,2418,2367,2284,2185,2096,2035,1916,1871,1864,1863,1856,1834,1805,1764,1719,1672,1627,1594,1581,1578,1556,1543,1585,1748,2022,2333,2644,2836,2879,2816,2698,2597,2517,2451,2385,2302,2189,2087,1990,1908,1864,1857,1856,1851,1833,1794,1747,1697,1649,1613,1588,1563,1541,1517,1490,1500,1589,1814,2158,2522,2793,2917,2916,2841,2744,2663,2605,2549,2484,2386,2268,2148,2053,1992,1955,1940,1920,1893,1865,1837,1799,1762,1718,1672,1631,1611,1592,1581,1572,1614,1766,2049,2409,2677,2870,2946,2918,2844,2775,2721,2669,2599,2512,2387,2250,2131,2049,1998,1981,1986,1988,1974,1948,1898,1846,1798,1752,1715,1688,1662,1625,1595,1596,1673,1860,2132,2473,2755,2910,2933,2877,2798,2728,2674,2531,2416,2296,2181,2044,1920,1816,1750,1723,1717,1705,1670,1623,1567,1514,1466,1423,1386,1364,1341,1309,1293,1314,1422,1668,2027,2403,2671,2768,2752,2667,2575,2490,2430,2380,2314,2225,2112,1995,1891,1827,1788,1772,1763,1737,1700,1654,1613,1562,1506,1451,1390,1352,1327,1315,1316,1368,1521,1803,2109,2439,2665,2734,2685,2584,2481,2388,2310,2220,2107,1967,1849,1756,1678,1634,1610,1591,1568,1533,1486,1433,1384,1346,1310,1286,1257,1214,1152,1093,1044,1045,1150,1408,1772,2123,2351,2413,2364,2252,2137,2046,1977,1910,1832,1716,1581,1464,1394,1370,1369,1370,1361,1333,1299,1253,1220,1177,1133,1103,1082,1064,1044,1029,1024,1083,1263,1572,1916,2255,2462,2509,2439,2314,2201,2123,2055,1990,1906,1816,1747,