-2.69
-3.12
-3.47
-3.89
-4.24
-4.64
-4.96
-5.2
-5.44
-5.33
-4.8
-3.2
-1.12
1.12
3.04
4.43
5.2
5.71
5.81
5.84
5.73
5.57
5.36
5.01
4.53
3.92
3.17
2.43
1.76
1.25
0.93
0.8
0.72
0.72
0.72
0.61
0.45
0.16
-0.16
-0.48
-0.88
-1.23
-1.6
-2
-2.32
-2.69
-3.04
-3.44
-3.81
-4.08
-4.37
-4.53
-4.56
-3.84
-2.4
-0.4
1.89
3.92
5.44
6.43
6.85
6.96
7.01
6.91
6.72
6.59
6.32
5.92
5.36
4.67
4
3.31
2.77
2.32
2.08
1.87
1.76
1.63
1.41
1.12
0.69
0.32
-0.08
-0.43
-0.8
-1.2
-1.52
-1.89
-2.24
-2.56
-2.88
-3.12
-3.44
-3.71
-3.92
-4
-3.57
-2.56
-0.59
1.65
3.76
5.55
6.61
7.2
7.44
7.44
7.28
7.07
6.85
6.56
6.21
5.73
5.12
4.45
3.71
3.04
2.51
2.13
1.84
1.65
1.49
1.2
0.85
0.43
0
-0.56
-1.15
-1.76
-2.32
-2.85
-3.36
-3.79
-4.21
-4.64
-4.99
-5.36
-5.76
-6.11
-6.37
-6.56
-6.03
-4.85
-2.96
-0.77
1.2
2.72
3.6
4.03
4.16
4.05
3.89
3.76
3.52
3.2
2.8
2.32
1.63
0.8
0.13
-0.35
-0.64
-0.75
-0.8
-0.72
-0.72
-0.72
-0.88
-1.01
-1.28
-1.6
-2.05
-2.53
-2.96
-3.39
-3.81
-4.16
-4.59
-4.96
-5.36
-5.71
-6.08
-6.4
-6.59
-6.53
-5.84
-4.45
-2.37
-0.24
1.6
2.93
3.84
4.08
4.24
4.16
3.97
3.81
3.6
3.17
2.64
2
1.23
0.48
-0.08
-0.29
-0.4
-0.48
-0.4
-0.35
-0.32
-0.32
-0.43
-0.64
-0.88
-1.25
-1.6
-2.03
-2.45
-2.88
-3.31
-3.68
-4.08
-4.43
-4.8
-5.12
-5.44
-5.71
-5.76
-5.23
-3.89
-1.92
0.24
2.27
4
4.8
5.23
5.44
5.44
5.33
5.2
5.04
4.67
4.24
3.57
2.83
2.08
1.39
0.96
0.8
0.69
0.59
0.56
0.53
0.37
0.16
-0.11
-0.53
-0.88
-1.28
-1.65
-2.08
-2.51
-2.88
-3.28
-3.71
-4.08
-4.4
-4.8
-5.17
-5.44
-5.65
-5.39
-4.48
-2.67
-0.43
1.92
3.57
4.75
5.44
5.63
5.68
5.6
5.49
5.33
5.12
4.69
4.21
3.6
2.88
2.24
1.68
1.33
1.17
1.04
0.96
0.91
0.8
0.59
0.37
0.08
-0.32
-0.69
-1.04
-1.47
-1.84
-2.24
-2.56
-2.88
-3.2
-3.6
-3.92
-4.24
-4.51
-4.67
-4.56
-3.68
-2.08
0.08
2.32
4.29
5.68
6.53
6.96
7.04
7.01
6.91
6.72
6.48
6.16
5.76
5.12
4.43
3.76
3.07
2.53
2.08
1.87
1.71
1.6
1.47
1.25
0.96
0.56
0.24
-0.08
-0.43
-0.8
-1.2
-1.55
-1.87
-2.16
-2.48
-2.8
-3.12
-3.41
-3.63
-3.84
-3.92
-3.55
-2.64
-0.67
1.57
3.68
5.36
6.53
7.04
7.25
7.09
6.88
6.56
6.29
5.92
5.49
5.01
4.32
3.6
2.91
2.16
1.57
1.15
0.8
0.67
0.45
0.16
-0.19
-0.61
-1.12
-1.65
-2.19
-2.8
-3.31
-3.73
-4.16
-4.61
-5.09
-5.44
-5.87
-6.24
-6.64
-6.96
-7.23
-7.44
-7.04
-5.97
-4.16
-2.03
0.05
1.6
2.64
3.12
3.28
3.31
3.15
2.96
2.72
2.4
2
1.36
0.67
-0.08
-0.8
-1.33
-1.76
-1.76
-1.76
-1.68
-1.68
-1.68
-1.76
-1.89
-2.16
-2.48
-2.8
-3.07
-3.36
-3.68
-3.95
-4.24
-4.53
-4.8
-5.2
-5.55
-5.87
-6.16
-6.37
-6.27
-5.52
-3.97
-1.84
0.32
2.13
3.41
4.24
4.53
4.64
4.56
4.37
4.21
3.92
3.47
2.93
2.24
1.47
0.72
0.08
-0.05
-0.16
-0.16
-0.05
0.05
0.08
0.05
-0.11
-0.4
-0.75
-1.12
-1.52
-1.95
-2.37
-2.72
-3.15
-3.52
-3.92
-4.27
-4.64
-4.96
-5.2
-5.47
-5.44
-4.77
-3.23
-1.12
1.17
3.09
4.56
5.36
5.73
5.92
5.81
5.65
5.44
5.23
4.91
4.4
3.73
2.99
2.24
1.68
1.15
0.8
0.69
0.59
0.56
0.45
0.29
0.08
-0.24
-0.56
-0.88
-1.31
-1.73
-2.16
-2.56
-2.93
-3.36
-3.71
-4.08
-4.48
-4.8
-5.12
-5.36
-5.39
-5.07
-3.84
-1.89
0.45
2.64
4.29
5.36
5.92
6.11
6.16
6.16
5.97
5.87
5.6
5.17
4.64
3.92
3.17
2.48
1.84
1.39
1.17
1.12
1.12
1.12
1.12
0.88
0.61
0.4
0.08
-0.29
-0.64
-1.04
-1.36
-1.76
-2.11
-2.48
-2.8
-3.04
-3.36
-3.6
-3.79
-3.95
-3.6
-2.45
-0.64
1.6
3.81
5.57
6.8
7.36
7.57
7.68
7.49
7.33
7.12
6.88
6.51
6.08
5.44
4.75
4.08
3.47
2.93
2.64
2.37
2.27
2.16
2.03
1.81
1.52
1.09
0.67
0.24
-0.27
-0.75
-1.2
-1.6
-1.92
-2.32
-2.56
-2.88
-3.2
-3.52
-3.84
-4
-4
-3.41
-2.16
-0.11
1.97
3.92
5.2
6
6.32
6.37
6.21
5.92
5.63
5.36
5.04
4.59
4
3.28
2.53
1.79
1.12
0.61
0.24
-0.08
-0.29
-0.51
-0.8
-1.23
-1.65
-2.08
-2.56
-2.93
-3.36
-3.79
-4.21
-4.72
-5.15
-5.57
-5.92
-6.35
-6.77
-7.04
-7.33
-7.55
-7.6
-6.8
-5.36
-3.36
-1.25
0.61
1.84
2.64
2.96
3.04
2.93
2.77
2.56
2.32
1.95
1.44
0.77
0.03
-0.64
-1.31
-1.68
-1.84
-1.89
-1.84
-1.84
-1.81
-1.81
-2
-2.21
-2.48
-2.8
-3.12
-3.44
-3.76
-4.08
-4.4
-4.72
-4.96
-5.28
-5.52
-5.79
-6.16
-6.48
-6.56
-6.13
-5.04
-2.96
-0.67
1.44
3.15
4.16
4.72
4.88
4.88
4.72
4.59
4.32
3.92
3.47
2.83
2
1.25
0.61
0.16
0.03
-0.03
0.08
0.11
0.16
0.24
0.03
-0.19
-0.56
-0.99
-1.36
-1.76
-2.19
-2.61
-3.04
-3.47
-3.89
-4.24
-4.59
-4.96
-5.28
-5.6
-5.76
-5.52
-4.48
-2.61
-0.32
2
3.81
5.12
5.87
6.13
6.24
6.11
5.95
5.76
5.49
5.07
4.56
3.87
3.07
2.24
1.68
1.25
0.96
0.75
0.64
0.64
0.45
0.29
0.08
-0.24
-0.56
-0.96
-1.36
-1.73
-2.08
-2.48
-2.85
-3.2
-3.55
-3.92
-4.24
-4.48
-4.69
-4.88
-4.8
-4.21
-2.8
-0.8
1.44
3.44
4.93
5.84
6.4
6.43
6.48
6.4
6.19
5.97
5.68
5.23
4.64
4
3.33
2.69
2.08
1.68
1.41
1.28
1.17
1.07
1.04
0.91
0.64
0.32
0.08
-0.29
-0.64
-1.04
-1.41
-1.68
-2
-2.32
-2.64
-2.88
-3.09
-3.28
-3.47
-3.52
-3.12
-2.11
-0.24
1.92
4
5.65
6.96
7.47
7.68
7.68
7.47
7.2
6.96
6.72
6.35
5.92
5.28
4.64
3.92
3.31
2.83
2.48
2.21
2.11
2
1.87
1.6
1.28
0.85
0.43
-0.08
-0.61
-1.15
-1.68
-2.19
-2.67
-3.12
-3.47
-3.89
-4.24
-4.64
-5.01
-5.28
-5.49
-5.17
-4.08
-2.35
-0.27
1.84
3.2
4.16
4.56
4.64
4.53
4.4
4.16
3.84
3.52
3.09
2.56
1.92
1.09
0.4
-0.16
-0.59
-0.75
-0.8
-0.8
-0.8
-0.96
-1.17
-1.49
-1.92
-2.35
-2.77
-3.2
-3.63
-4.11
-4.56
-4.99
-5.41
-5.76
-6.16
-6.53
-6.88
-7.25
-7.52
-7.6
-7.17
-6.05
-4.32
-2.08
0
1.68
2.72
3.31
3.44
3.39
3.23
3.04
2.8
2.43
1.92
1.25
0.45
-0.32
-1.07
-1.44
-1.6
-1.68
-1.63
-1.44
-1.41
-1.36
-1.44
-1.57
-1.79
-2
-2.27
-2.64
-2.96
-3.28
-3.55
-3.84
-4.19
-4.61
-5.04
-5.44
-5.76
-6.08
-6.24
-6.08
-5.52
-3.68
-1.55
0.8
2.77
4.27
5.04
5.47
5.57
5.52
5.28
5.01
4.8
4.35
3.76
3.04
2.21
1.47
0.8
0.37
0.11
0.08
0.19
0.24
0.32
0.19
-0.03
-0.32
-0.67
-1.04
-1.44
-1.87
-2.24
-2.64
-3.04
-3.41
-3.76
-4.16
-4.48
-4.88
-5.17
-5.39
-5.6
-5.2
-4.13
-2.32
-0.08
2.21
3.84
4.96
5.49
5.76
5.81
5.71
5.6
5.39
5.12
4.72
4.16
3.47
2.64
1.89
1.31
0.88
0.75
0.64
0.64
0.64
0.53
0.4
0.19
-0.08
-0.4
-0.72
-1.04
-1.36
-1.76
-2.08
-2.4
-2.72
-3.04
-3.36
-3.68
-3.95
-4.24
-4.35
-4.29
-3.76
-2.32
-0.29
1.92
4.03
5.57
6.64
7.15
7.36
7.36
7.17
7.01
6.8
6.45
6.03
5.44
4.77
4.03
3.2
2.67
2.24
2
1.81
1.71
1.6
1.47
1.25
0.96
0.61
0.29
0
-0.4
-0.72
-1.04
-1.33
-1.6
-1.84
-2.16
-2.43
-2.72
-2.85
-3.07
-3.2
-3.12
-2.64
-1.28
0.67
2.91
5.04
6.51
7.47
7.92
7.92
7.81
7.52
7.23
6.96
6.56
6.13
5.6
4.88
4.13
3.39
2.72
2.13
1.71
1.52
1.31
1.09
0.88
0.45
0.03
-0.48
-1.01
-1.6
-2.16
-2.77
-3.36
-3.92
-4.45
-4.99
-5.6
-6
-6.37
-6.72
-7.12
-7.44
-7.52
-7.33
-6.32
-4.64
-2.45
-0.37
1.28
2.27
2.85
3.04
2.99
2.77
2.56
2.27
1.95
1.52
0.88
0.19
-0.56
-1.36
-2.05
-2.4
-2.56
-2.56
-2.56
-2.45
-2.4
-2.48
-2.61
-2.83
-3.12
-3.41
-3.68
-4.08
-4.4
-4.72
-5.04
-5.25
-5.52
-5.84
-6.16
-6.53
-6.8
-7.09
-7.31
-7.2
-6.19
-4.53
-2.32
-0.13
1.73
2.96
3.65
3.87
3.92
3.79
3.52
3.2
2.85
2.37
1.76
0.91
0.05
-0.72
-1.28
-1.55
-1.6
-1.55
-1.39
-1.28
-1.25
-1.2
-1.36
-1.57
-1.79
-2
-2.35
-2.67
-2.96
-3.23
-3.65
-4.08
-4.48
-4.85
-5.2
-5.55
-5.92
-6.16
-6.24
-5.81
-4.72
-2.56
-0.16
2.08
3.87
4.88
5.44
5.6
5.65
5.52
5.31
5.04
4.64
4.16
3.47
2.64
1.87
1.12
0.64
0.43
0.32
0.4
0.4
0.4
0.32
0.11
-0.11
-0.48
-0.8
-1.17
-1.6
-1.92
-2.29
-2.64
-3.07
-3.49
-3.84
-4.19
-4.56
-4.88
-5.2
-5.36
-5.36
-4.67
-3.23
-1.12
1.23
3.2
4.64
5.41
5.79
6
5.89
5.79
5.6
5.36
5.04
4.56
3.92
3.23
2.4
1.76
1.23
0.88
0.77
0.72
0.8
0.8
0.75
0.56
0.32
0
-0.32
-0.56
-0.93
-1.28
-1.68
-2
-2.32
-2.64
-2.96
-3.2
-3.52
-3.79
-4
-3.97
-3.65
-2.48
-0.61
1.73
3.92
5.65
6.88
7.68
7.79
7.84
7.68
7.47
7.2
6.96
6.53
6
5.36
4.61
3.97
3.44
3.04
2.77
2.64
2.56
2.51
2.4
2.19
1.92
1.52
1.17
0.75
0.32
-0.13
-0.61
-1.04
-1.47
-1.84
-2.08
-2.32
-2.59
-2.8
-2.99
-3.09
-3.04
-2.48
-1.15
0.8
2.85
4.67
6.16
6.8
7.12
7.12
6.88
6.51
6.16
5.84
5.47
5.04
4.37
3.63
2.88
2.16
1.57
1.04
0.59
0.37
0.16
-0.05
-0.32
-0.72
-1.15
-1.63
-2.16
-2.72
-3.36
-3.92
-4.45
-4.99
-5.6
-6.11
-6.48
-6.88
-7.28
-7.65
-8
-8.24
-8.13
-7.44
-6
-3.97
-1.68
0
1.33
2.08
2.43
2.48
2.4
2.19
1.92
1.6
1.15
0.56
-0.08
-0.91
-1.65
-2.16
-2.51
-2.61
-2.64
-2.53
-2.43
-2.4
-2.4
-2.51
-2.72
-2.93
-3.2
-3.44
-3.76
-4.08
-4.32
-4.64
-4.91
-5.2
-5.44
-5.71
-5.92
-6.19
-6.29
-6.4
-6.08
-5.01
-3.28
-1.04
1.04
2.72
3.84
4.48
4.64
4.69
4.59
4.4
4.16
3.79
3.36
2.72
2.03
1.28
0.59
0.11
-0.16
-0.24
-0.19
0
0.03
0.08
0.08
-0.08
-0.4
-0.72
-1.07
-1.49
-1.92
-2.27
-2.64
-3.04
-3.44
-3.81
-4.16
-4.53
-4.8
-5.04
-5.23
-5.12
-4.56
-2.83
-0.75
1.52
3.49
4.93
5.68
6
6.05
6.08
5.84
5.57
5.28
4.85
4.32
3.6
2.77
2.03
1.36
0.85
0.53
0.24
0.24
0.24
0.24
0.11
-0.16
-0.4
-0.75
-1.12
-1.52
-1.95
-2.32
-2.64
-3.07
-3.49
-3.84
-4.21
-4.48
-4.8
-5.09
-5.25
-5.28
-4.45
-2.96
-0.88
1.39
3.41
4.8
5.71
6.08
6.16
6.21
6.11
5.92
5.71
5.39
4.96
4.32
3.63
2.88
2.16
1.57
1.12
0.99
0.88
0.96
0.96
0.85
0.72
0.51
0.24
-0.08
-0.43
-0.75
-1.04
-1.44
-1.76
-2.08
-2.37
-2.64
-2.88
-3.09
-3.31
-3.52
-3.12
-2.16
-0.56
1.71
4.05
5.84
7.17
7.92
8.24
8.27
8.11
7.92
7.68
7.36
6.96
6.51
5.92
5.12
4.48
3.89
3.44
3.23
3.01
2.88
2.88
2.77
2.64
2.4
2.03
1.6
1.17
0.75
0.24
-0.19
-0.61
-1.12
-1.63
-2.11
-2.56
-3.07
-3.44
-3.76
-3.97
-4.03
-3.6
-2.37
-0.51
1.44
3.25
4.53
5.28
5.49
5.49
5.28
4.96
4.64
4.32
3.97
3.49
2.88
2.19
1.39
0.64
0.08
-0.45
-0.88
-1.09
-1.31
-1.52
-1.76
-2.08
-2.4
-2.83
-3.25
-3.76
-4.19
-4.61
-5.12
-5.63
-6.05
-6.48
-6.91
-7.33
-7.76
-8.08
-8.4
-8.64
-8.48
-7.73
-6.08
-3.97
-1.79
0.16
1.41
2.21
2.56
2.56
2.45
2.24
2
1.63
1.2
0.53
-0.27
-1.2
-1.84
-2.37
-2.64
-2.75
-2.75
-2.64
-2.56
-2.51
-2.48
-2.69
-2.85
-3.04
-3.36
-3.68
-4
-4.37
-4.64
-4.96
-5.25
-5.52
-5.84
-6.05
-6.27
-6.48
-6.56
-6.45
-5.68
-4.19
-2
0.32
2.32
3.76
4.64
5.01
5.12
5.04
4.83
4.61
4.32
3.87
3.23
2.4
1.57
0.83
0.16
-0.29
-0.45
-0.4
-0.29
-0.19
-0.16
-0.16
-0.27
-0.56
-0.88
-1.25
-1.6
-2.03
-2.4
-2.8
-3.23
-3.6
-4
-4.32
-4.69
-5.04
-5.33
-5.6
-5.6
-4.99
-3.55
-1.52
0.85
2.93
4.48
5.28
5.76
5.92
5.81
5.71
5.52
5.2
4.83
4.32
3.63
2.77
2
1.65
0.69
0.4
0.24
0.19
0.16
0.13
0.03
-0.16
-0.4
-0.77
-1.12
-1.52
-1.84
-2.24
-2.59
-3.01
-3.44
-3.76
-4.08
-4.4
-4.69
-4.96
-5.2
-5.28
-4.75
-3.6
-1.57
0.72
2.96
4.56
5.63
6.24
6.48
6.48
6.32
6.21
6.05
5.76
5.33
4.8
4.08
3.25
2.51
2
1.6
1.33
1.2
1.09
1.04
1.04
0.93
0.77
0.56
0.27
0
-0.4
-0.72
-1.04
-1.36
-1.6
-1.92
-2.24
-2.53
-2.75
-2.88
-3.07
-3.12
-2.88
-1.84
-0.13
2.08
4.27
6.13
7.36
8.13
8.35
8.32
8.11
7.89
7.6
7.36
6.99
6.56
5.89
5.15
4.48
3.76
3.23
2.8
2.67
2.56
2.48
2.35
2.13
1.84
1.41
0.93
0.4
-0.13
-0.67
-1.28
-1.81
-2.4
-2.96
-3.49
-4.08
-4.48
-4.83
-5.2
-5.52
-5.63
-5.31
-4.32
-2.56
-0.53
1.36
2.96
3.81
4.24
4.4
4.24
3.92
3.71
3.39
3.04
2.59
1.95
1.28
0.51
-0.24
-0.8
-1.12
-1.28
-1.36
-1.33
-1.28
-1.28
-1.49
-1.81
-2.24
-2.67
-3.09
-3.52
-3.97
-4.45
-4.88
-5.31
-5.73
-6.16
-6.59
-6.96
-7.36
-7.68
-7.89
-8.08
-7.63
-6.51
-4.64
-2.35
-0.27
1.36
2.43
2.96
3.2
3.09
2.93
2.8
2.53
2.11
1.6
0.91
0.05
-0.8
-1.44
-1.87
-2.08
-2.08
-2.03
-1.92
-1.76
-1.76
-1.84
-1.97
-2.19
-2.48
-2.69
-2.96
-3.28
-3.6
-3.92
-4.16
-4.45
-4.72
-5.04
-5.39
-5.71
-6
-6.16
-6
-5.12
-3.44
-1.2
1.12
2.99
4.32
5.2
5.41
5.47
5.36
5.15
4.88
4.64
4.16
3.52
2.72
1.87
1.12
0.48
0.08
-0.08
-0.08
0.11
0.21
0.16
0.03
-0.19
-0.48
-0.8
-1.17
-1.52
-1.92
-2.29
-2.72
-3.07
-3.44
-3.84
-4.19
-4.51
-4.8
-5.17
-5.39
-5.44
-4.99
-3.65
-1.6
0.64
2.67
4.4
5.2
5.63
5.84
5.79
5.57
5.36
5.12
4.75
4.32
3.57
2.83
2.08
1.36
0.77
0.4
0.24
0.24
0.24
0.24
0.19
0
-0.21
-0.43
-0.72
-1.12
-1.44
-1.76
-2.11
-2.48
-2.88
-3.2
-3.47
-3.76
-4.08
-4.4
-4.64
-4.75
-4.43
-3.44
-1.63
0.61
3.04
4.72
6.05
6.8
7.15
7.2
7.12
6.91
6.69
6.48
6.05
5.52
4.88
4.13
3.39
2.8
2.27
2
1.84
1.76
1.71
1.6
1.47
1.2
0.88
0.48
0.16
-0.08
-0.4
-0.72
-1.04
-1.36
-1.63
-1.84
-2.05
-2.27
-2.48
-2.67
-2.83
-2.72
-1.97
-0.59
1.36
3.57
5.49
6.96
7.79
8.16
8.16
8.03
7.76
7.44
7.09
6.67
6.24
5.68
4.93
4.16
3.44
2.75
2.24
1.95
1.73
1.52
1.39
1.17
0.8
0.37
-0.16
-0.72
-1.28
-1.87
-2.4
-2.96
-3.55
-4.08
-4.61
-5.15
-5.68
-6.16
-6.48
-6.8
-7.09
-7.15
-6.8
-5.39
-3.57
-1.52
0.29
1.73
2.48
2.8
2.85
2.72
2.48
2.21
2
1.57
1.15
0.48
-0.24
-0.93
-1.6
-2.11
-2.37
-2.48
-2.45
-2.4
-2.32
-2.32
-2.43
-2.56
-2.8
-3.12
-3.44
-3.76
-4.03
-4.32
-4.64
-4.91
-5.2
-5.49
-5.76
-6.16
-6.48
-6.75
-7.04
-6.96
-6.27
-4.88
-2.8
-0.51
1.44
2.88
3.68
4.16
4.21
4.11
3.92
3.68
3.36
2.96
2.4
1.65
0.8
0.03
-0.61
-1.04
-1.07
-1.12
-1.04
-0.93
-0.88
-0.88
-0.99
-1.15
-1.36
-1.6
-1.87
-2.16
-2.59
-3.01
-3.44
-3.84
-4.21
-4.64
-4.96
-5.28
-5.68
-5.89
-6
-5.68
-4.51
-2.53
-0.24
1.92
3.68
4.88
5.47
5.68
5.68
5.55
5.33
5.04
4.69
4.21
3.6
2.83
2.03
1.2
0.96
0.43
0.32
0.29
0.24
0.24
0.13
-0.03
-0.24
-0.56
-0.88
-1.2
-1.6
-1.97
-2.32
-2.72
-3.04
-3.44
-3.79
-4.16
-4.56
-4.8
-5.12
-5.36
-5.25
-4.61
-3.04
-1.01
1.28
3.28
4.61
5.41
5.76
5.79
5.79
5.68
5.47
5.25
4.88
4.43
3.79
3.04
2.37
1.73
1.2
0.85
0.75
0.72
0.72
0.67
0.64
0.4
0.13
-0.16
-0.48
-0.85
-1.2
-1.52
-1.84
-2.24
-2.56
-2.88
-3.2
-3.44
-3.71
-4
-4.19
-4.19
-3.68
-2.51
-0.53
1.76
3.97
5.73
6.96
7.52
7.68
7.76
7.57
7.41
7.2
6.85
6.43
5.92
5.28
4.59
3.92
3.33
2.91
2.64
2.48
2.43
2.4
2.27
2.05
1.84
1.41
0.99
0.64
0.21
-0.21
-0.64
-1.07
-1.44
-1.76
-1.97
-2.19
-2.48
-2.67
-2.83
-2.96
-2.85
-2.21
-0.96
1.09
3.12
5.04
6.21
6.91
7.2
7.15
6.93
6.56
6.24
5.92
5.52
5.07
4.43
3.68
2.93
2.19
1.68
1.25
0.88
0.64
0.43
0.21
0
-0.43
-0.85
-1.36
-1.97
-2.51
-3.12
-3.65
-4.24
-4.88
-5.41
-5.95
-6.4
-6.83
-7.25
-7.52
-7.84
-8.11
-8.16
-7.33
-5.84
-3.84
-1.65
0.21
1.44
2.21
2.48
2.56
2.35
2.13
1.84
1.57
1.15
0.64
-0.11
-0.85
-1.6
-2.16
-2.43
-2.56
-2.61
-2.56
-2.48
-2.48
-2.48
-2.64
-2.85
-3.07
-3.36
-3.65
-3.92
-4.24
-4.48
-4.75
-5.04
-5.33
-5.6
-5.84
-6.05
-6.27
-6.4
-6.53
-6.37
-5.6
-3.81
-1.63
0.56
2.45
3.57
4.32
4.56
4.61
4.48
4.35
4.08
3.68
3.23
2.64
1.84
1.07
0.32
-0.32
-0.61
-0.67
-0.56
-0.45
-0.4
-0.32
-0.35
-0.45
-0.64
-0.91
-1.28
-1.68
-2.03
-2.45
-2.8
-3.23
-3.65
-4
-4.35
-4.72
-5.12
-5.36
-5.57
-5.6
-4.91
-3.47
-1.44
0.91
2.88
4.4
5.28
5.71
5.84
5.73
5.57
5.44
5.17
4.75
4.24
3.63
2.83
2
1.36
0.88
0.56
0.45
0.4
0.4
0.37
0.27
0.08
-0.16
-0.48
-0.8
-1.15
-1.57
-1.92
-2.35
-2.77
-3.12
-3.47
-3.84
-4.24
-4.56
-4.83
-5.12
-5.09
-4.77
-3.6
-1.73
0.61
2.8
4.45
5.63
6.4
6.51
6.56
6.48
6.35
6.13
5.92
5.47
4.88
4.24
3.47
2.77
2.24
1.84
1.57
1.44
1.28
1.23
1.04
0.93
0.77
0.48
0.24
-0.08
-0.4
-0.72
-1.04
-1.28
-1.6
-1.92
-2.24
-2.48
-2.75
-2.96
-3.15
-3.2
-2.96
-2.19
-0.59
1.52
3.73
5.6
7.2
7.81
8.13
8.24
8.03
7.76
7.52
7.25
6.83
6.4
5.84
5.2
4.48
3.87
3.33
2.96
2.72
2.67
2.64
2.61
2.45
2.16
1.89
1.47
1.04
0.61
0.13
-0.32
-0.75
-1.23
-1.68
-2.21
-2.69
-3.04
-3.36
-3.68
-3.92
-4.13
-3.87
-2.96
-1.28
0.69
2.72
4.05
4.96
5.44
5.44
5.28
5.04
4.72
4.4
4
3.55
2.96
2.32
1.49
0.8
0.16
-0.43
-0.8
-1.04
-1.25
-1.47
-1.76
-1.97
-2.29
-2.72
-3.15
-3.63
-4.08
-4.59
-5.01
-5.44
-5.95
-6.37
-6.8
-7.23
-7.65
-8
-8.4
-8.72
-8.8
-8.45
-7.33
-5.52
-3.28
-1.2
0.48
1.6
2.13
2.24
2.19
2.03
1.84
1.49
1.07
0.56
-0.21
-1.07
-1.84
-2.59
-2.96
-3.12
-3.2
-3.15
-2.96
-2.96
-2.96
-2.96
-3.17
-3.39
-3.6
-3.92
-4.24
-4.56
-4.88
-5.15
-5.44
-5.68
-6
-6.24
-6.53
-6.75
-6.96
-7.01
-6.59
-5.68
-3.55
-1.31
0.96
2.83
4.16
4.8
5.12
5.12
5.04
4.8
4.53
4.16
3.6
2.85
2
1.17
0.43
-0.24
-0.51
-0.61
-0.48
-0.37
-0.32
-0.32
-0.35
-0.56
-0.8
-1.23
-1.6
-2
-2.43
-2.8
-3.2
-3.6
-3.97
-4.4
-4.8
-5.12
-5.52
-5.84
-6.05
-6.16
-5.33
-3.79
-1.6
0.69
2.77
4.08
4.99
5.31
5.36
5.39
5.23
5.04
4.77
4.35
3.84
3.09
2.35
1.52
0.93
0.61
0.4
0.43
0.48
0.48
0.43
0.21
0
-0.24
-0.56
-0.96
-1.31
-1.68
-2
-2.4
-2.77
-3.12
-3.49
-3.76
-4.08
-4.4
-4.67
-4.96
-4.88
-4.24
-2.88
-0.8
1.55
3.6
5.17
6.19
6.72
6.83
6.83
6.72
6.51
6.29
6
5.55
4.96
4.24
3.49
2.85
2.32
2.11
1.95
1.84
1.73
1.57
1.44
1.2
0.83
0.4
0.08
-0.19
-0.48
-0.88
-1.2
-1.52
-1.81
-2.08
-2.4
-2.69
-2.91
-3.12
-3.25
-3.25
-2.64
-1.31
0.67
2.88
4.91
6.45
7.44
7.92
8.03
7.92
7.71
7.44
7.12
6.77
6.35
5.84
5.2
4.51
3.76
3.23
2.75
2.48
2.37
2.21
2.08
1.95
1.68
1.28
0.83
0.35
-0.16
-0.69
-1.28
-1.84
-2.45
-2.99
-3.52
-3.95
-4.32
-4.72
-5.04
-5.31
-5.52
-5.36
-4.61
-3.04
-0.99
1.04
2.8
3.84
4.43
4.72
4.59
4.37
4.16
3.87
3.6
3.2
2.72
2.03
1.28
0.64
0.05
-0.32
-0.51
-0.61
-0.64
-0.59
-0.75
-0.96
-1.2
-1.57
-2
-2.43
-2.85
-3.36
-3.79
-4.21
-4.64
-5.07
-5.55
-6.08
-6.4
-6.72
-7.04
-7.31
-7.41
-6.88
-5.63
-3.71
-1.44
0.56
2.05
3.12
3.49
3.6
3.6
3.41
3.25
3.04
2.69
2.21
1.52
0.77
0.03
-0.64
-1.09
-1.31
-1.36
-1.28
-1.23
-1.2
-1.15
-1.25
-1.36
-1.6
-1.87
-2.08
-2.37
-2.64
-2.96
-3.28
-3.65
-4.08
-4.48
-4.85
-5.2
-5.49
-5.76
-5.76
-5.25
-3.87
-1.84
0.43
2.45
4.08
4.88
5.36
5.52
5.49
5.33
5.12
4.88
4.51
4
3.33
2.53
1.76
1.47
0.67
0.56
0.48
0.43
0.4
0.35
0.13
-0.08
-0.4
-0.72
-1.12
-1.52
-1.89
-2.32
-2.75
-3.12
-3.52
-3.92
-4.29
-4.64
-4.96
-5.28
-5.44
-5.49
-4.8
-3.44
-1.25
1.04
3.12
4.53
5.49
5.92
6.08
6.03
5.84
5.71
5.44
5.12
4.59
4
3.2
2.4
1.71
1.2
0.91
0.69
0.64
0.61
0.56
0.48
0.24
-0.03
-0.24
-0.56
-0.88
-1.28
-1.63
-2
-2.4
-2.64
-3.01
-3.36
-3.65
-3.92
-4.16
-4.32
-4.05
-3.28
-1.52
0.56
2.72
4.53
5.81
6.56
6.88
6.93
6.88
6.75
6.53
6.24
5.97
5.49
4.88
4.16
3.47
2.88
2.29
1.97
1.76
1.63
1.47
1.36
1.15
0.83
0.48
0.11
-0.16
-0.48
-0.83
-1.2
-1.52
-1.76
-2.08
-2.4
-2.61
-2.88
-3.04
-3.2
-3.2
-2.88
-1.73
0.03
2.16
4.24
6
7.12
7.81
8.03
7.92
7.79
7.57
7.28
7.01
6.59
6.08
5.41
4.67
4
3.31
2.83
2.4
2.16
1.95
1.76
1.52
1.2
0.8
0.27
-0.27
-0.8
-1.36
-2
-2.64
-3.17
-3.71
-4.24
-4.77
-5.25
-5.6
-5.92
-6.24
-6.56
-6.61
-6.13
-5.04
-3.17
-1.09
0.8
2.29
3.09
3.44
3.6
3.49
3.2
2.99
2.77
2.4
1.95
1.36
0.72
-0.03
-0.72
-1.28
-1.6
-1.76
-1.76
-1.73
-1.68
-1.68
-1.87
-2.03
-2.24
-2.56
-2.88
-3.28
-3.55
-3.97
-4.4
-4.83
-5.25
-5.6
-5.95
-6.32
-6.72
-6.96
-7.12
-7.04
-6.16
-4.61
-2.56
-0.32
1.49
2.8
3.55
3.87
3.92
3.81
3.65
3.44
3.09
2.67
2.08
1.31
0.45
0.24
-0.91
-1.17
-1.28
-1.25
-1.15
-1.04
-0.96
-1.01
-1.2
-1.33
-1.6
-1.92
-2.16
-2.48
-2.88
-3.28
-3.65
-4.08
-4.43
-4.8
-5.2
-5.52
-5.79
-6
-5.89
-5.25
-3.84
-1.73
0.61
2.64
4.13
5.04
5.52
5.52
5.47
5.28
5.07
4.8
4.4
3.84
3.09
2.24
1.49
1.12
0.4
0.21
0.16
0.24
0.24
0.19
0
-0.21
-0.48
-0.8
-1.15
-1.57
-1.92
-2.35
-2.77
-3.2
-3.55
-3.92
-4.32
-4.64
-4.91
-5.2
-5.41
-5.52
-4.96
-3.68
-1.65
0.64
2.59
4.03
5.12
5.44
5.6
5.6
5.41
5.25
5.04
4.69
4.27
3.68
2.91
2.11
1.44
1.07
0.85
0.72
0.64
0.64
0.64
0.59
0.37
0.16
-0.08
-0.45
-0.8
-1.12
-1.49
-1.84
-2.16
-2.48
-2.88
-3.2
-3.47
-3.68
-3.89
-4.05
-4.08
-3.63
-2.29
-0.32
1.95
4.08
6
6.91
7.49
7.76
7.71
7.49
7.36
7.12
6.75
6.32
5.76
5.07
4.32
3.68
3.15
2.72
2.45
2.35
2.32
2.21
2.05
1.84
1.6
1.28
0.88
0.45
-0.03
-0.48
-0.83
-1.2
-1.52
-1.76
-2.03
-2.24
-2.45
-2.67
-2.8
-2.96
-2.8
-2.08
-0.67
1.31
3.44
5.12
6.4
7.12
7.28
7.17
6.96
6.61
6.24
5.84
5.39
4.85
4.24
3.49
2.69
2
1.31
0.83
0.48
0.27
0.05
-0.24
-0.48
-0.85
-1.28
-1.84
-2.48
-3.04
-3.6
-4.19
-4.72
-5.36
-5.95
-6.48
-6.88
-7.25
-7.68
-8.05
-8.32
-8.48
-8.37
-7.57
-6.16
-4.03
-1.95
-0.16
1.01
1.76
2
2.03
1.81
1.6
1.28
0.91
0.48
-0.16
-0.91
-1.68
-2.4
-2.99
-3.28
-3.44
-3.44
-3.36
-3.33
-3.28
-3.28
-3.41
-3.68
-3.92
-4.16
-4.48
-4.72
-5.04
-5.31
-5.6
-5.84
-6.16
-6.4
-6.69
-6.91
-7.12
-7.2
-7.15
-6.8
-5.36
-3.39
-1.12
0.93
2.64
3.6
4.13
4.29
4.32
4.11
3.89
3.68
3.25
2.72
2
1.17
0.43
-0.24
-0.69
-0.85
-0.88
-0.77
-0.67
-0.56
-0.53
-0.53
-0.64
-0.85
-1.12
-1.52
-1.95
-2.32
-2.64
-3.07
-3.49
-3.84
-4.24
-4.56
-4.96
-5.25
-5.47
-5.76
-5.44
-4.48
-2.8
-0.56
1.68
3.36
4.61
5.31
5.6
5.65
5.55
5.36
5.12
4.8
4.4
3.73
2.99
2.16
1.6
1.01
0.48
0.35
0.24
0.24
0.24
0.13
0
-0.21
-0.48
-0.8
-1.23
-1.6
-2
-2.4
-2.77
-3.2
-3.6
-3.92
-4.32
-4.67
-5.04
-5.36
-5.57
-5.57
-5.04
-3.76
-1.68
0.64
2.77
4.37
5.44
5.95
6.16
6.16
6.05
5.89
5.68
5.33
4.91
4.32
3.57
2.83
2.08
1.87
1.28
1.04
1.04
1.09
1.12
1.01
0.91
0.72
0.48
0.16
-0.16
-0.48
-0.8
-1.12
-1.49
-1.76
-2
-2.32
-2.59
-2.88
-3.09
-3.25
-3.36
-3.07
-2.05
-0.32
1.87
4.05
5.92
7.15
7.79
8.08
8.05
7.89
7.68
7.39
7.07
6.64
6.16
5.52
4.8
4.16
3.52
2.96
2.69
2.53
2.48
2.4
2.4
2.24
2
1.68
1.28
0.85
0.43
-0.08
-0.51
-0.93
-1.36
-1.79
-2.16
-2.48
-2.72
-2.99
-3.28
-3.47
-3.52
-2.96
-1.73
0.03
2.08
3.87
5.15
5.92
6.13
6.19
5.92
5.6
5.28
4.88
4.45
3.97
3.36
2.69
1.89
1.12
0.51
-0.08
-0.4
-0.69
-0.85
-1.04
-1.36
-1.73
-2.16
-2.69
-3.23
-3.76
-4.27
-4.75
-5.2
-5.63
-6.05
-6.56
-6.91
-7.33
-7.68
-8.08
-8.4
-8.56
-8.43
-7.63
-6.16
-4.05
-1.92
0
1.2
2
2.32
2.37
2.27
2.08
1.76
1.39
0.88
0.21
-0.59
-1.36
-2.16
-2.8
-3.04
-3.2
-3.2
-3.12
-2.99
-2.88
-2.96
-3.09
-3.31
-3.52
-3.81
-4.08
-4.4
-4.72
-5.04
-5.36
-5.6
-5.92
-6.24
-6.45
-6.72
-6.88
-7.04
-6.88
-6.24
-4.56
-2.43
-0.08
1.95
3.44
4.24
4.75
4.85
4.72
4.59
4.32
4
3.57
2.99
2.16
1.33
0.53
-0.08
-0.59
-0.91
-0.96
-0.83
-0.67
-0.56
-0.56
-0.61
-0.8
-1.01
-1.23
-1.6
-1.95
-2.37
-2.8
-3.12
-3.49
-3.92
-4.32
-4.69
-4.96
-5.25
-5.47
-5.52
-4.91
-3.52
-1.52
0.77
2.8
4.32
5.31
5.68
5.76
5.79
5.57
5.36
5.12
4.75
4.16
3.49
2.69
1.92
1.23
0.75
0.4
0.29
0.24
0.24
0.24
0.13
-0.08
-0.4
-0.72
-1.12
-1.55
-1.92
-2.32
-2.67
-3.09
-3.44
-3.84
-4.16
-4.4
-4.72
-5.04
-5.28
-5.31
-4.72
-3.6
-1.44
0.85
2.96
4.67
5.68
6.24
6.4
6.4
6.24
6.13
5.97
5.6
5.15
4.56
3.92
3.2
2.56
2
1.68
1.47
1.36
1.33
1.23
1.12
0.93
0.77
0.56
0.24
-0.08
-0.4
-0.64
-0.96
-1.28
-1.6
-1.92
-2.16
-2.37
-2.53
-2.72
-2.93
-2.93
-2.48
-1.12
0.75
2.88
5.04
6.59
7.6
8.13
8.29
8.16
7.95
7.68
7.36
6.93
6.51
6
5.41
4.67
4
3.44
3.01
2.72
2.61
2.56
2.56
2.35
2.13
1.84
1.41
0.93
0.4
-0.13
-0.67
-1.2
-1.73
-2.27
-2.8
-3.33
-3.87
-4.32
-4.75
-5.07
-5.36
-5.23
-4.48
-2.96
-0.99
1.04
2.64
3.73
4.32
4.64
4.51
4.29
4
3.68
3.36
2.96
2.4
1.76
0.96
0.21
-0.16
-0.96
-1.17
-1.28
-1.28
-1.23
-1.33
-1.52
-1.87
-2.29
-2.72
-3.15
-3.63
-4.16
-4.59
-5.07
-5.52
-6.03
-6.45
-6.88
-7.33
-7.76
-8.08
-8.45
-8.56
-8.24
-7.23
-5.31
-3.04
-0.88
0.77
2.08
2.48
2.64
2.72
2.51
2.29
2.08
1.65
1.12
0.4
-0.37
-1.17
-1.84
-2.21
-2.32
-2.4
-2.29
-2.19
-2.16
-2.16
-2.27
-2.48
-2.61
-2.88
-3.2
-3.52
-3.84
-4.08
-4.4
-4.72
-5.04
-5.28
-5.55
-5.84
-6.03
-6.13
-6.16
-5.76
-4.59
-2.64
-0.35
1.89
3.84
4.77
5.41
5.68
5.65
5.49
5.28
5.04
4.67
4.24
3.47
2.67
1.92
1.2
0.67
0.4
0.35
0.45
0.48
0.53
0.37
0.16
-0.05
-0.37
-0.72
-1.15
-1.57
-1.92
-2.27
-2.69
-3.12
-3.47
-3.84
-4.16
-4.48
-4.85
-5.12
-5.2
-4.72
-3.44
-1.41
0.88
3.12
4.48
5.49
6
6.11
6.11
6
5.79
5.57
5.2
4.72
4.08
3.36
2.64
2.32
1.44
1.07
0.85
0.72
0.64
0.59
0.48
0.27
0
-0.32
-0.67
-1.09
-1.36
-1.71
-2.08
-2.48
-2.83
-3.15
-3.44
-3.84
-4.16
-4.4
-4.56
-4.56
-4
-2.56
-0.48
1.92
3.81
5.36
6.32
6.77
6.99
7.04
6.91
6.75
6.56
6.21
5.73
5.2
4.53
3.79
3.2
2.64
2.32
2.08
1.89
1.79
1.6
1.39
1.12
0.72
0.32
-0.05
-0.4
-0.75
-1.17
-1.6
-1.92
-2.24
-2.56
-2.88
-3.15
-3.36
-3.63
-3.79
-3.68
-3.04
-1.65
0.4
2.72
4.75
6.24
7.2
7.73
7.84
7.73
7.57
7.36
7.12
6.8
6.4
5.84
5.15
4.48
4.13
3.12
2.64
2.43
2.21
2
1.87
1.65
1.28
0.85
0.32
-0.24
-0.8
-1.39
-1.92
-2.48
-3.01
-3.44
-3.87
-4.29
-4.64
-5.04
-5.36
-5.6
-5.73
-5.25
-4.24
-2.29
-0.21
1.68
3.15
4.11
4.48
4.61
4.45
4.24
4.03
3.81
3.44
3.01
2.53
1.84
1.04
0.4
-0.24
-0.53
-0.69
-0.72
-0.69
-0.64
-0.64
-0.8
-1.17
-1.6
-2.03
-2.45
-2.88
-3.41
-3.89
-4.32
-4.77
-5.25
-5.68
-6.08
-6.4
-6.72
-7.01
-7.12
-6.96
-5.79
-3.97
-1.84
0.29
2.05
3.12
3.65
3.87
3.92
3.79
3.63
3.44
3.17
2.75
2.08
1.36
0.67
-0.08
-0.56
-0.77
-0.88
-0.77
-0.72
-0.64
-0.64
-0.75
-0.88
-1.12
-1.44
-1.68
-2
-2.27
-2.64
-3.04
-3.41
-3.84
-4.24
-4.56
-4.96
-5.28
-5.49
-5.68
-5.09
-3.87
-1.92
0.37
2.51
4
4.96
5.44
5.6
5.63
5.47
5.36
5.12
4.75
4.24
3.6
2.91
2.08
1.6
1.12
0.64
0.61
0.56
0.48
0.43
0.21
0
-0.27
-0.69
-1.12
-1.55
-1.97
-2.4
-2.83
-3.25
-3.68
-4.11
-4.48
-4.88
-5.2
-5.47
-5.76
-5.57
-4.72
-3.12
-0.85
1.49
3.36
4.69
5.44
5.84
5.89
5.79
5.68
5.55
5.33
4.96
4.4
3.76
2.96
2.21
1.57
1.04
0.91
0.8
0.8
0.8
0.75
0.64
0.48
0.16
-0.16
-0.51
-0.83
-1.2
-1.6
-1.97
-2.32
-2.64
-2.96
-3.36
-3.65
-3.87
-4.16
-4.16
-3.79
-2.64
-0.83
1.41
3.44
5.2
6.27
6.88
7.09
7.15
7.04
6.85
6.69
6.4
6.05
5.57
4.96
4.21
3.57
2.96
2.56
2.29
2.08
2.05
1.89
1.76
1.52
1.15
0.72
0.29
-0.13
-0.56
-0.88
-1.25
-1.6
-1.89
-2.16
-2.4
-2.69
-2.91
-3.2
-3.31
-3.31
-2.88
-1.71
0.21
2.4
4.48
6.13
7.2
7.71
7.92
7.84
7.6
7.28
6.96
6.61
6.19
5.6
4.93
4.19
4
2.77
2.19
1.76
1.55
1.33
1.2
0.93
0.51
0.08
-0.4
-0.99
-1.6
-2.13
-2.72
-3.28
-3.89
-4.48
-5.04
-5.55
-5.92
-6.32
-6.64
-6.96
-7.2
-7.09
-6.51
-5.04
-3.15
-1.07
0.72
1.95
2.64
2.96
2.96
2.85
2.64
2.35
2.08
1.68
1.2
0.51
-0.32
-0.99
-1.68
-2.08
-2.27
-2.32
-2.32
-2.24
-2.19
-2.24
-2.45
-2.67
-2.88
-3.28
-3.6
-3.92
-4.24
-4.56
-4.88
-5.2
-5.52
-5.84
-6.16
-6.53
-6.88
-7.15
-7.25
-6.8
-5.63
-3.71
-1.44
0.67
2.27
3.36
3.76
3.92
3.92
3.73
3.63
3.36
2.93
2.4
1.68
0.85
0.05
-0.64
-0.99
-1.15
-1.2
-1.09
-0.99
-0.96
-0.91
-1.01
-1.2
-1.44
-1.71
-2
-2.29
-2.56
-2.96
-3.39
-3.81
-4.24
-4.64
-5.01
-5.36
-5.73
-6
-6.08
-5.57
-4.19
-2.16
0.21
2.29
3.92
4.8
5.33
5.52
5.41
5.25
5.04
4.8
4.43
3.84
3.15
2.29
1.52
0.83
0.29
0.16
0.11
0.21
0.24
0.19
0.03
-0.16
-0.4
-0.77
-1.12
-1.55
-1.92
-2.32
-2.75
-3.17
-3.6
-3.92
-4.29
-4.64
-5.04
-5.36
-5.6
-5.68
-5.09
-3.84
-1.65
0.59
2.64
4.05
5.01
5.44
5.6
5.55
5.44
5.31
5.04
4.72
4.27
3.68
2.96
2.24
1.55
1.2
1.01
0.91
0.88
0.88
0.83
0.72
0.51
0.29
0
-0.37
-0.64
-1.04
-1.39
-1.76
-2.08
-2.4
-2.72
-3.04
-3.36
-3.68
-3.92
-4.08
-3.97
-3.36
-1.76
0.37
2.64
4.67
6.16
7.12
7.6
7.65
7.52
7.39
7.12
6.8
6.45
5.97
5.36
4.61
3.81
3.2
2.8
2.53
2.32
2.21
2.16
2.08
1.95
1.73
1.44
1.01
0.59
0.16
-0.27
-0.69
-1.12
-1.52
-1.79
-2.08
-2.29
-2.56
-2.8
-2.99
-3.09
-3.12
-2.43
-1.09
0.8
2.91
4.77
6.16
7.01
7.28
7.28
7.01
6.64
6.24
5.97
5.55
5.12
4.45
3.71
2.96
2.4
1.81
1.2
0.8
0.59
0.4
0.19
-0.03
-0.4
-0.83
-1.31
-1.84
-2.4
-3.04
-3.68
-4.21
-4.75
-5.28
-5.89
-6.37
-6.8
-7.15
-7.52
-7.84
-8.05
-7.95
-7.28
-5.6
-3.57
-1.52
0.27
1.33
2
2.24
2.19
2
1.87
1.6
1.28
0.83
0.19
-0.56
-1.33
-2.08
-2.64
-3.07
-3.28
-3.28
-3.17
-3.12
-3.04
-3.15
-3.31
-3.52
-3.81
-4.08
-4.4
-4.64
-4.96
-5.28
-5.6
-5.92
-6.16
-6.48
-6.8
-7.04
-7.28
-7.44
-7.44
-6.67
-5.23
-3.2
-0.8
1.33
2.96
3.92
4.4
4.64
4.53
4.43
4.24
3.92
3.55
2.96
2.19
1.39
0.56
-0.11
-0.59
-0.88
-0.85
-0.75
-0.64
-0.48
-0.48
-0.56
-0.69
-0.91
-1.2
-1.41
-1.73
-2.16
-2.56
-2.93
-3.36
-3.71
-4.08
-4.48
-4.83
-5.15
-5.44
-5.6
-5.39
-4.4
-2.64
-0.4
1.76
3.47
4.64
5.44
5.55
5.6
5.52
5.31
5.04
4.72
4.27
3.68
2.88
2.11
1.36
0.8
0.59
0.43
0.32
0.32
0.32
0.24
0.03
-0.24
-0.56
-0.88
-1.25
-1.68
-2.08
-2.45
-2.88
-3.23
-3.6
-4
-4.43
-4.75
-5.04
-5.33
-5.55
-5.52
-4.83
-3.23
-1.04
1.2
3.17
4.8
5.44
5.87
6
6
5.89
5.76
5.55
5.23
4.72
4.05
3.31
2.56
1.95
1.47
1.28
1.12
1.12
1.12
1.2
1.09
0.88
0.75
0.48
0.16
-0.24
-0.56
-0.88
-1.23
-1.6
-1.92
-2.24
-2.51
-2.8
-3.04
-3.31
-3.44
-3.39
-2.64
-1.12
0.99
3.28
5.44
6.77
7.68
8.08
8.16
8.05
7.84
7.63
7.36
7.04
6.59
6
5.36
4.64
4
3.52
3.17
3.01
2.96
2.88
2.83
2.64
2.43
2.11
1.68
1.25
0.83
0.4
-0.11
-0.53
-0.96
-1.39
-1.81
-2.24
-2.64
-2.96
-3.28
-3.55
-3.65
-3.36
-2.4
-0.8
1.2
3.09
4.64
5.68
6.13
6.24
6.08
5.76
5.44
5.12
4.77
4.29
3.76
3.09
2.29
1.6
1.04
0.67
0.16
-0.13
-0.35
-0.56
-0.8
-1.17
-1.6
-2.05
-2.64
-3.2
-3.79
-4.21
-4.64
-5.15
-5.57
-6.08
-6.51
-6.93
-7.36
-7.73
-8
-8.32
-8.48
-8.16
-7.28
-5.33
-3.15
-1.04
0.64
1.81
2.32
2.56
2.56
2.4
2.16
1.89
1.52
1.04
0.29
-0.56
-1.39
-2.08
-2.56
-2.75
-2.85
-2.72
-2.61
-2.56
-2.56
-2.61
-2.83
-3.04
-3.25
-3.52
-3.76
-4.08
-4.35
-4.64
-4.88
-5.2
-5.44
-5.73
-5.95
-6.16
-6.35
-6.45
-6.32
-5.41
-3.87
-1.68
0.59
2.56
3.84
4.67
4.99
5.04
4.99
4.77
4.56
4.29
3.81
3.12
2.35
1.55
0.8
0.29
0.03
-0.08
-0.05
0.05
0.16
0.11
-0.11
-0.32
-0.59
-0.96
-1.36
-1.79
-2.16
-2.56
-2.99
-3.41
-3.76
-4.19
-4.56
-4.96
-5.31
-5.63
-5.92
-5.84
-5.25
-3.84
-1.65
0.75
2.8
4.43
5.39
5.92
6
5.95
5.84
5.63
5.41
5.04
4.48
3.79
2.96
2.21
1.57
0.96
0.75
0.64
0.56
0.56
0.56
0.48
0.27
0
-0.32
-0.67
-1.04
-1.36
-1.76
-2.13
-2.48
-2.85
-3.12
-3.52
-3.84
-4.16
-4.48
-4.61
-4.72
-4.4
-3.33
-1.52
0.64
2.8
4.51
5.68
6.27
6.48
6.56
6.45
6.29
6.08
5.76
5.39
4.8
4.13
3.44
2.72
2.21
1.84
1.6
1.41
1.31
1.2
1.07
0.85
0.64
0.32
0.05
-0.24
-0.56
-0.93
-1.28
-1.57
-1.84
-2.16
-2.48
-2.75
-3.04
-3.25
-3.47
-3.6
-3.33
-2.43
-0.72
1.39
3.63
5.6
6.93
7.73
8.08
8.03
7.81
7.6
7.31
7.09
6.72
6.27
5.68
4.96
4.29
3.6
3.12
2.75
2.53
2.48
2.45
2.29
2.08
1.76
1.39
0.88
0.35
-0.13
-0.72
-1.33
-1.87
-2.4
-2.91
-3.33
-3.76
-4.11
-4.53
-4.88
-5.17
-5.39
-5.04
-4.08
-2.32
-0.24
1.68
3.17
4.24
4.61
4.72
4.56
4.27
4
3.76
3.33
2.91
2.32
1.65
0.85
0.08
-0.48
-0.8
-0.88
-0.96
-0.91
-0.88
-1.09
-1.31
-1.6
-2.03
-2.45
-2.88
-3.31
-3.79
-4.24
-4.67
-5.09
-5.6
-6
-6.37
-6.8
-7.2
-7.52
-7.76
-7.87
-7.39
-6.24
-4.24
-2
0.08
1.68
2.75
3.2
3.44
3.39
3.2
2.91
2.64
2.24
1.71
1.01
0.16
-0.64
-0.96
-1.6
-1.76
-1.76
-1.68
-1.55
-1.44
-1.44
-1.55
-1.71
-1.92
-2.21
-2.43
-2.72
-3.04
-3.36
-3.68
-3.92
-4.19
-4.56
-4.96
-5.33
-5.68
-5.97
-6.13
-5.84
-4.67
-2.75
-0.4
1.76
3.52
4.64
5.25
5.47
5.44
5.31
5.09
4.8
4.45
3.92
3.28
2.45
1.65
1.04
0.53
0.21
0.16
0.29
0.4
0.32
0.27
0.05
-0.24
-0.56
-0.88
-1.28
-1.63
-2.05
-2.48
-2.83
-3.25
-3.6
-4
-4.37
-4.72
-5.04
-5.31
-5.44
-5.01
-3.79
-1.92
0.4
2.59
4.24
5.33
5.81
5.92
6
5.89
5.68
5.55
5.23
4.8
4.21
3.47
2.72
2.03
1.49
1.04
0.83
0.72
0.72
0.69
0.53
0.32
0.11
-0.16
-0.48
-0.83
-1.2
-1.6
-1.92
-2.24
-2.56
-2.96
-3.33
-3.6
-3.89
-4.16
-4.4
-4.43
-3.89
-2.8
-0.75
1.49
3.6
5.28
6.19
6.72
6.88
6.93
6.8
6.69
6.53
6.24
5.79
5.2
4.56
3.81
3.12
2.96
2.13
1.87
1.68
1.57
1.47
1.28
0.96
0.59
0.16
-0.16
-0.48
-0.88
-1.2
-1.57
-1.92
-2.24
-2.56
-2.8
-3.12
-3.44
-3.68
-3.89
-3.95
-3.6
-2.4
-0.53
1.68
3.89
5.6
6.72
7.28
7.49
7.36
7.23
7.01
6.72
6.29
5.87
5.36
4.69
3.95
3.12
2.45
1.87
1.52
1.33
1.17
0.96
0.67
0.35
-0.08
-0.53
-1.07
-1.68
-2.24
-2.77
-3.2
-3.65
-4.13
-4.56
-4.99
-5.36
-5.76
-6.11
-6.43
-6.72
-6.61
-5.97
-4.56
-2.51
-0.37
1.44
2.72
3.47
3.84
3.81
3.65
3.36
3.15
2.88
2.48
1.92
1.28
0.48
-0.27
-0.85
-1.2
-1.31
-1.36
-1.28
-1.2
-1.2
-1.28
-1.41
-1.63
-1.92
-2.16
-2.48
-2.88
-3.31
-3.73
-4.16
-4.59
-5.01
-5.44
-5.79
-6.21
-6.56
-6.77
-6.88
-6.56
-5.55
-3.63
-1.36
0.64
2.24
3.36
3.76
3.92
3.92
3.79
3.57
3.36
3.01
2.53
1.92
1.15
0.4
-0.24
-0.53
-0.69
-0.8
-0.69
-0.59
-0.56
-0.56
-0.67
-0.88
-1.01
-1.28
-1.6
-1.87
-2.29
-2.72
-3.07
-3.49
-3.92
-4.35
-4.72
-5.04
-5.44
-5.71
-5.84
-5.49
-4.27
-2.32
-0.13
2
3.84
4.75
5.33
5.6
5.6
5.49
5.36
5.15
4.83
4.4
3.81
3.12
2.4
1.79
1.36
1.12
0.96
0.91
0.88
0.88
0.77
0.56
0.32
0
-0.32
-0.75
-1.17
-1.52
-1.95
-2.37
-2.8
-3.33
-3.81
-4.16
-4.56
-4.93
-5.2
-5.39
-5.01
-3.84
-1.92
0.37
2.72
4.16
5.23
5.84
6.03
6.08
6
5.89
5.73
5.44
5.01
4.48
3.84
3.01
2.64
1.76
1.25
1.15
1.12
1.04
0.99
0.8
0.67
0.45
0.16
-0.24
-0.61
-0.96
-1.31
-1.68
-2.08
-2.43
-2.8
-3.12
-3.44
-3.76
-4.08
-4.32
-4.32
-3.84
-2.43
-0.4
1.92
3.92
5.52
6.48
6.93
7.15
7.2
7.09
6.99
6.88
6.64
6.27
5.76
5.09
4.4
3.76
3.17
2.75
2.4
2.21
2.05
1.84
1.71
1.39
0.96
0.53
0.05
-0.32
-0.64
-0.96
-1.36
-1.71
-2.03
-2.32
-2.72
-3.04
-3.28
-3.57
-3.79
-3.84
-3.31
-2.13
-0.32
1.92
4
5.68
6.72
7.31
7.44
7.41
7.25
7.04
6.8
6.48
6.08
5.52
4.88
4.16
3.39
2.8
2.24
1.84
1.57
1.36
1.15
0.88
0.48
0.05
-0.43
-0.96
-1.52
-2.11
-2.64
-3.2
-3.73
-4.16
-4.56
-4.93
-5.36
-5.76
-6.08
-6.4
-6.59
-6.43
-5.76
-4
-1.97
0.08
1.84
3.01
3.6
3.84
3.89
3.84
3.73
3.57
3.36
2.93
2.45
1.76
1.04
0.35
-0.32
-0.61
-0.77
-0.8
-0.77
-0.72
-0.72
-0.75
-0.91
-1.12
-1.36
-1.68
-2
-2.32
-2.64
-3.04
-3.44
-3.81
-4.16
-4.48
-4.8
-5.2
-5.49
-5.65
-5.76
-5.12
-3.79
-1.92
0.16
2.08
3.36
4.19
4.51
4.56
4.59
4.43
4.32
4.19
3.87
3.44
2.8
2.11
1.44
0.85
0.48
0.16
0.19
0.24
0.32
0.32
0.32
0.16
-0.16
-0.48
-0.88
-1.2
-1.52
-1.92
-2.35
-2.77
-3.2
-3.63
-4.11
-4.56
-4.91
-5.28
-5.68
-5.65
-5.17
-3.84
-1.73
0.67
2.64
4.11
5.07
5.6
5.71
5.71
5.6
5.49
5.33
5.04
4.56
3.92
3.12
2.37
1.73
1.2
0.99
0.88
0.8
0.8
0.75
0.64
0.4
0.08
-0.32
-0.67
-1.09
-1.44
-1.87
-2.29
-2.72
-3.15
-3.52
-3.92
-4.35
-4.72
-5.12
-5.33
-5.44
-5.04
-3.76
-1.73
0.56
2.72
4.37
5.44
6.03
6.24
6.24
6.21
6.16
6
5.76
5.39
4.8
4.11
3.36
2.64
2.13
1.76
1.52
1.31
1.09
1.04
0.91
0.69
0.48
0.16
-0.11
-0.4
-0.8
-1.17
-1.52
-1.92
-2.24
-2.56
-2.88
-3.2
-3.52
-3.76
-4.03
-4.16
-3.79
-2.77
-0.88
1.28
3.41
5.2
6.35
6.99
7.28
7.28
7.23
7.12
6.91
6.69
6.4
5.92
5.28
4.56
3.89
3.2
2.64
2.27
2
1.84
1.71
1.49
1.28
0.93
0.51
0.08
-0.35
-0.77
-1.12
-1.44
-1.76
-2.08
-2.43
-2.8
-3.12
-3.33
-3.55
-3.76
-3.95
-3.89
-3.12
-1.73
0.35
2.56
4.35
5.63
6.4
6.59
6.59
6.4
6.11
5.84
5.52
5.17
4.69
4.08
3.33
2.59
1.84
1.15
0.61
0.24
-0.05
-0.32
-0.64
-0.96
-1.33
-1.84
-2.29
-2.77
-3.2
-3.71
-4.13
-4.56
-4.99
-5.36
-5.76
-6.16
-6.53
-6.88
-7.28
-7.6
-7.68
-7.52
-6.56
-4.96
-2.8
-0.77
0.96
2.05
2.69
2.88
2.93
2.83
2.72
2.51
2.24
1.92
1.36
0.67
-0.08
-0.77
-1.04
-1.52
-1.68
-1.68
-1.68
-1.57
-1.52
-1.6
-1.79
-1.95
-2.24
-2.53
-2.8
-3.04
-3.36
-3.68
-4
-4.21
-4.48
-4.8
-5.04
-5.36
-5.6
-5.79
-5.73
-5.2
-3.63
-1.6
0.56
2.37
3.76
4.56
4.88
4.93
4.96
4.83
4.61
4.4
3.97
3.44
2.8
2.08
1.39
0.8
0.35
0.19
0.16
0.27
0.32
0.4
0.19
-0.08
-0.4
-0.72
-1.09
-1.52
-1.87
-2.29
-2.72
-3.12
-3.49
-3.92
-4.32
-4.69
-4.96
-5.28
-5.55
-5.6
-4.8
-3.36
-1.28
0.99
2.91
4.24
5.15
5.52
5.6
5.57
5.41
5.2
4.96
4.59
4.16
3.49
2.69
2
1.41
1.09
0.88
0.77
0.72
0.72
0.72
0.72
0.56
0.35
0.13
-0.16
-0.51
-0.88
-1.28
-1.63
-2.05
-2.48
-2.91
-3.33
-3.68
-4.03
-4.4
-4.64
-4.67
-4.03
-2.72
-0.59
1.6
3.52
5.01
5.81
6.32
6.48
6.48
6.4
6.37
6.21
6
5.65
5.12
4.48
3.76
3.17
2.72
2.32
2.11
1.92
1.71
1.49
1.2
0.91
0.69
0.32
-0.03
-0.4
-0.8
-1.2
-1.57
-1.92
-2.32
-2.64
-2.88
-3.2
-3.52
-3.84
-4.05
-4.11
-3.76
-2.45
-0.53
1.6
3.71
5.31
6.32
6.8
7.01
7.04
6.93
6.83
6.64
6.4
6.08
5.6
5.01
4.27
3.52
2.85
2.32
2
1.81
1.71
1.52
1.31
1.04
0.64
0.21
-0.21
-0.64
-0.99
-1.41
-1.76
-2.19
-2.61
-2.88
-3.23
-3.6
-3.92
-4.27
-4.59
-4.8
-4.67
-3.92
-2.4
-0.35
1.68
3.44
4.61
5.25
5.6
5.49
5.33
5.12
4.88
4.56
4.24
3.76
3.12
2.4
1.73
1.36
0.56
0.16
-0.16
-0.32
-0.43
-0.53
-0.72
-1.07
-1.44
-1.84
-2.29
-2.77
-3.28
-3.73
-4.21
-4.64
-5.15
-5.57
-6
-6.43
-6.85
-7.2
-7.49
-7.65
-7.44
-6.45
-4.64
-2.48
-0.37
1.33
2.56
2.99
3.2
3.28
3.15
2.93
2.8
2.45
1.97
1.36
0.59
-0.16
-0.88
-1.44
-1.71
-1.84
-1.76
-1.71
-1.68
-1.68
-1.79
-2
-2.21
-2.48
-2.8
-3.04
-3.41
-3.68
-4
-4.32
-4.64
-4.96
-5.33
-5.68
-6.08
-6.4
-6.56
-6.56
-5.71
-4.08
-1.87
0.43
2.56
3.71
4.51
4.88
4.91
4.85
4.72
4.51
4.19
3.76
3.17
2.37
1.6
0.88
0.29
-0.16
-0.4
-0.35
-0.24
-0.16
-0.11
-0.16
-0.29
-0.51
-0.8
-1.2
-1.57
-2
-2.43
-2.8
-3.2
-3.63
-4
-4.4
-4.8
-5.17
-5.44
-5.68
-5.57
-4.88
-3.23
-1.04
1.28
3.07
4.45
5.2
5.55
5.65
5.6
5.47
5.25
5.04
4.61
4.08
3.44
2.61
1.87
1.28
0.91
0.69
0.56
0.48
0.48
0.32
0.19
-0.08
-0.4
-0.75
-1.17
-1.52
-1.95
-2.32
-2.72
-3.07
-3.44
-3.76
-4.16
-4.48
-4.8
-5.09
-5.31
-5.2
-4.53
-3.04
-0.88
1.44
3.41
4.88
5.81
6.29
6.4
6.45
6.35
6.24
6
5.68
5.28
4.64
3.95
3.28
2.72
2.24
1.76
1.55
1.39
1.28
1.25
1.15
0.96
0.72
0.4
0.08
-0.27
-0.64
-1.04
-1.39
-1.71
-2
-2.4
-2.72
-2.96
-3.25
-3.52
-3.76
-3.84
-3.47
-2.48
-0.53
1.65
3.76
5.36
6.53
7.04
7.28
7.23
7.04
6.83
6.61
6.4
5.97
5.49
4.8
4.08
3.44
2.8
2.21
1.89
1.6
1.49
1.33
1.12
0.88
0.51
0.08
-0.45
-0.99
-1.6
-2.13
-2.61
-3.12
-3.55
-3.97
-4.4
-4.83
-5.2
-5.6
-5.92
-6.13
-6.32
-5.6
-4.27
-2.32
-0.21
1.76
3.04
3.95
4.27
4.32
4.19
3.97
3.76
3.55
3.23
2.8
2.16
1.47
0.8
0.19
-0.29
-0.72
-0.72
-0.67
-0.56
-0.53
-0.53
-0.64
-0.77
-1.04
-1.28
-1.71
-2.13
-2.56
-2.96
-3.33
-3.68
-4.08
-4.4
-4.8
-5.15
-5.52
-5.84
-5.95
-5.79
-5.04
-3.41
-1.28
0.72
2.48
3.6
4.32
4.51
4.56
4.48
4.29
4.13
3.84
3.47
2.93
2.24
1.47
0.77
0.16
0.03
-0.08
0
0.03
0.19
0.24
0.08
-0.24
-0.56
-0.99
-1.41
-1.84
-2.27
-2.69
-3.12
-3.55
-4.03
-4.48
-4.91
-5.28
-5.68
-6
-6.27
-6.24
-5.55
-3.95
-1.84
0.37
2.29
3.68
4.48
4.85
4.96
4.93
4.83
4.64
4.43
4.11
3.52
2.85
2.11
1.28
0.75
0.37
0.16
0.16
0.27
0.32
0.32
0.27
0
-0.35
-0.72
-1.12
-1.52
-1.89
-2.32
-2.83
-3.2
-3.52
-3.87
-4.24
-4.56
-4.77
-4.99
-5.12
-4.93
-4.08
-2.4
-0.21
2.08
4.16
5.41
6.21
6.64
6.67
6.67
6.56
6.37
6.21
5.84
5.39
4.75
4
3.33
2.69
2.24
1.87
1.6
1.44
1.23
1.01
0.72
0.51
0.29
0
-0.32
-0.69
-1.04
-1.44
-1.76
-2.16
-2.48
-2.8
-3.2
-3.52
-3.84
-4.16
-4.35
-4.29
-3.52
-2.08
-0.05
2.08
3.87
5.2
6
6.37
6.48
6.48
6.43
6.27
6.08
5.84
5.47
4.96
4.32
3.68
3.04
2.8
2.11
1.84
1.65
1.49
1.28
1.04
0.72
0.4
0.05
-0.37
-0.8
-1.23
-1.71
-2.16
-2.67
-3.09
-3.6
-4.03
-4.45
-4.8
-5.2
-5.52
-5.6
-5.23
-4.05
-2.08
0.21
2.35
4.08
5.09
5.73
5.92
5.97
5.87
5.76
5.63
5.36
4.96
4.43
3.84
3.12
2.4
1.76
1.28
0.91
0.75
0.72
0.59
0.43
0.32
-0.11
-0.53
-0.96
-1.39
-1.87
-2.32
-2.75
-3.17
-3.6
-3.92
-4.29
-4.64
-5.04
-5.41
-5.68
-5.84
-5.63
-4.88
-3.2
-1.12
1.04
2.85
4.13
4.88
5.31
5.47
5.52
5.52
5.47
5.36
5.09
4.67
4.08
3.36
2.67
2.08
1.6
1.33
1.28
1.15
0.99
0.8
0.56
0.24
-0.16
-0.56
-0.93
-1.36
-1.79
-2.21
-2.64
-3.07
-3.49
-3.84
-4.24
-4.61
-4.88
-5.2
-5.47
-5.52
-5.09
-3.92
-2.24
-0.16
1.71
3.04
3.92
4.24
4.32
4.27
4.11
3.92
3.71
3.39
2.96
2.32
1.63
0.96
0.48
0.05
-0.24
-0.32
-0.27
-0.16
-0.13
-0.13
-0.4
-0.72
-1.04
-1.44
-1.87
-2.35
-2.8
-3.23
-3.65
-4.08
-4.51
-4.93
-5.36
-5.68
-6
-6.32
-6.4
-5.92
-4.72
-2.56
-0.16
2.08
3.87
4.93
5.52
5.68
5.73
5.68
5.57
5.41
5.12
4.67
4.08
3.36
2.61
1.92
1.36
1.04
0.88
0.88
0.99
0.99
0.8
0.59
0.32
-0.08
-0.51
-0.93
-1.36
-1.79
-2.21
-2.64
-3.07
-3.49
-3.84
-4.19
-4.56
-4.88
-5.12
-5.28
-5.12
-4.03
-2.27
-0.08
2.21
3.92
5.12
5.79
6.05
6.08
6.05
5.95
5.84
5.6
5.23
4.72
4.16
3.47
2.8
2.27
1.84
1.52
1.31
1.2
1.2
1.09
0.93
0.72
0.4
0.08
-0.32
-0.64
-0.96
-1.28
-1.68
-2.05
-2.32
-2.67
-3.04
-3.36
-3.68
-3.95
-4.16
-3.92
-3.07
-1.44
0.69
2.77
4.56
5.73
6.43
6.88
6.88
6.88
6.8
6.67
6.45
6.24
5.79
5.2
4.56
3.89
3.25
2.8
2.43
2.21
2
1.81
1.71
1.44
1.09
0.67
0.24
-0.19
-0.61
-0.96
-1.36
-1.68
-2
-2.32
-2.64
-2.96
-3.28
-3.55
-3.76
-3.95
-3.89
-3.2
-1.81
0.27
2.4
4.27
5.65
6.56
6.77
6.83
6.72
6.51
6.24
6
5.65
5.23
4.64
3.89
3.15
2.4
1.76
1.23
0.88
0.61
0.45
0.24
-0.11
-0.53
-0.96
-1.49
-1.97
-2.4
-2.83
-3.31
-3.76
-4.19
-4.56
-4.96
-5.31
-5.73
-6.08
-6.48
-6.75
-6.88
-6.67
-5.71
-4
-1.95
-0.03
1.68
2.59
3.12
3.36
3.33
3.23
3.12
2.91
2.64
2.24
1.68
1.04
0.32
-0.29
-0.77
-0.96
-1.12
-1.07
-1.04
-0.96
-0.96
-1.04
-1.25
-1.52
-1.84
-2.16
-2.48
-2.72
-3.04
-3.36
-3.6
-3.95
-4.27
-4.56
-4.88
-5.2
-5.44
-5.57
-5.36
-4.48
-2.77
-0.69
1.52
3.09
4.27
4.96
5.23
5.23
5.12
4.99
4.77
4.56
4.11
3.52
2.88
2.05
1.68
0.8
0.56
0.51
0.48
0.4
0.35
0.16
0.03
-0.24
-0.56
-0.96
-1.33
-1.76
-2.19
-2.61
-3.04
-3.39
-3.81
-4.16
-4.56
-4.93
-5.28
-5.57
-5.79
-5.68
-4.72
-3.12
-0.88
1.23
3.09
4.48
5.23
5.6
5.68
5.65
5.55
5.36
5.04
4.67
4.16
3.41
2.61
1.84
1.23
0.96
0.72
0.56
0.51
0.4
0.29
0.13
-0.16
-0.48
-0.85
-1.28
-1.79
-2.21
-2.64
-3.07
-3.49
-3.92
-4.32
-4.69
-5.04
-5.44
-5.76
-6
-5.81
-5.01
-3.6
-1.25
1.09
3.12
4.56
5.47
5.84
6.08
6.08
6
5.87
5.65
5.36
4.88
4.19
3.36
2.56
1.92
1.36
0.99
0.83
0.72
0.69
0.53
0.4
0.16
-0.21
-0.48
-0.83
-1.25
-1.68
-2.03
-2.4
-2.72
-3.12
-3.44
-3.76
-4.13
-4.4
-4.64
-4.83
-4.77
-4.32
-2.67
-0.59
1.68
3.71
5.31
6.16
6.69
6.85
6.88
6.75
6.59
6.4
6.13
5.71
5.2
4.56
3.87
3.2
2.59
2.11
1.76
1.63
1.47
1.36
1.15
0.93
0.72
0.4
0.03
-0.4
-0.75
-1.12
-1.52
-1.92
-2.29
-2.64
-3.01
-3.28
-3.68
-3.97
-4.19
-4.4
-3.81
-2.64
-0.8
1.33
3.41
4.88
5.81
6.24
6.32
6.19
5.97
5.76
5.52
5.2
4.8
4.16
3.52
2.72
2.16
1.47
0.64
0.32
0.05
-0.16
-0.4
-0.77
-1.04
-1.31
-1.73
-2.16
-2.59
-3.01
-3.52
-3.95
-4.37
-4.8
-5.23
-5.6
-6
-6.35
-6.72
-7.12
-7.33
-7.23
-6.48
-5.01
-2.88
-0.8
0.99
2.21
2.96
3.25
3.36
3.28
3.09
2.93
2.64
2.29
1.81
1.12
0.37
-0.27
-0.88
-1.04
-1.36
-1.44
-1.41
-1.31
-1.28
-1.33
-1.49
-1.68
-1.92
-2.19
-2.48
-2.8
-3.12
-3.44
-3.73
-3.95
-4.24
-4.59
-4.96
-5.36
-5.6
-5.87
-5.84
-5.17
-3.68
-1.6
0.61
2.53
4
4.8
5.17
5.36
5.25
5.15
4.96
4.72
4.35
3.76
3.07
2.27
1.52
0.91
0.53
0.32
0.35
0.51
0.56
0.48
0.37
0.16
-0.08
-0.35
-0.64
-1.04
-1.41
-1.76
-2.16
-2.48
-2.88
-3.2
-3.52
-3.84
-4.16
-4.43
-4.64
-4.53
-3.95
-2.48
-0.48
1.71
3.68
4.93
5.73
6.16
6.19
6.24
6.16
5.97
5.81
5.44
4.96
4.27
3.44
2.77
2.08
1.52
1.15
0.88
0.72
0.51
0.35
0.16
-0.08
-0.4
-0.72
-1.12
-1.49
-1.92
-2.32
-2.64
-3.04
-3.47
-3.84
-4.16
-4.48
-4.8
-5.12
-5.39
-5.39
-4.72
-3.36
-1.33
0.96
2.96
4.45
5.36
5.73
5.84
5.92
5.81
5.71
5.52
5.28
4.85
4.24
3.57
2.88
2.24
2
1.31
1.2
1.2
1.2
1.2
1.12
0.91
0.64
0.32
-0.05
-0.4
-0.8
-1.12
-1.52
-1.87
-2.24
-2.56
-2.88
-3.15
-3.44
-3.73
-3.95
-3.92
-3.31
-1.87
0.16
2.43
4.45
6.08
6.96
7.49
7.68
7.65
7.49
7.28
7.07
6.8
6.4
5.84
5.2
4.48
3.87
3.28
2.88
2.59
2.43
2.4
2.27
2.11
1.92
1.49
1.07
0.64
0.11
-0.43
-0.96
-1.47
-1.95
-2.4
-2.83
-3.25
-3.68
-4.11
-4.53
-4.8
-5.04
-4.93
-4.24
-2.67
-0.75
1.28
2.88
3.95
4.56
4.8
4.8
4.64
4.43
4.21
3.92
3.49
2.96
2.32
1.57
0.83
0.64
-0.21
-0.43
-0.48
-0.59
-0.69
-0.8
-1.01
-1.28
-1.68
-2.11
-2.53
-2.96
-3.39
-3.81
-4.24
-4.67
-5.09
-5.52
-5.95
-6.37
-6.72
-7.07
-7.39
-7.6
-7.33
-6.37
-4.64
-2.43
-0.35
1.28
2.45
2.99
3.2
3.28
3.23
3.04
2.8
2.43
1.92
1.25
0.45
-0.32
-1.01
-1.44
-1.68
-1.73
-1.68
-1.6
-1.57
-1.57
-1.68
-1.89
-2.11
-2.32
-2.64
-2.96
-3.28
-3.52
-3.79
-4.08
-4.4
-4.72
-5.04
-5.39
-5.76
-6.16
-6.29
-6.13
-5.28
-3.39
-1.15
1.04
2.96
4.13
4.8
5.07
5.17
5.04
4.91
4.69
4.32
3.84
3.15
2.4
1.63
0.88
0.24
-0.08
-0.24
-0.16
-0.05
0
0.08
0.03
-0.19
-0.48
-0.83
-1.2
-1.6
-1.95
-2.37
-2.72
-3.12
-3.49
-3.92
-4.27
-4.64
-4.96
-5.28
-5.44
-5.44
-4.48
-2.88
-0.72
1.57
3.33
4.56
5.31
5.57
5.68
5.57
5.47
5.28
5.01
4.59
4
3.33
2.59
1.76
1.2
0.77
0.56
0.45
0.4
0.4
0.21
0.05
-0.16
-0.51
-0.88
-1.28
-1.6
-1.97
-2.4
-2.83
-3.25
-3.68
-4.03
-4.4
-4.72
-5.07
-5.33
-5.52
-5.28
-4.43
-2.72
-0.45
1.89
3.92
5.31
6.16
6.64
6.67
6.67
6.56
6.43
6.16
5.76
5.28
4.59
3.84
3.09
2.51
2.16
1.87
1.71
1.6
1.49
1.39
1.28
1.15
0.93
0.64
0.4
0.08
-0.24
-0.56
-0.88
-1.12
-1.44
-1.76
-2.08
-2.32
-2.53
-2.72
-2.91
-2.85
-2.16
-0.88
1.15
3.36
5.31
6.8
7.92
8.16
8.32
8.24
8
7.68
7.44
7.09
6.67
6.08
5.41
4.72
4
3.39
2.91
2.64
2.45
2.35
2.16
1.92
1.55
1.12
0.59
0
-0.56
-1.12
-1.76
-2.32
-2.93
-3.47
-3.92
-4.48
-5.01
-5.36
-5.76
-6.08
-6.24
-6.27
-5.57
-4.16
-2.27
-0.29
1.6
2.64
3.33
3.6
3.57
3.36
3.2
2.99
2.72
2.32
1.84
1.2
0.48
-0.24
-0.88
-1.28
-1.52
-1.52
-1.44
-1.33
-1.23
-1.28
-1.39
-1.55
-1.76
-2.08
-2.4
-2.64
-2.99
-3.41
-3.84
-4.19
-4.61
-4.96
-5.36
-5.73
-6.08
-6.35
-6.51
-6.32
-5.33
-3.63
-1.52
0.48
2.13
3.28
3.84
4.11
4.08
3.97
3.81
3.6
3.25
2.77
2.16
1.33
0.53
-0.16
-0.35
-0.83
-0.88
-0.75
-0.59
-0.4
-0.4
-0.45
-0.56
-0.77
-1.04
-1.36
-1.79
-2.16
-2.56
-2.99
-3.36
-3.68
-4.08
-4.45
-4.8
-5.17
-5.44
-5.6
-5.52
-4.77
-3.36
-1.2
0.99
2.88
4.24
5.09
5.36
5.49
5.39
5.28
5.04
4.72
4.32
3.68
2.99
2.24
1.44
0.85
0.56
0.37
0.27
0.24
0.24
0.19
0.08
-0.16
-0.48
-0.72
-1.07
-1.44
-1.84
-2.19
-2.61
-2.96
-3.36
-3.73
-4.08
-4.48
-4.8
-5.2
-5.41
-5.41
-4.96
-3.41
-1.44
0.8
2.77
4.27
5.04
5.49
5.65
5.6
5.47
5.25
5.04
4.69
4.21
3.52
2.72
2.03
1.36
1.07
0.91
0.8
0.8
0.8
0.8
0.75
0.48
0.24
-0.08
-0.4
-0.8
-1.12
-1.44
-1.76
-2.16
-2.53
-2.88
-3.17
-3.44
-3.76
-4.05
-4.21
-4.24
-3.52
-2.19
-0.16
2.13
4.27
5.76
6.8
7.33
7.44
7.49
7.39
7.2
6.96
6.64
6.24
5.57
4.83
4.08
3.47
2.99
2.64
2.51
2.4
2.32
2.29
2.13
1.92
1.6
1.23
0.8
0.37
-0.05
-0.48
-0.88
-1.2
-1.44
-1.73
-1.95
-2.16
-2.45
-2.61
-2.8
-2.88
-2.67
-1.92
-0.37
1.71
3.76
5.57
6.85
7.68
7.87
7.81
7.6
7.2
6.88
6.48
6.05
5.57
4.88
4.11
3.31
2.56
2.03
1.55
1.28
1.07
0.85
0.64
0.37
-0.05
-0.48
-0.96
-1.55
-2.08
-2.69
-3.23
-3.76
-4.37
-4.91
-5.44
-5.97
-6.45
-6.88
-7.2
-7.47
-7.68
-7.55
-6.91
-5.44
-3.63
-1.6
0.16
1.2
1.79
2.08
2.05
1.89
1.68
1.39
1.12
0.72
0.05
-0.69
-1.44
-2.11
-2.69
-2.96
-3.07
-3.07
-3.04
-2.96
-2.91
-2.96
-3.17
-3.39
-3.6
-3.92
-4.24
-4.56
-4.88
-5.2
-5.52
-5.84
-6.16
-6.48
-6.69
-6.91
-7.12
-7.23
-7.28
-6.8
-5.57
-3.65
-1.28
0.83
2.43
3.52
3.92
4.08
4.16
3.95
3.73
3.44
3.01
2.43
1.68
0.85
0.11
-0.56
-1.01
-1.23
-1.2
-1.09
-0.99
-0.96
-0.88
-0.93
-1.04
-1.25
-1.47
-1.76
-2.05
-2.27
-2.64
-2.99
-3.41
-3.84
-4.16
-4.53
-4.88
-5.28
-5.6
-5.68
-5.52
-4.56
-2.88
-0.59
1.6
3.52
4.69
5.33
5.6
5.73
5.57
5.44
5.23
4.91
4.48
3.84
3.09
2.32
1.6
1.28
0.72
0.56
0.51
0.48
0.48
0.43
0.24
0
-0.32
-0.64
-1.07
-1.44
-1.84
-2.27
-2.64
-3.04
-3.39
-3.81
-4.16
-4.56
-4.88
-5.12
-5.36
-5.2
-4.48
-2.77
-0.64
1.6
3.44
4.83
5.6
6
6.05
6.08
5.97
5.81
5.6
5.25
4.72
4.08
3.33
2.59
2.08
1.65
1.33
1.12
1.07
1.12
1.04
0.91
0.69
0.4
0.11
-0.16
-0.56
-0.88
-1.2
-1.6
-1.92
-2.24
-2.56
-2.96
-3.28
-3.36
-3.73
-3.95
-3.84
-2.8
-1.09
1.12
3.39
5.25
6.56
7.41
7.68
7.76
7.63
7.41
7.12
6.88
6.51
6
5.33
4.53
3.84
3.23
2.75
2.4
2.27
2.16
2.16
2.13
1.97
1.68
1.28
0.91
0.48
0.05
-0.43
-0.88
-1.28
-1.6
-1.92
-2.24
-2.61
-2.88
-3.17
-3.44
-3.68
-3.71
-3.07
-1.76
0.35
2.43
4.16
5.44
6.08
6.24
6.27
6
5.6
5.36
4.99
4.56
4.08
3.39
2.64
1.89
1.2
0.56
0.05
-0.27
-0.56
-0.77
-0.99
-1.28
-1.71
-2.13
-2.64
-3.15
-3.57
-4.08
-4.43
-4.85
-5.28
-5.71
-6.13
-6.56
-6.91
-7.28
-7.68
-7.92
-8.03
-7.76
-6.37
-4.45
-2.32
-0.19
1.25
2.24
2.61
2.77
2.72
2.59
2.37
2.08
1.65
1.12
0.4
-0.37
-1.17
-1.36
-2.16
-2.32
-2.4
-2.29
-2.24
-2.16
-2.19
-2.29
-2.48
-2.72
-2.99
-3.28
-3.52
-3.89
-4.24
-4.48
-4.8
-5.04
-5.36
-5.68
-5.92
-6.13
-6.29
-6.48
-5.92
-4.69
-2.72
-0.35
1.73
3.36
4.32
4.75
4.96
4.85
4.69
4.48
4.21
3.79
3.28
2.59
1.79
0.96
0.4
-0.08
-0.48
-0.48
-0.43
-0.32
-0.16
-0.16
-0.24
-0.48
-0.8
-1.2
-1.63
-2.05
-2.48
-2.91
-3.33
-3.76
-4.19
-4.56
-4.96
-5.31
-5.63
-5.92
-5.95
-5.47
-4.08
-2.03
0.37
2.56
4.16
5.12
5.76
5.79
5.73
5.6
5.39
5.12
4.8
4.32
3.68
2.88
2.11
1.41
0.96
0.83
0.56
0.56
0.56
0.51
0.32
0.11
-0.16
-0.48
-0.83
-1.25
-1.68
-2.08
-2.45
-2.8
-3.23
-3.6
-4
-4.32
-4.64
-4.96
-5.15
-5.2
-4.64
-3.33
-1.25
1.04
3.04
4.64
5.76
6.16
6.32
6.32
6.29
6.13
5.92
5.65
5.23
4.64
3.89
3.2
2.56
2.13
1.71
1.44
1.28
1.23
1.2
1.09
0.93
0.72
0.48
0.11
-0.24
-0.64
-1.01
-1.36
-1.68
-2
-2.4
-2.72
-2.99
-3.28
-3.49
-3.65
-3.68
-3.12
-1.68
0.32
2.59
4.72
6.48
7.28
7.71
7.92
7.87
7.6
7.44
7.2
6.83
6.4
5.81
5.12
4.4
3.68
3.09
2.64
2.37
2.27
2.24
2.16
2.05
1.76
1.41
0.99
0.56
0.13
-0.4
-0.88
-1.41
-1.89
-2.32
-2.67
-3.04
-3.36
-3.68
-4.05
-4.32
-4.56
-4.4
-3.6
-1.97
0.11
2.32
3.89
5.07
5.6
5.79
5.73
5.52
5.23
4.96
4.64
4.19
3.65
3.04
2.21
1.47
0.88
0.4
0.08
-0.16
-0.45
-0.67
-0.96
-1.09
-1.41
-1.84
-2.27
-2.69
-3.12
-3.63
-4.05
-4.48
-4.91
-5.28
-5.6
-6.03
-6.45
-6.8
-7.09
-7.36
-7.44
-7.12
-6.05
-4.32
-2.08
0
1.68
2.72
3.31
3.44
3.39
3.17
2.96
2.64
2.27
1.84
1.17
0.37
-0.4
-0.67
-1.36
-1.52
-1.6
-1.55
-1.36
-1.36
-1.36
-1.44
-1.65
-1.92
-2.16
-2.48
-2.8
-3.12
-3.36
-3.63
-4
-4.4
-4.72
-5.04
-5.44
-5.76
-6
-6.16
-5.95
-5.2
-3.25
-1.07
1.2
2.99
4.27
4.88
5.2
5.25
5.12
4.91
4.69
4.32
3.87
3.23
2.48
2.08
0.91
0.4
0.24
0.19
0.24
0.35
0.4
0.32
0.11
-0.16
-0.48
-0.83
-1.2
-1.6
-2.03
-2.45
-2.8
-3.2
-3.57
-4
-4.4
-4.72
-5.04
-5.36
-5.57
-5.6
-4.59
-2.93
-0.72
1.63
3.6
4.88
5.63
5.95
6
5.87
5.71
5.52
5.17
4.75
4.24
3.47
2.67
1.92
1.2
0.72
0.4
0.37
0.32
0.32
0.27
0.05
-0.16
-0.48
-0.8
-1.2
-1.55
-1.92
-2.24
-2.64
-3.01
-3.36
-3.73
-4
-4.4
-4.69
-4.91
-5.2
-5.12
-4.48
-3.12
-0.93
1.47
3.52
5.09
6.11
6.64
6.83
6.83
6.72
6.51
6.29
6
5.55
4.96
4.16
3.41
2.77
2.64
1.92
1.65
1.52
1.41
1.25
1.12
0.88
0.56
0.24
-0.08
-0.35
-0.64
-1.04
-1.36
-1.68
-1.97
-2.24
-2.48
-2.77
-2.99
-3.28
-3.41
-3.52
-3.2
-2.16
-0.4
1.76
3.95
5.76
7.04
7.65
7.92
7.92
7.68
7.41
7.2
6.88
6.51
6
5.36
4.67
4.48
3.36
2.83
2.48
2.29
2.13
2
1.87
1.6
1.28
0.83
0.35
-0.16
-0.77
-1.36
-1.92
-2.53
-3.07
-3.6
-4.11
-4.48
-4.88
-5.2
-5.52
-5.84
-5.97
-5.76
-4.8
-3.23
-1.15
0.96
2.45
3.47
4
4.11
4.05
3.84
3.55
3.28
2.96
2.51
1.92
1.2
0.45
-0.24
-0.88
-1.33
-1.55
-1.6
-1.6
-1.55
-1.52
-1.57
-1.73
-1.92
-2.27
-2.69
-3.2
-3.63
-4.11
-4.56
-4.99
-5.41
-5.84
-6.24
-6.61
-6.96
-7.36
-7.68
-7.76
-7.55
-6.48
-4.72
-2.43
-0.29
1.44
2.45
3.09
3.28
3.25
3.09
2.88
2.56
2.19
1.6
0.85
0.05
-0.72
-1.04
-1.89
-2
-2.08
-2.03
-1.92
-1.81
-1.76
-1.76
-1.97
-2.19
-2.4
-2.69
-2.96
-3.28
-3.6
-3.87
-4.16
-4.4
-4.72
-5.04
-5.44
-5.76
-6
-6.24
-6.13
-5.52
-3.92
-1.73
0.64
2.64
4.08
4.88
5.36
5.41
5.28
5.15
4.88
4.56
4.13
3.55
2.72
1.89
1.15
0.56
0.16
-0.05
-0.16
0.05
0.16
0.24
0.11
-0.11
-0.4
-0.75
-1.12
-1.52
-1.87
-2.29
-2.72
-3.07
-3.49
-3.84
-4.24
-4.61
-4.88
-5.2
-5.47
-5.6
-5.31
-4.19
-2.4
-0.05
2.19
3.84
5.01
5.55
5.76
5.81
5.65
5.44
5.23
4.91
4.48
3.81
3.44
2.4
1.68
1.15
0.8
0.72
0.61
0.64
0.64
0.59
0.4
0.19
-0.08
-0.4
-0.75
-1.12
-1.52
-1.84
-2.16
-2.48
-2.88
-3.2
-3.52
-3.81
-4.08
-4.32
-4.43
-4.21
-3.44
-1.65
0.53
2.8
3.68
6.08
6.88
7.25
7.41
7.44
7.15
7.04
6.72
6.29
6.08
5.2
4.53
3.84
3.2
2.8
2.48
2.16
2.05
2
1.92
1.81
1.44
1.12
0.69
0.27
0.16
-0.48
-0.8
-1.12
-1.41
-1.52
-1.92
-2.21
-2.43
-2.64
-2.8
-2.91
-3.04
-2.59
-1.52
0.24
1.31
4.4
6.08
7.17
7.76
7.84
7.87
7.6
7.28
6.96
6.8
6.16
5.6
4.96
4.24
3.68
2.99
2.16
1.76
1.49
1.28
1.2
0.93
0.56
0.13
-0.29
-0.4
-1.36
-1.95
-2.48
-3.09
-3.36
-4.24
-4.77
-5.31
-5.76
-6.08
-6.45
-6.88
-7.17
-7.28
-7.12
-6.59
-4.67
-2.64
-0.75
0.8
1.12
2.4
2.56
2.56
2.35
2.24
1.84
1.49
1.07
0.48
-0.08
-0.77
-1.68
-1.92
-2.51
-2.64
-2.64
-2.59
-2.56
-2.56
-2.61
-2.64
-3.01
-3.28
-3.6
-4
-4.16
-4.56
-4.88
-5.2
-5.52
-5.68
-5.95
-6.32
-6.56
-6.88
-7.12
-7.15
-6.93
-5.84
-3.97
-1.63
-1.04
2.29
3.47
4
4.19
4.24
4.08
3.87
3.6
3.2
2.88
2.19
1.28
0.45
-0.24
-0.8
-0.91
-1.12
-1.12
-1.01
-0.91
-0.88
-0.83
-0.99
-1.2
-1.41
-1.52
-1.92
-2.21
-2.53
-2.96
-3.2
-3.57
-4
-4.4
-4.77
-5.12
-5.25
-5.63
-5.6
-4.96
-3.57
-3.12
0.72
2.8
4.32
5.25
5.52
5.84
5.79
5.63
5.44
5.2
4.83
4.24
3.49
2.69
1.92
1.6
0.75
0.48
0.4
0.35
0.32
0.29
0.19
0
-0.32
-0.48
-0.96
-1.39
-1.81
-2.24
-2.48
-2.91
-3.36
-3.76
-4.13
-4.48
-4.64
-5.12
-5.44
-5.63
-5.57
-5.52
-3.28
-1.15
1.2
3.17
3.92
5.36
5.79
5.89
5.92
5.84
5.68
5.44
5.01
4.59
3.92
3.55
2.43
1.84
1.44
1.23
1.2
1.07
1.12
1.12
0.99
0.88
0.56
0.29
-0.08
-0.4
-0.64
-1.01
-1.44
-1.84
-2.16
-2.48
-2.61
-3.04
-3.36
-3.57
-3.73
-3.76
-3.44
-2.37
-0.56
1.79
2.96
5.92
7.17
7.87
8.16
8.24
8.03
7.76
7.52
7.15
6.72
6.43
5.52
4.8
4.08
3.49
3.36
2.83
2.72
2.64
2.61
2.56
2.32
2.05
1.63
1.2
0.88
0.45
-0.08
-0.53
-1.01
-1.44
-1.65
-2.24
-2.48
-2.77
-2.99
-3.04
-3.49
-3.6
-3.44
-2.51
-1.76
1.12
3.17
4.77
5.92
6.32
6.43
6.32
6
5.63
5.28
5.09
4.51
3.92
3.25
2.51
2.32
1.2
0.61
0.16
-0.21
-0.32
-0.56
-0.8
-1.12
-1.52
-1.84
-2.37
-3.12
-3.65
-4.13
-4.64
-4.85
-5.49
-5.92
-6.35
-6.77
-6.88
-7.6
-7.92
-8.24
-8.51
-8.56
-7.6
-6.13
-4.05
-1.84
-0.4
0.88
2.08
2.29
2.4
2.24
2.11
1.73
1.44
0.99
0.35
0.16
-1.23
-1.97
-2.56
-2.83
-2.88
-2.96
-2.85
-2.75
-2.72
-2.72
-2.83
-3.04
-3.25
-3.52
-3.84
-3.97
-4.4
-4.72
-5.04
-5.36
-5.44
-5.89
-6.11
-6.4
-6.61
-6.72
-6.8
-6.32
-5.09
-3.2
-1.44
0.69
3.04
4.11
4.69
4.88
4.85
4.69
4.48
4.16
3.79
3.68
2.61
1.81
1.04
0.77
0.24
-0.08
-0.16
-0.11
0.08
0.16
0.16
0
-0.24
-0.61
-0.96
-1.15
-1.68
-2.08
-2.51
-2.88
-2.96
-3.68
-4.05
-4.4
-4.8
-4.96
-5.36
-5.63
-5.57
-4.96
-3.76
-1.57
1.36
3.36
4.8
5.6
5.73
6.05
6
5.87
5.6
5.52
4.85
4.32
3.68
2.85
2.48
1.44
1.04
0.72
0.56
0.48
0.48
0.4
0.29
0.13
-0.16
-0.32
-0.8
-1.2
-1.63
-2
-2.08
-2.72
-3.09
-3.44
-3.84
-4
-4.4
-4.69
-4.91
-5.04
-4.88
-3.92
-2.08
0.24
2.43
4.24
4.8
6.19
6.48
6.56
6.45
6.4
6.11
5.84
5.44
4.96
4.64
3.6
2.88
2.24
1.76
1.52
1.36
1.2
1.17
1.12
1.12
1.01
0.69
0.4
0.08
-0.24
-0.32
-0.88
-1.2
-1.52
-1.89
-2
-2.4
-2.69
-2.91
-3.12
-3.2
-3.2
-2.88
-1.49
0.48
2.8
3.81
6.64
7.68
8.24
8.45
8.48
8.11
7.89
7.6
7.25
7.04
6.32
5.73
4.99
4.8
3.76
3.33
2.88
2.77
2.72
2.72
2.64
2.37
2.08
1.65
1.23
1.12
0.11
-0.43
-0.96
-1.41
-1.68
-2.48
-3.01
-3.55
-4
-4.24
-4.56
-4.96
-5.12
-4.91
-3.92
-3.01
-0.13
1.84
3.36
4.32
4.48
4.88
4.77
4.48
4.16
4
3.52
3.07
2.48
1.76
1.2
0.83
-0.32
-0.69
-0.8
-0.88
-0.93
-1.09
-1.28
-1.49
-1.76
-1.84
-2.59
-3.01
-3.44
-3.89
-4.16
-4.8
-5.23
-5.65
-6.08
-6.4
-6.77
-7.2
-7.6
-7.92
-8.08
-7.89
-6.99
-5.28
-3.09
-0.91
-0.4
2.16
2.85
3.12
3.12
3.12
2.8
2.56
2.19
1.76
1.28
0.48
-0.48
-1.28
-1.81
-2
-2.03
-2.03
-1.92
-1.84
-1.84
-1.84
-2.03
-2.19
-2.48
-2.69
-2.8
-3.28
-3.57
-3.84
-4.16
-4.4
-4.67
-5.04
-5.31
-5.73
-6
-6.11
-6.37
-5.92
-4.61
-2.59
-2
1.95
3.6
4.64
4.85
5.28
5.36
5.23
5.01
4.72
4.4
3.92
3.12
2.29
1.49
0.8
0.56
-0.08
-0.16
-0.08
-0.03
0
0.16
0.05
-0.16
-0.48
-0.64
-1.2
-1.55
-1.92
-2.32
-2.64
-3.01
-3.44
-3.84
-4.21
-4.56
-4.69
-5.12
-5.36
-5.44
-4.69
-4.32
-0.93
1.36
3.36
4.72
5.2
5.92
6.08
6.03
5.84
5.68
5.41
4.96
4.48
3.79
3.04
2.67
1.92
0.96
0.67
0.51
0.48
0.48
0.48
0.4
0.19
0.08
-0.32
-0.67
-1.04
-1.36
-1.6
-1.97
-2.4
-2.72
-2.88
-3.44
-3.57
-4
-4.32
-4.53
-4.64
-4.64
-3.23
-1.41
0.88
3.12
4.08
6.08
6.72
6.99
7.04
7.04
6.83
6.56
6.29
5.87
5.36
5.04
4.03
3.36
3.2
2.51
2.32
1.89
1.84
1.76
1.63
1.52
1.2
0.77
0.4
0.32
-0.16
-0.43
-0.8
-1.2
-1.52
-1.76
-1.89
-2.27
-2.48
-2.69
-2.91
-2.96
-3.04
-2.45
-1.28
0.67
1.84
5.12
6.8
7.87
8.4
8.56
8.45
8.24
7.92
7.6
7.28
7.07
6.37
5.68
4.91
4.11
3.92
2.85
2.53
2.32
2.24
2.08
1.76
1.49
1.07
0.64
0.16
-0.43
-1.12
-1.73
-2.32
-2.88
-3.17
-4.08
-4.56
-5.09
-5.57
-5.68
-6.32
-6.59
-6.8
-6.61
-6.24
-4.08
-2.03
0
1.76
2.56
3.09
3.52
3.39
3.17
2.96
2.83
2.35
1.92
1.52
0.77
0.4
-0.88
-1.2
-1.84
-2.03
-2.08
-2
-1.92
-1.92
-2
-2.16
-2.37
-2.72
-3.04
-3.36
-3.68
-3.84
-4.32
-4.72
-5.15
-5.57
-5.68
-6.35
-6.77
-7.12
-7.33
-7.44
-7.44
-6.61
-5.01
-2.88
-1.2
0.72
2.72
3.49
3.76
4
3.92
3.65
3.44
3.01
2.53
2.4
1.23
0.37
-0.32
-0.59
-1.12
-1.36
-1.33
-1.23
-1.12
-1.04
-1.04
-1.12
-1.31
-1.47
-1.68
-1.81
-2.24
-2.56
-2.85
-3.17
-3.28
-4
-4.37
-4.72
-5.12
-5.28
-5.68
-5.92
-5.71
-5.6
-3.52
-1.33
1.52
3.36
4.69
5.44
5.55
5.76
5.6
5.39
5.12
5.04
4.35
3.71
2.88
2.05
1.68
0.64
0.29
0.19
0.16
0.08
0.08
0
-0.13
-0.35
-0.64
-0.8
-1.28
-1.68
-2.11
-2.48
-2.56
-3.23
-3.65
-4
-4.19
-4.56
-5.04
-5.36
-5.63
-5.84
-5.68
-4.61
-2.72
-0.37
1.87
3.52
4.05
5.39
5.52
5.6
5.49
5.44
5.15
4.88
4.48
3.89
3.52
2.48
1.92
1.39
0.96
0.88
0.88
0.96
0.96
0.91
0.72
0.61
0.29
0
-0.24
-0.56
-0.72
-1.28
-1.6
-1.92
-2.32
-2.48
-2.88
-3.17
-3.44
-3.68
-3.76
-3.65
-3.12
-1.55
0.53
2.8
3.81
6.53
7.52
7.97
8.13
8.16
7.87
7.65
7.36
7.01
6.8
6
5.33
4.64
4
3.6
3.28
2.88
2.85
2.8
2.72
2.67
2.45
2.16
1.73
1.31
1.2
0.45
0.03
-0.4
-0.83
-1.04
-1.6
-1.89
-2.16
-2.4
-2.56
-2.72
-2.96
-2.88
-2.4
-1.2
-0.24
2.69
4.64
6.05
6.91
7.04
7.33
7.07
6.72
6.32
6.16
5.6
5.15
4.56
4.4
3.28
2.59
1.68
1.09
0.67
0.4
0.29
-0.03
-0.24
-0.59
-1.01
-1.12
-2.05
-2.59
-3.12
-3.73
-4
-4.88
-5.41
-5.95
-6.4
-6.72
-7.09
-7.52
-7.92
-8.24
-8.4
-8.29
-7.6
-6.08
-4.08
-1.95
-1.44
1.07
1.81
2.16
2.13
2.08
1.84
1.6
1.23
0.8
0.4
-0.35
-1.36
-2.16
-2.69
-3.04
-3.09
-3.15
-3.04
-2.96
-2.91
-2.88
-2.99
-3.15
-3.36
-3.6
-3.76
-4.16
-4.4
-4.72
-5.04
-5.2
-5.47
-5.84
-6.05
-6.27
-6.48
-6.59
-6.85
-6.8
-6.4
-5.07
-4.4
-0.72
1.31
2.88
3.81
4.08
4.4
4.35
4.19
4
3.76
3.33
2.8
2.03
1.17
0.4
0.13
-0.56
-0.72
-0.77
-0.61
-0.56
-0.37
-0.32
-0.4
-0.56
-0.72
-1.12
-1.55
-1.92
-2.32
-2.56
-2.93
-3.36
-3.79
-4
-4.56
-4.72
-5.2
-5.52
-5.71
-5.71
-5.68
-3.81
-1.79
0.48
2.51
3.36
4.96
5.49
5.65
5.68
5.52
5.31
5.04
4.61
4.13
3.44
3.04
1.87
1.2
0.72
0.51
0.48
0.32
0.32
0.32
0.19
0.08
-0.24
-0.48
-0.8
-0.88
-1.44
-1.87
-2.32
-2.72
-3.09
-3.44
-3.63
-4.16
-4.24
-4.72
-4.93
-5.04
-5.25
-4.83
-3.68
-1.73
-0.56
2.8
4.56
5.63
6.32
6.48
6.53
6.48
6.27
6.05
5.76
5.52
4.77
4.08
3.31
2.61
2.48
1.84
1.41
1.28
1.25
1.2
1.04
0.91
0.75
0.56
0.32
0.05
-0.32
-0.64
-0.96
-1.28
-1.41
-1.84
-2.16
-2.45
-2.67
-2.72
-3.09
-3.25
-3.36
-2.99
-2.56
-0.32
1.87
4.05
5.92
6.88
7.52
8.08
8.03
7.81
7.52
7.39
6.91
6.48
6.16
5.52
5.2
4.16
3.47
2.72
2.37
2.32
2.16
2.16
2.11
2.08
1.76
1.39
0.88
0.45
-0.03
-0.56
-0.83
-1.63
-2.08
-2.59
-3.01
-3.12
-3.76
-4.13
-4.48
-4.67
-5.04
-5.2
-4.61
-3.28
-2.88
0.16
1.97
3.84
4.51
4.72
4.8
4.69
4.48
3.92
3.68
3.25
3.04
2
1.31
0.56
-0.16
-0.48
-1.04
-1.2
-1.2
-1.2
-1.2
-1.36
-1.6
-2
-2.16
-2.8
-3.01
-3.44
-4.16
-4.59
-5.01
-5.12
-5.76
-6.19
-6.72
-6.91
-7.28
-7.76
-8.05
-8.21
-8.24
-7.36
-5.65
-4.8
-0.96
0
2
2.27
2.8
2.96
2.8
2.59
2.48
1.92
1.39
0.64
0.21
-0.64
-1.84
-2.05
-2.59
-2.64
-2.64
-2.53
-2.4
-2.37
-2.32
-2.48
-2.56
-2.72
-3.12
-3.36
-3.63
-3.76
-4.16
-4.43
-4.8
-4.93
-5.2
-5.6
-5.71
-6.08
-6.16
-6.48
-6.05
-5.04
-4
-1.92
1.6
2.37
4.45
5.12
5.36
5.36
5.28
5.04
4.77
4.32
4.05
3.52
2.32
1.92
0.8
0.64
0
-0.05
0
0.19
0.24
0.32
0.24
0.08
-0.08
-0.56
-0.88
-1.04
-1.6
-1.97
-2.48
-2.67
-3.04
-3.6
-3.68
-4.21
-4.4
-4.88
-5.09
-5.2
-4.64
-4.16
-1.44
-0.32
2.88
4.4
5.2
5.68
5.92
6
5.84
5.6
5.47
5.2
4.48
4.16
3.15
2.96
1.84
1.31
1.04
0.51
0.4
0.4
0.4
0.4
0.16
0
-0.27
-0.4
-0.8
-0.96
-1.6
-1.76
-2.08
-2.56
-2.75
-3.28
-3.36
-3.76
-3.92
-4.16
-4.56
-4.56
-3.6
-2.75
0.08
2.4
3.92
5.36
6.08
7.12
7.28
7.28
7.17
6.96
6.64
6.43
5.79
5.68
4.64
3.95
3.6
2.8
2.59
2.24
2.03
1.92
1.84
1.68
1.41
1.28
0.8
0.37
-0.08
-0.24
-0.56
-0.8
-1.04
-1.36
-1.68
-2
-2.27
-2.4
-2.75
-2.8
-2.88
-2.96
-2.21
-0.56
0.88
3.07
4.16
6.64
7.17
7.92
8.16
8.11
7.92
7.63
7.2
7.12
6.48
6.21
5.68
4.85
4.16
3.28
3.09
2.72
2.56
2.37
2.27
2.08
1.79
1.47
1.04
0.45
-0.08
-0.96
-1.12
-1.71
-2.24
-2.77
-3.63
-3.92
-4.43
-4.91
-5.44
-5.84
-6.11
-6.4
-6.16
-5.84
-4.56
-2.75
-0.67
1.12
2.32
3.07
3.52
3.49
3.33
3.04
2.83
2.56
2.16
1.71
1.12
0.4
-0.27
-0.91
-1.44
-1.65
-1.76
-1.76
-1.68
-1.63
-1.6
-1.71
-1.87
-2.16
-2.4
-2.72
-3.04
-3.44
-3.81
-4.24
-4.67
-5.04
-5.44
-5.87
-6.19
-6.48
-6.88
-7.15
-7.2
-6.75
-5.41
-3.44
-1.31
0.67
2.32
3.12
3.55
3.76
3.63
3.41
3.2
2.96
2.59
2
1.23
0.37
-0.4
-1.17
-1.6
-1.76
-1.73
-1.63
-1.52
-1.44
-1.44
-1.52
-1.65
-1.87
-2.08
-2.4
-2.72
-2.96
-3.28
-3.65
-4.08
-4.51
-4.93
-5.28
-5.6
-5.97
-6.24
-6.48
-6.32
-5.44
-3.63
-1.33
1.2
2.99
4.37
5.12
5.39
5.44
5.36
5.15
4.93
4.64
4.21
3.68
2.96
2.13
1.39
0.72
0.21
0.11
0.16
0.27
0.37
0.48
0.35
0.13
-0.16
-0.56
-0.93
-1.28
-1.71
-2.08
-2.48
-2.91
-3.28
-3.6
-4
-4.37
-4.72
-5.01
-5.28
-5.36
-4.75
-3.41
-1.44
0.8
2.83
4.32
5.25
5.73
5.84
5.89
5.79
5.6
5.36
4.99
4.56
3.92
3.23
2.56
1.87
1.33
1.04
0.88
0.88
0.88
0.85
0.75
0.56
0.32
0
-0.24
-0.59
-1.01
-1.44
-1.76
-2.08
-2.4
-2.8
-3.12
-3.44
-3.81
-4.03
-4.24
-4.4
-4.03
-3.12
-1.15
1.09
3.36
5.15
6.43
7.04
7.28
7.33
7.28
7.04
6.83
6.64
6.21
5.73
5.12
4.4
3.71
3.04
2.53
2.21
1.92
1.89
1.79
1.68
1.44
1.12
0.72
0.29
-0.13
-0.56
-0.91
-1.28
-1.6
-1.92
-2.29
-2.64
-2.93
-3.2
-3.44
-3.73
-3.89
-4.08
-3.57
-2.4
-0.56
1.68
3.87
5.44
6.48
7.01
7.12
7.07
6.85
6.56
6.24
5.87
5.44
4.88
4.24
3.52
2.77
2.08
1.44
1.12
0.85
0.64
0.43
0.16
-0.16
-0.59
-1.01
-1.52
-2.08
-2.61
-3.04
-3.47
-3.89
-4.32
-4.75
-5.12
-5.52
-5.87
-6.24
-6.64
-6.85
-6.96
-6.56
-5.41
-3.55
-1.44
0.43
1.92
2.96
3.44
3.6
3.52
3.31
3.09
2.88
2.53
2.11
1.52
0.85
0.16
-0.56
-1.07
-1.33
-1.44
-1.44
-1.39
-1.36
-1.36
-1.41
-1.6
-1.84
-2.11
-2.4
-2.72
-3.04
-3.36
-3.65
-3.97
-4.4
-4.75
-5.12
-5.52
-5.84
-6.16
-6.4
-6.32
-5.79
-4.32
-2.29
0
2.08
3.52
4.37
4.8
4.83
4.88
4.72
4.53
4.32
3.92
3.44
2.75
1.92
1.25
0.56
0.08
-0.11
-0.11
0
0.08
0.13
0.16
0.03
-0.24
-0.64
-1.07
-1.49
-1.92
-2.35
-2.72
-3.12
-3.55
-3.92
-4.32
-4.64
-5.01
-5.36
-5.65
-5.87
-5.6
-4.64
-2.83
-0.56
1.71
3.57
4.88
5.47
5.73
5.84
5.73
5.57
5.36
5.12
4.75
4.16
3.49
2.69
1.92
1.33
0.91
0.72
0.64
0.59
0.56
0.51
0.29
0.08
-0.24
-0.56
-0.88
-1.31
-1.73
-2.16
-2.51
-2.93
-3.36
-3.68
-4.05
-4.4
-4.72
-5.04
-5.2
-5.31
-4.88
-3.84
-1.87
0.32
2.56
4.19
5.31
5.92
6.24
6.24
6.24
6.13
5.97
5.68
5.33
4.85
4.24
3.49
2.75
2.16
1.73
1.41
1.36
1.28
1.28
1.2
1.07
0.85
0.56
0.27
0
-0.4
-0.75
-1.12
-1.52
-1.76
-2.13
-2.48
-2.77
-3.04
-3.28
-3.49
-3.65
-3.68
-3.07
-1.73
0.24
2.53
4.61
6.16
7.23
7.65
7.84
7.87
7.65
7.44
7.31
7.04
6.64
6.16
5.47
4.8
4.08
3.49
3.04
2.72
2.51
2.4
2.35
2.13
1.84
1.52
1.15
0.72
0.21
-0.27
-0.8
-1.25
-1.73
-2.16
-2.48
-2.85
-3.12
-3.44
-3.76
-4.08
-4.29
-4.4
-4.16
-2.99
-1.28
0.8
2.8
4.29
5.28
5.73
5.89
5.76
5.52
5.2
4.88
4.56
4.19
3.68
3.01
2.27
1.52
0.88
0.35
0
-0.37
-0.59
-0.8
-1.07
-1.23
-1.6
-2.03
-2.45
-2.88
-3.31
-3.73
-4.24
-4.67
-5.09
-5.52
-5.95
-6.37
-6.8
-7.15
-7.47
-7.76
-7.92
-7.71
-6.8
-5.15
-2.96
-0.8
0.85
2.03
2.8
2.91
2.96
2.8
2.59
2.37
2.08
1.6
0.96
0.24
-0.53
-1.23
-1.76
-1.95
-2
-2.08
-1.92
-1.87
-1.84
-1.89
-2.11
-2.32
-2.56
-2.88
-3.2
-3.52
-3.84
-4.08
-4.4
-4.72
-5.04
-5.28
-5.55
-5.76
-6.13
-6.35
-6.4
-5.95
-4.61
-2.64
-0.37
1.76
3.52
4.35
4.88
5.12
5.07
4.85
4.72
4.45
4.03
3.52
2.75
1.95
1.2
0.51
0.08
-0.08
-0.13
-0.03
0.08
0.16
0.11
-0.08
-0.32
-0.69
-1.04
-1.47
-1.89
-2.32
-2.67
-3.09
-3.52
-3.95
-4.32
-4.64
-5.04
-5.36
-5.6
-5.84
-5.68
-4.88
-3.15
-0.85
1.6
3.39
4.77
5.6
5.95
6
5.92
5.79
5.52
5.28
4.85
4.32
3.6
2.77
2.03
1.36
0.83
0.61
0.48
0.4
0.4
0.32
0.19
-0.03
-0.32
-0.64
-1.01
-1.36
-1.71
-2.08
-2.48
-2.83
-3.15
-3.44
-3.84
-4.16
-4.4
-4.69
-4.91
-4.96
-4.72
-3.65
-1.92
0.4
2.59
4.4
5.57
6.32
6.56
6.61
6.51
6.32
6.11
5.89
5.52
5.04
4.35
3.6
2.91
2.32
1.84
1.47
1.31
1.2
1.09
1.04
0.96
0.72
0.4
0.16
-0.19
-0.56
-0.88
-1.23
-1.6
-1.92
-2.24
-2.56
-2.88
-3.17
-3.39
-3.6
-3.71
-3.71
-3.44
-2
-0.13
2.08
4.21
5.97
7.04
7.57
7.79
7.76
7.52
7.25
7.04
6.77
6.35
5.84
5.2
4.51
3.76
3.12
2.59
2.24
2.11
2
1.92
1.68
1.36
1.04
0.61
0.13
-0.4
-1.04
-1.63
-2.16
-2.59
-3.01
-3.44
-3.87
-4.24
-4.64
-4.99
-5.36
-5.68
-5.79
-5.63
-4.72
-3.01
-0.93
1.04
2.72
3.79
4.32
4.51
4.51
4.32
4
3.73
3.44
2.99
2.45
1.76
1.01
0.32
-0.32
-0.75
-0.96
-1.04
-1.01
-0.91
-0.88
-1.01
-1.23
-1.6
-2.03
-2.45
-2.88
-3.31
-3.73
-4.16
-4.59
-5.01
-5.44
-5.79
-6.21
-6.64
-6.88
-7.15
-7.36
-7.2
-6.45
-4.88
-2.77
-0.59
1.28
2.53
3.33
3.68
3.68
3.63
3.44
3.15
2.88
2.48
1.81
1.07
0.24
-0.4
-0.93
-1.2
-1.31
-1.31
-1.2
-1.12
-1.07
-1.04
-1.17
-1.39
-1.6
-1.84
-2.16
-2.4
-2.69
-3.01
-3.44
-3.87
-4.24
-4.64
-4.96
-5.28
-5.6
-5.87
-6.03
-5.76
-4.77
-2.96
-0.72
1.49
3.25
4.48
5.04
5.25
5.36
5.17
5.01
4.72
4.29
3.81
3.12
2.37
1.57
0.88
0.32
0.05
0
0.11
0.21
0.24
0.19
0.03
-0.16
-0.56
-0.93
-1.28
-1.71
-2.08
-2.48
-2.91
-3.28
-3.68
-4
-4.37
-4.72
-5.04
-5.41
-5.6
-5.68
-5.09
-3.84
-1.65
0.64
2.8
4.4
5.47
5.92
6.16
6.11
5.92
5.71
5.44
5.04
4.51
3.81
3.04
2.24
1.55
1.12
0.83
0.61
0.56
0.64
0.64
0.64
0.43
0.21
0
-0.32
-0.64
-0.96
-1.31
-1.68
-2.08
-2.32
-2.64
-2.96
-3.25
-3.52
-3.76
-4.03
-4.13
-4
-3.09
-1.55
0.56
2.83
4.75
6.16
7.12
7.44
7.52
7.49
7.33
7.12
6.85
6.43
6
5.33
4.59
3.92
3.28
2.75
2.4
2.27
2.16
2.16
2.13
1.97
1.68
1.36
1.04
0.64
0.21
-0.16
-0.48
-0.72
-1.04
-1.36
-1.57
-1.84
-2
-2.21
-2.37
-2.48
-2.56
-2.35
-1.68
-0.08
1.95
4.16
6.11
7.39
8.16
8.48
8.43
8.16
7.92
7.55
7.12
6.69
6.16
5.52
4.75
3.95
3.2
2.53
2
1.68
1.49
1.33
1.12
0.8
0.43
0
-0.53
-1.07
-1.68
-2.24
-2.83
-3.36
-3.89
-4.48
-5.04
-5.55
-6.03
-6.56
-7.09
-7.52
-7.84
-7.89
-7.63
-6.56
-4.91
-2.83
-0.88
0.53
1.44
2.08
2.08
1.97
1.84
1.63
1.36
0.96
0.48
-0.21
-1.04
-1.79
-2.43
-2.96
-3.33
-3.44
-3.44
-3.28
-3.23
-3.2
-3.31
-3.47
-3.76
-3.97
-4.24
-4.56
-4.88
-5.2
-5.44
-5.76
-6.08
-6.4
-6.72
-6.99
-7.2
-7.39
-7.55
-7.68
-7.28
-6.21
-4.48
-2.19
0.05
2
3.04
3.73
4.08
4.05
3.89
3.68
3.41
2.99
2.4
1.65
0.85
0
-0.77
-1.25
-1.44
-1.6
-1.55
-1.36
-1.28
-1.23
-1.2
-1.31
-1.47
-1.76
-2
-2.32
-2.56
-2.99
-3.41
-3.84
-4.19
-4.61
-4.96
-5.36
-5.73
-6.08
-6.37
-6.59
-6.48
-5.52
-3.81
-1.52
0.83
2.85
4.24
4.96
5.28
5.36
5.23
5.01
4.8
4.45
3.97
3.44
2.59
1.73
0.96
0.29
-0.08
-0.16
-0.13
-0.03
0.16
0.16
0.05
-0.16
-0.4
-0.77
-1.12
-1.47
-1.89
-2.32
-2.67
-3.09
-3.44
-3.84
-4.21
-4.56
-4.93
-5.2
-5.52
-5.68
-5.47
-4.72
-2.77
-0.59
1.68
3.47
4.8
5.44
5.76
5.81
5.84
5.63
5.47
5.28
4.85
4.32
3.6
2.88
2.19
1.6
1.23
1.07
0.96
0.99
1.04
1.04
0.91
0.69
0.48
0.21
-0.16
-0.56
-0.91
-1.28
-1.6
-2
-2.32
-2.64
-2.96
-3.28
-3.6
-3.89
-4.05
-4.16
-3.57
-2.35
-0.4
1.92
4.16
5.76
6.8
7.33
7.52
7.55
7.39
7.2
6.96
6.64
6.24
5.68
5.04
4.32
3.68
3.09
2.64
2.43
2.27
2.16
2.11
1.89
1.68
1.33
0.91
0.48
0.03
-0.45
-0.88
-1.31
-1.73
-2.08
-2.37
-2.64
-2.96
-3.31
-3.63
-3.92
-4.13
-4.19
-3.76
-2.53
-0.67
1.44
3.39
4.88
5.84
6.16
6.27
6.16
5.84
5.57
5.28
4.93
4.51
3.92
3.28
2.59
1.84
1.39
0.91
0.48
0.27
0
-0.16
-0.43
-0.8
-1.2
-1.63
-2.05
-2.48
-2.91
-3.33
-3.84
-4.27
-4.64
-5.04
-5.47
-5.84
-6.24
-6.64
-6.96
-7.2
-7.23
-6.8
-5.52
-3.6
-1.41
0.64
2.08
2.99
3.44
3.55
3.55
3.36
3.15
2.93
2.56
2.08
1.44
0.72
-0.03
-0.67
-1.04
-1.23
-1.28
-1.2
-1.09
-0.99
-0.96
-1.09
-1.31
-1.52
-1.76
-2.08
-2.4
-2.69
-2.96
-3.28
-3.63
-4.05
-4.48
-4.8
-5.12
-5.44
-5.73
-6
-5.92
-5.12
-3.57
-1.44
0.83
2.75
4.16
4.91
5.23
5.36
5.25
5.15
4.96
4.72
4.35
3.76
3.12
2.43
1.68
1.12
0.8
0.72
0.72
0.77
0.8
0.75
0.53
0.32
0
-0.37
-0.8
-1.23
-1.6
-2
-2.43
-2.85
-3.28
-3.6
-3.97
-4.32
-4.72
-5.04
-5.28
-5.41
-5.04
-4
-2.03
0.16
2.4
4.03
5.15
5.76
6.08
6.08
6
5.87
5.65
5.36
4.93
4.4
3.76
3.01
2.21
1.6
1.15
0.93
0.88
0.77
0.67
0.56
0.35
0.13
-0.16
-0.59
-1.01
-1.44
-1.87
-2.24
-2.64
-3.04
-3.41
-3.76
-4.16
-4.48
-4.72
-5.01
-5.23
-5.28
-4.45
-2.96
-0.88
1.41
3.44
4.96
5.95
6.32
6.48
6.56
6.51
6.32
6.21
5.95
5.52
5.04
4.35
3.68
2.99
2.51
2.16
1.92
1.71
1.52
1.31
1.09
0.88
0.59
0.32
-0.08
-0.43
-0.8
-1.2
-1.6
-1.97
-2.32
-2.72
-3.04
-3.28
-3.6
-3.87
-4.08
-4.19
-3.92
-2.96
-1.17
0.96
3.04
4.85
5.97
6.56
6.83
6.93
6.8
6.69
6.53
6.32
5.97
5.55
4.96
4.32
3.68
3.04
2.51
2.13
1.84
1.65
1.49
1.28
0.96
0.59
0.16
-0.27
-0.75
-1.2
-1.63
-2.05
-2.48
-2.88
-3.25
-3.68
-4
-4.32
-4.72
-4.96
-5.23
-5.44
-5.09
-4.13
-2.48
-0.35
1.68
3.28
4.37
4.96
5.28
5.25
5.15
5.04
4.83
4.56
4.24
3.76
3.12
2.4
1.73
1.15
0.8
0.61
0.51
0.4
0.29
0.13
-0.08
-0.4
-0.72
-1.12
-1.57
-2.05
-2.48
-2.91
-3.39
-3.84
-4.19
-4.61
-5.04
-5.39
-5.71
-6
-6.29
-6.4
-6.16
-5.28
-3.57
-1.52
0.56
2.21
3.52
4.03
4.29
4.4
4.37
4.21
4.08
3.89
3.47
3.04
2.29
1.6
0.96
0.37
0.05
-0.08
0
0.05
0.08
0.08
0.03
-0.16
-0.37
-0.69
-1.12
-1.55
-1.97
-2.4
-2.83
-3.2
-3.6
-4.03
-4.4
-4.72
-5.12
-5.44
-5.68
-5.79
-5.36
-4.24
-2.35
-0.16
2.08
3.52
4.59
5.2
5.39
5.39
5.36
5.23
5.01
4.8
4.37
3.84
3.2
2.37
1.68
1.2
0.88
0.83
0.8
0.69
0.59
0.4
0.19
-0.08
-0.4
-0.83
-1.25
-1.6
-2.03
-2.45
-2.88
-3.31
-3.68
-4
-4.4
-4.77
-5.12
-5.41
-5.68
-5.76
-5.15
-3.87
-1.92
0.4
2.48
4.16
5.12
5.65
5.76
5.81
5.71
5.6
5.39
5.12
4.72
4.16
3.47
2.72
1.95
1.47
1.2
1.01
0.91
0.88
0.77
0.67
0.48
0.24
-0.08
-0.4
-0.83
-1.25
-1.68
-2.03
-2.4
-2.72
-3.12
-3.49
-3.84
-4.21
-4.43
-4.64
-4.83
-4.77
-4.24
-2.51
-0.43
1.84
3.84
5.39
6.24
6.67
6.77
6.8
6.67
6.51
6.4
6.13
5.71
5.12
4.48
3.84
3.2
2.61
2.19
1.84
1.71
1.49
1.36
1.12
0.8
0.56
0.24
-0.13
-0.56
-0.91
-1.28
-1.68
-2.08
-2.4
-2.72
-3.01
-3.28
-3.6
-3.89
-4.11
-4.32
-4.24
-3.6
-2.24
-0.24
2.05
4
5.47
6.37
6.88
6.96
6.91
6.8
6.59
6.37
6.08
5.73
5.25
4.64
3.89
3.2
2.56
2.05
1.68
1.44
1.23
0.96
0.72
0.37
-0.05
-0.48
-1.04
-1.57
-2
-2.45
-2.93
-3.36
-3.79
-4.16
-4.56
-4.91
-5.28
-5.68
-5.92
-6.19
-6.4
-6
-4.93
-3.2
-1.15
0.83
2.48
3.41
3.95
4.16
4.13
3.97
3.76
3.55
3.33
2.96
2.51
1.92
1.2
0.56
-0.03
-0.4
-0.59
-0.64
-0.64
-0.64
-0.64
-0.64
-0.88
-1.15
-1.36
-1.71
-2.13
-2.56
-3.07
-3.49
-3.92
-4.27
-4.69
-5.12
-5.44
-5.81
-6.16
-6.45
-6.67
-6.4
-5.55
-3.84
-1.76
0.48
2.29
3.6
4.19
4.51
4.64
4.53
4.43
4.24
4
3.63
3.04
2.4
1.65
0.88
0.32
0
-0.08
-0.13
-0.03
0
0
-0.05
-0.16
-0.4
-0.77
-1.12
-1.55
-2.03
-2.48
-2.91
-3.33
-3.76
-4.08
-4.45
-4.8
-5.2
-5.52
-5.76
-5.89
-5.57
-4.64
-2.67
-0.48
1.76
3.47
4.64
5.28
5.6
5.65
5.68
5.57
5.41
5.12
4.69
4.16
3.44
2.61
1.81
1.28
0.99
0.83
0.8
0.69
0.59
0.48
0.24
-0.08
-0.4
-0.83
-1.31
-1.76
-2.19
-2.67
-3.12
-3.55
-3.97
-4.4
-4.8
-5.17
-5.52
-5.84
-6.11
-6.24
-5.92
-4.75
-2.88
-0.53
1.71
3.44
4.72
5.31
5.6
5.68
5.68
5.52
5.41
5.25
4.88
4.4
3.71
3.04
2.32
1.73
1.28
1.2
1.2
1.28
1.25
1.15
0.96
0.67
0.4
0
-0.43
-0.8
-1.2
-1.63
-2.05
-2.4
-2.72
-3.09
-3.44
-3.76
-4.08
-4.4
-4.61
-4.56
-4
-2.51
-0.53
1.68
3.73
5.12
6.08
6.53
6.69
6.72
6.69
6.59
6.4
6.16
5.79
5.28
4.64
3.95
3.28
2.72
2.24
1.92
1.73
1.57
1.36
1.07
0.8
0.48
0.13
-0.29
-0.72
-1.07
-1.49
-1.92
-2.32
-2.64
-2.96
-3.28
-3.6
-3.92
-4.24
-4.51
-4.72
-4.61
-3.97
-2.56
-0.56
1.68
3.6
4.99
5.84
6.32
6.32
6.27
6.16
5.95
5.73
5.52
5.09
4.56
3.92
3.17
2.48
1.84
1.33
0.96
0.72
0.43
0.21
0
-0.24
-0.56
-0.96
-1.39
-1.81
-2.32
-2.75
-3.23
-3.68
-4.03
-4.45
-4.88
-5.23
-5.6
-5.92
-6.29
-6.45
-6.32
-5.55
-3.95
-1.92
0.19
1.95
3.28
3.81
4.13
4.24
4.21
4.05
3.92
3.76
3.39
2.96
2.29
1.6
0.88
0.29
-0.03
-0.16
-0.16
-0.11
-0.08
0
-0.05
-0.24
-0.45
-0.72
-1.12
-1.55
-1.97
-2.32
-2.75
-3.17
-3.6
-3.95
-4.32
-4.64
-4.96
-5.28
-5.52
-5.57
-5.04
-3.76
-1.79
0.35
2.48
3.81
4.72
5.2
5.39
5.39
5.36
5.23
5.01
4.72
4.27
3.68
3.04
2.29
1.6
1.2
0.96
0.96
0.96
0.88
0.77
0.56
0.43
0.11
-0.24
-0.67
-1.09
-1.44
-1.87
-2.29
-2.72
-3.15
-3.52
-3.84
-4.24
-4.61
-4.96
-5.23
-5.39
-5.28
-4.29
-2.59
-0.4
1.71
3.52
4.8
5.47
5.84
5.92
5.84
5.79
5.68
5.44
5.12
4.72
4.05
3.36
2.72
2.03
1.55
1.28
1.12
1.07
0.96
0.85
0.69
0.4
0.08
-0.29
-0.72
-1.15
-1.57
-2
-2.43
-2.85
-3.2
-3.6
-3.97
-4.32
-4.61
-4.88
-5.12
-5.23
-4.64
-3.52
-1.39
0.8
2.88
4.43
5.44
5.92
6.16
6.21
6.24
6.13
6.03
5.84
5.41
4.93
4.32
3.63
3.04
2.4
1.97
1.65
1.36
1.36
1.31
1.2
0.99
0.72
0.4
0.05
-0.37
-0.8
-1.23
-1.6
-1.92
-2.32
-2.69
-3.04
-3.41
-3.68
-4
-4.29
-4.45
-4.4
-3.57
-2.08
-0.08
2.19
4.16
5.44
6.35
6.72
6.88
6.91
6.75
6.64
6.51
6.24
5.84
5.39
4.8
4.16
3.52
2.93
2.4
2.16
1.95
1.76
1.55
1.28
0.96
0.53
0.11
-0.32
-0.75
-1.12
-1.52
-1.95
-2.37
-2.72
-3.04
-3.36
-3.68
-4.03
-4.4
-4.72
-4.85
-4.8
-4.08
-2.67
-0.69
1.36
3.17
4.45
5.28
5.57
5.68
5.6
5.49
5.33
5.12
4.77
4.35
3.84
3.17
2.48
1.84
1.31
0.83
0.56
0.45
0.35
0.24
0.03
-0.24
-0.64
-1.09
-1.57
-2
-2.45
-2.93
-3.36
-3.79
-4.21
-4.64
-5.07
-5.44
-5.84
-6.08
-6.4
-6.64
-6.53
-5.95
-4.48
-2.51
-0.37
1.6
2.93
3.73
4.08
4.19
4.24
4.16
3.97
3.76
3.36
2.91
2.27
1.44
0.77
0.13
-0.24
-0.43
-0.43
-0.4
-0.32
-0.27
-0.32
-0.45
-0.67
-0.96
-1.23
-1.65
-2.08
-2.59
-3.01
-3.44
-3.79
-4.21
-4.64
-4.96
-5.33
-5.68
-5.97
-6.19
-6
-5.15
-3.49
-1.36
0.88
2.75
4.08
4.77
5.15
5.28
5.17
5.07
4.96
4.72
4.35
3.84
3.17
2.37
1.6
1.04
0.72
0.64
0.59
0.69
0.72
0.75
0.53
0.32
-0.08
-0.45
-0.8
-1.23
-1.65
-2.08
-2.51
-2.88
-3.28
-3.68
-4
-4.32
-4.69
-4.96
-5.2
-5.33
-5.01
-4.16
-2.29
-0.16
2.08
3.79
5.01
5.68
6
6.05
6.08
5.95
5.73
5.52
5.17
4.64
4
3.25
2.51
2
1.57
1.25
1.04
0.96
0.91
0.8
0.67
0.45
0.16
-0.24
-0.56
-0.96
-1.31
-1.68
-2.08
-2.4
-2.77
-3.12
-3.52
-3.84
-4.08
-4.37
-4.59
-4.64
-4.37
-3.41
-1.68
0.56
2.75
4.48
5.76
6.35
6.64
6.8
6.85
6.8
6.69
6.53
6.24
5.76
5.12
4.48
3.76
3.12
2.64
2.24
2.03
1.84
1.65
1.49
1.2
0.83
0.56
0.16
-0.19
-0.61
-1.04
-1.36
-1.73
-2.08
-2.4
-2.77
-3.04
-3.36
-3.68
-3.92
-4.16
-4.32
-4.08
-3.12
-1.52
0.64
2.85
4.56
5.84
6.59
6.91
7.04
7.01
6.96
6.88
6.64
6.32
5.92
5.36
4.67
3.92
3.28
2.75
2.4
2.11
1.89
1.68
1.39
1.07
0.64
0.21
-0.27
-0.88
-1.33
-1.81
-2.24
-2.64
-3.01
-3.44
-3.79
-4.16
-4.56
-4.91
-5.23
-5.52
-5.73
-5.84
-5.28
-4.11
-2.24
-0.16
1.71
3.09
4.16
4.48
4.64
4.72
4.69
4.53
4.4
4.21
3.79
3.28
2.61
1.92
1.28
0.8
0.53
0.4
0.4
0.4
0.4
0.27
0
-0.4
-0.75
-1.17
-1.68
-2.11
-2.53
-2.96
-3.31
-3.68
-4.08
-4.51
-4.88
-5.2
-5.52
-5.84
-6.08
-6.29
-6.08
-5.36
-3.87
-1.89
0.24
1.89
3.12
3.92
4.27
4.37
4.4
4.4
4.35
4.16
3.81
3.33
2.8
2.05
1.36
0.8
0.4
0.35
0.32
0.32
0.37
0.4
0.29
0.13
-0.08
-0.48
-0.85
-1.28
-1.71
-2.08
-2.48
-2.91
-3.28
-3.6
-4
-4.37
-4.72
-5.01
-5.28
-5.52
-5.41
-4.67
-3.44
-1.41
0.67
2.48
3.84
4.69
5.04
5.28
5.28
5.28
5.15
4.93
4.64
4.16
3.47
2.72
2.03
1.49
1.2
0.99
0.83
0.72
0.69
0.59
0.4
0.16
-0.21
-0.56
-0.91
-1.33
-1.76
-2.11
-2.53
-2.88
-3.28
-3.65
-4
-4.37
-4.64
-4.96
-5.28
-5.49
-5.6
-5.09
-3.87
-2
0.21
2.29
3.76
4.8
5.28
5.52
5.6
5.6
5.52
5.41
5.25
4.88
4.32
3.68
2.96
2.32
1.84
1.52
1.41
1.36
1.28
1.25
1.09
0.96
0.72
0.4
0
-0.43
-0.8
-1.12
-1.52
-1.89
-2.24
-2.61
-2.88
-3.2
-3.52
-3.84
-4.16
-4.29
-4.4
-4
-2.93
-1.07
1.12
3.2
4.91
6.08
6.69
6.96
7.04
7.01
6.96
6.88
6.67
6.35
5.92
5.28
4.59
3.84
3.31
2.83
2.48
2.29
2.13
2
1.87
1.6
1.2
0.77
0.35
-0.08
-0.48
-0.85
-1.2
-1.57
-1.84
-2.16
-2.48
-2.8
-3.12
-3.33
-3.55
-3.76
-3.95
-3.95
-3.28
-1.92
0.11
2.24
4.13
5.52
6.32
6.69
6.8
6.72
6.53
6.37
6.16
5.81
5.39
4.8
4.13
3.33
2.56
1.87
1.33
1.04
0.75
0.53
0.32
-0.03
-0.45
-0.88
-1.33
-1.81
-2.32
-2.75
-3.23
-3.68
-4.03
-4.4
-4.8
-5.12
-5.49
-5.84
-6.24
-6.61
-6.8
-6.91
-6.48
-5.52
-3.73
-1.76
0.16
1.57
2.59
3.12
3.36
3.36
3.28
3.17
3.01
2.72
2.29
1.71
0.96
0.24
-0.4
-0.88
-1.2
-1.25
-1.28
-1.2
-1.2
-1.2
-1.39
-1.55
-1.84
-2.16
-2.48
-2.72
-3.07
-3.44
-3.76
-4
-4.37
-4.8
-5.2
-5.57
-5.92
-6.21
-6.43
-6.56
-6.24
-5.07
-3.28
-0.99
1.15
2.8
3.97
4.51
4.72
4.8
4.8
4.72
4.59
4.27
3.84
3.17
2.43
1.68
0.99
0.56
0.32
0.24
0.29
0.4
0.43
0.48
0.32
0.11
-0.21
-0.64
-1.07
-1.49
-1.92
-2.32
-2.69
-3.12
-3.52
-3.89
-4.24
-4.59
-4.96
-5.28
-5.52
-5.63
-5.28
-4.05
-2.13
0.16
2.35
4
5.12
5.71
5.97
6
5.97
5.87
5.68
5.41
4.99
4.4
3.63
2.83
2.08
1.55
1.17
0.88
0.85
0.8
0.8
0.59
0.37
0.08
-0.24
-0.61
-1.04
-1.44
-1.81
-2.24
-2.64
-3.01
-3.36
-3.71
-4.08
-4.4
-4.72
-4.99
-5.28
-5.25
-4.93
-3.76
-1.92
0.27
2.4
4
5.07
5.76
5.97
6.08
6.08
6.05
5.89
5.68
5.33
4.8
4.16
3.41
2.77
2.16
1.76
1.49
1.36
1.36
1.36
1.28
1.15
0.88
0.56
0.32
-0.05
-0.4
-0.8
-1.17
-1.52
-1.84
-2.16
-2.48
-2.8
-3.07
-3.36
-3.55
-3.71
-3.84
-3.44
-2.32
-0.48
1.71
3.84
5.76
6.8
7.49
7.76
7.76
7.65
7.52
7.39
7.17
6.88
6.4
5.76
5.12
4.48
3.84
3.28
2.93
2.77
2.64
2.53
2.37
2.16
1.81
1.39
0.96
0.51
-0.03
-0.56
-1.07
-1.49
-1.92
-2.27
-2.64
-2.96
-3.36
-3.68
-4
-4.37
-4.59
-4.56
-3.92
-2.59
-0.72
1.28
3.04
4.4
5.12
5.44
5.44
5.31
5.15
4.96
4.72
4.4
4
3.36
2.67
1.92
1.23
0.69
0.24
-0.16
-0.37
-0.56
-0.67
-0.83
-1.12
-1.52
-1.89
-2.32
-2.83
-3.31
-3.76
-4.19
-4.61
-5.04
-5.47
-5.89
-6.24
-6.64
-6.96
-7.36
-7.68
-7.89
-7.92
-7.09
-5.65
-3.68
-1.49
0.48
1.76
2.59
2.91
2.96
3.01
2.91
2.8
2.53
2.11
1.52
0.77
0.03
-0.64
-1.25
-1.63
-1.84
-1.73
-1.68
-1.6
-1.6
-1.65
-1.76
-1.97
-2.24
-2.56
-2.88
-3.15
-3.44
-3.68
-4
-4.24
-4.53
-4.75
-4.96
-5.17
-5.44
-5.76
-5.97
-5.97
-5.36
-3.92
-1.89
0.32
2.35
3.84
4.8
5.2
5.36
5.44
5.33
5.17
4.88
4.51
3.97
3.28
2.43
1.68
0.96
0.64
0.48
0.48
0.59
0.64
0.56
0.43
0.21
-0.08
-0.43
-0.8
-1.12
-1.55
-1.97
-2.32
-2.72
-3.04
-3.44
-3.79
-4.16
-4.56
-4.8
-5.12
-5.36
-5.39
-5.01
-3.76
-1.87
0.32
2.48
3.95
4.96
5.52
5.63
5.68
5.6
5.41
5.25
4.88
4.43
3.79
2.96
2.29
1.6
1.04
0.77
0.61
0.56
0.56
0.56
0.48
0.27
0.05
-0.24
-0.56
-0.93
-1.28
-1.65
-1.92
-2.32
-2.64
-2.96
-3.28
-3.52
-3.84
-4.16
-4.37
-4.59
-4.56
-4.08
-2.85
-1.04
1.23
3.31
5.04
6.05
6.69
6.96
7.09
6.99
6.8
6.59
6.32
5.92
5.39
4.75
4
3.31
2.77
2.48
2.19
2.03
2
1.89
1.79
1.6
1.28
0.91
0.48
0.08
-0.24
-0.56
-0.88
-1.2
-1.52
-1.73
-1.95
-2.24
-2.45
-2.72
-2.88
-3.04
-3.04
-2.8
-1.68
-0.03
2.08
4.13
5.84
6.96
7.63
7.79
7.76
7.55
7.28
6.96
6.72
6.35
5.92
5.25
4.51
3.84
3.12
2.53
2.08
1.87
1.71
1.6
1.36
1.09
0.72
0.21
-0.27
-0.8
-1.36
-1.95
-2.56
-3.09
-3.63
-4.16
-4.61
-5.09
-5.44
-5.76
-6.08
-6.4
-6.64
-6.8
-6.56
-5.49
-3.89
-1.92
-0.03
1.36
2.32
2.8
3.01
2.96
2.85
2.69
2.4
2.05
1.63
1.12
0.43
-0.37
-1.12
-1.65
-1.97
-2.16
-2.13
-2.08
-2
-2
-2.05
-2.24
-2.48
-2.8
-3.12
-3.44
-3.76
-4.08
-4.4
-4.72
-5.12
-5.55
-5.92
-6.32
-6.64
-6.96
-7.28
-7.47
-7.47
-6.8
-5.52
-3.49
-1.2
0.75
2.24
3.36
3.68
3.84
3.84
3.63
3.41
3.12
2.69
2.16
1.36
0.59
-0.16
-0.8
-1.17
-1.28
-1.36
-1.17
-1.07
-1.04
-0.96
-1.01
-1.2
-1.41
-1.68
-2
-2.32
-2.64
-2.88
-3.23
-3.65
-4.08
-4.43
-4.8
-5.12
-5.44
-5.76
-6
-6.05
-5.47
-4.08
-1.97
0.32
2.56
4
5.01
5.52
5.71
5.71
5.6
5.39
5.12
4.72
4.16
3.47
2.72
1.89
1.2
0.72
0.4
0.45
0.48
0.48
0.48
0.4
0.19
-0.08
-0.4
-0.75
-1.17
-1.52
-1.95
-2.37
-2.8
-3.15
-3.52
-3.84
-4.24
-4.56
-4.88
-5.17
-5.39
-5.44
-4.99
-3.81
-2
0.24
2.32
4
5.04
5.63
5.84
5.92
5.87
5.76
5.52
5.25
4.88
4.32
3.63
2.96
2.27
1.79
1.36
1.2
1.15
1.2
1.17
1.12
0.96
0.72
0.4
0.08
-0.27
-0.64
-1.04
-1.39
-1.81
-2.16
-2.48
-2.85
-3.2
-3.49
-3.71
-3.92
-4.11
-4.16
-4
-2.88
-1.17
0.96
3.2
5.12
6.32
7.07
7.39
7.44
7.31
7.15
6.96
6.75
6.43
6
5.44
4.8
4.08
3.44
2.91
2.48
2.35
2.19
2.08
1.95
1.68
1.44
1.01
0.59
0.16
-0.27
-0.69
-1.04
-1.36
-1.73
-2.08
-2.37
-2.64
-2.88
-3.17
-3.39
-3.6
-3.73
-3.73
-3.28
-2.13
-0.27
1.84
3.79
5.28
6.32
6.72
6.83
6.72
6.48
6.16
5.92
5.57
5.15
4.64
3.97
3.23
2.48
1.81
1.23
0.8
0.59
0.32
0.08
-0.16
-0.53
-0.96
-1.44
-2.03
-2.56
-2.99
-3.41
-3.92
-4.35
-4.77
-5.2
-5.55
-5.92
-6.32
-6.56
-6.88
-7.2
-7.39
-7.33
-6.56
-5.12
-3.15
-1.04
0.64
1.87
2.56
2.85
2.96
2.88
2.69
2.53
2.32
1.89
1.41
0.8
0.05
-0.64
-1.2
-1.57
-1.79
-1.84
-1.76
-1.71
-1.68
-1.73
-1.89
-2.08
-2.32
-2.64
-2.96
-3.33
-3.6
-3.92
-4.24
-4.51
-4.8
-5.04
-5.31
-5.6
-5.89
-6.16
-6.32
-6.29
-5.6
-4.24
-2.13
0.11
2.08
3.47
4.37
4.8
5.01
4.91
4.8
4.67
4.4
4
3.55
2.91
2.16
1.36
0.67
0.32
0.16
0.21
0.32
0.43
0.48
0.48
0.24
-0.08
-0.4
-0.83
-1.25
-1.68
-2.03
-2.45
-2.88
-3.28
-3.65
-4
-4.4
-4.72
-4.96
-5.17
-5.39
-5.44
-4.61
-3.12
-1.04
1.23
3.2
4.72
5.71
6.08
6.16
6.19
6.03
5.84
5.57
5.15
4.72
4.05
3.25
2.56
1.84
1.31
0.88
0.67
0.56
0.56
0.53
0.37
0.16
-0.16
-0.48
-0.88
-1.31
-1.68
-2.08
-2.48
-2.85
-3.2
-3.6
-3.97
-4.24
-4.56
-4.88
-5.12
-5.23
-5.12
-4.56
-3.15
-1.17
1.04
3.09
4.48
5.44
5.92
6.13
6.08
5.97
5.81
5.6
5.33
4.91
4.32
3.65
2.91
2.24
1.71
1.33
1.04
1.04
1.04
1.12
1.04
0.99
0.8
0.48
0.16
-0.16
-0.48
-0.85
-1.2
-1.6
-1.92
-2.24
-2.53
-2.8
-3.12
-3.36
-3.57
-3.76
-3.68
-3.2
-1.92
-0.08
2.16
4.32
5.92
6.99
7.68
7.79
7.79
7.68
7.47
7.2
6.96
6.61
6.13
5.52
4.85
4.21
3.6
3.17
2.8
2.64
2.56
2.51
2.32
2.08
1.71
1.28
0.83
0.29
-0.24
-0.77
-1.36
-1.92
-2.43
-2.8
-3.2
-3.55
-3.92
-4.24
-4.64
-4.91
-5.12
-5.17
-4.64
-3.44
-1.55
0.53
2.56
3.71
4.51
4.88
4.88
4.77
4.56
4.35
4.08
3.68
3.23
2.64
2
1.17
0.48
-0.08
-0.59
-0.75
-0.8
-0.75
-0.85
-1.04
-1.28
-1.65
-2.08
-2.51
-2.99
-3.44
-3.87
-4.35
-4.8
-5.23
-5.6
-5.92
-6.32
-6.69
-7.04
-7.33
-7.6
-7.76
-7.68
-6.99
-5.68
-3.52
-1.33
0.64
2
2.91
3.2
3.33
3.23
3.12
2.88
2.56
2.16
1.68
0.93
0.08
-0.72
-1.36
-1.68
-1.84
-1.89
-1.76
-1.65
-1.6
-1.52
-1.65
-1.87
-2.08
-2.29
-2.51
-2.72
-3.04
-3.31
-3.52
-3.84
-4.11
-4.32
-4.61
-4.88
-5.28
-5.6
-5.81
-6
-5.28
-3.95
-1.92
0.37
2.51
4
4.93
5.36
5.44
5.49
5.39
5.2
4.93
4.51
4
3.25
2.51
1.68
1.04
0.51
0.08
0.08
0.13
0.24
0.24
0.13
-0.08
-0.32
-0.64
-1.04
-1.39
-1.81
-2.16
-2.59
-3.01
-3.36
-3.76
-4.08
-4.48
-4.83
-5.15
-5.44
-5.65
-5.76
-5.36
-4.11
-2.19
0
2.13
3.73
4.8
5.39
5.6
5.6
5.49
5.33
5.12
4.77
4.29
3.68
2.91
2.11
1.36
0.96
0.69
0.48
0.48
0.53
0.56
0.53
0.37
0.16
-0.08
-0.4
-0.72
-1.04
-1.41
-1.76
-2.16
-2.48
-2.88
-3.2
-3.52
-3.84
-4.05
-4.27
-4.48
-4.43
-4.11
-2.88
-1.04
1.2
3.44
5.2
6.37
7.04
7.25
7.36
7.2
7.01
6.85
6.56
6.11
5.52
4.8
4.13
3.44
2.88
2.51
2.24
2.16
2.08
2.03
1.92
1.71
1.44
1.12
0.69
0.27
-0.16
-0.61
-0.88
-1.2
-1.49
-1.76
-2.08
-2.21
-2.43
-2.64
-2.83
-2.99
-3.04
-2.77
-1.76
-0.16
1.92
4
5.76
6.93
7.63
7.92
7.87
7.65
7.36
7.01
6.64
6.24
5.71
5.12
4.4
3.65
2.91
2.32
1.89
1.57
1.36
1.23
1.01
0.72
0.29
-0.13
-0.64
-1.25
-1.79
-2.4
-2.93
-3.47
-4.08
-4.53
-5.07
-5.52
-5.92
-6.29
-6.64
-6.93
-7.15
-7.28
-6.99
-6.03
-4.48
-2.4
-0.53
0.96
2.05
2.53
2.64
2.61
2.45
2.16
1.95
1.63
1.2
0.53
-0.21
-0.88
-1.6
-2.13
-2.56
-2.64
-2.64
-2.56
-2.53
-2.48
-2.48
-2.69
-2.91
-3.2
-3.52
-3.84
-4.24
-4.48
-4.8
-5.12
-5.44
-5.76
-6
-6.29
-6.56
-6.88
-7.12
-7.28
-7.2
-6.32
-4.83
-2.72
-0.4
1.47
2.88
3.63
3.95
4.16
4.03
3.81
3.6
3.25
2.77
2.16
1.39
0.59
-0.16
-0.72
-1.09
-1.2
-1.17
-1.07
-0.96
-0.8
-0.8
-0.88
-1.01
-1.23
-1.52
-1.76
-2.08
-2.4
-2.83
-3.25
-3.6
-4.03
-4.4
-4.72
-5.07
-5.39
-5.6
-5.79
-5.68
-4.8
-3.2
-0.96
1.36
3.31
4.69
5.68
5.89
6
5.92
5.71
5.49
5.2
4.77
4.24
3.44
2.59
1.84
1.2
0.72
0.45
0.32
0.32
0.32
0.32
0.21
0.05
-0.24
-0.56
-0.93
-1.28
-1.68
-2.05
-2.4
-2.83
-3.2
-3.6
-3.95
-4.27
-4.56
-4.88
-5.15
-5.28
-5.31
-4.67
-3.28
-1.25
0.99
3.12
4.37
5.28
5.76
5.95
5.95
5.84
5.73
5.57
5.2
4.75
4.16
3.44
2.61
1.92
1.36
0.93
0.83
0.8
0.88
0.93
0.88
0.75
0.53
0.32
0
-0.32
-0.64
-0.99
-1.36
-1.68
-2.03
-2.35
-2.56
-2.88
-3.15
-3.36
-3.63
-3.73
-3.6
-2.99
-1.65
0.32
2.64
4.72
6.32
7.36
7.89
8
7.95
7.73
7.52
7.2
6.88
6.48
5.92
5.23
4.56
3.87
3.28
2.8
2.61
2.51
2.48
2.45
2.35
2.16
1.92
1.55
1.12
0.69
0.27
-0.16
-0.59
-1.01
-1.44
-1.76
-2.03
-2.24
-2.53
-2.75
-3.04
-3.25
-3.36
-3.2
-2.16
-0.56
1.36
3.39
5.04
5.92
6.45
6.61
6.48
6.13
5.81
5.52
5.09
4.67
4.08
3.44
2.75
1.92
1.28
0.69
0.16
-0.08
-0.35
-0.48
-0.72
-1.09
-1.52
-1.95
-2.43
-3.04
-3.68
-4.27
-4.88
-5.31
-5.73
-6.16
-6.56
-6.93
-7.36
-7.71
-8.08
-8.4
-8.53
-8.59
-8.08
-6.83
-4.91
-2.8
-0.85
0.64
1.6
2
2.16
2.08
1.89
1.73
1.44
1.01
0.53
-0.24
-1.09
-1.89
-2.72
-3.04
-3.2
-3.28
-3.17
-3.07
-3.04
-2.96
-2.96
-3.12
-3.36
-3.63
-3.84
-4.16
-4.48
-4.8
-5.09
-5.31
-5.6
-5.89
-6.11
-6.4
-6.53
-6.69
-6.8
-6.69
-6.16
-4.8
-2.85
-0.61
1.52
3.01
4.08
4.64
4.75
4.8
4.64
4.43
4.21
3.84
3.28
2.59
1.76
1.01
0.27
-0.32
-0.51
-0.56
-0.48
-0.29
-0.19
-0.16
-0.13
-0.35
-0.56
-0.96
-1.33
-1.68
-2.11
-2.48
-2.88
-3.31
-3.68
-4.08
-4.4
-4.77
-5.12
-5.41
-5.63
-5.68
-5.31
-4.13
-2.24
0.05
2.19
3.92
5.01
5.65
5.84
5.89
5.79
5.6
5.36
4.99
4.56
3.89
3.09
2.32
1.52
0.88
0.56
0.32
0.27
0.24
0.24
0.19
0.08
-0.16
-0.48
-0.8
-1.12
-1.44
-1.84
-2.19
-2.56
-2.96
-3.28
-3.6
-3.92
-4.24
-4.56
-4.72
-4.91
-4.96
-4.72
-3.57
-1.81
0.32
2.4
4.21
5.44
6.13
6.4
6.48
6.43
6.21
6
5.73
5.31
4.72
4.05
3.25
2.56
1.95
1.47
1.12
0.91
0.8
0.72
0.75
0.75
0.56
0.35
0.08
-0.24
-0.56
-0.88
-1.2
-1.44
-1.76
-2.08
-2.37
-2.64
-2.8
-3.01
-3.17
-3.28
-3.36
-3.09
-2.4
-0.72
1.36
3.6
5.65
7.04
7.84
8.19
8.29
8.16
7.92
7.6
7.28
6.93
6.45
5.92
5.23
4.48
3.84
3.33
3.01
2.8
2.77
2.72
2.64
2.43
2.11
1.68
1.25
0.77
0.16
-0.37
-0.91
-1.44
-1.97
-2.51
-3.04
-3.57
-4.11
-4.56
-4.96
-5.23
-5.52
-5.6
-5.39
-4.48
-3.04
-1.07
0.88
2.4
3.41
4.08
4.08
3.97
3.76
3.52
3.2
2.88
2.43
1.84
1.2
0.45
-0.24
-0.88
-1.36
-1.57
-1.68
-1.57
-1.47
-1.44
-1.47
-1.63
-1.92
-2.27
-2.69
-3.12
-3.57
-4.05
-4.48
-4.91
-5.33
-5.76
-6.11
-6.53
-6.88
-7.2
-7.52
-7.68
-7.73
-7.15
-5.84
-3.92
-1.68
0.48
1.81
2.77
3.28
3.47
3.41
3.2
2.99
2.67
2.24
1.68
0.93
0.16
-0.64
-1.28
-1.68
-1.84
-1.84
-1.76
-1.65
-1.55
-1.52
-1.55
-1.71
-1.92
-2.13
-2.35
-2.56
-2.85
-3.12
-3.44
-3.76
-4.03
-4.24
-4.64
-4.96
-5.28
-5.57
-5.79
-5.68
-4.93
-3.44
-1.36
0.85
2.77
4.24
5.01
5.49
5.6
5.55
5.39
5.2
4.85
4.43
3.92
3.15
2.29
1.52
0.85
0.43
0.32
0.24
0.19
0.24
0.21
0.05
-0.08
-0.32
-0.64
-0.96
-1.31
-1.68
-2.08
-2.43
-2.8
-3.2
-3.6
-3.92
-4.24
-4.61
-4.88
-5.12
-5.28
-5.07
-4.4
-2.56
-0.43
1.76
3.55
4.88
5.52
5.84
5.89
5.84
5.63
5.47
5.28
4.85
4.32
3.6
2.85
2.11
1.44
0.93
0.67
0.48
0.51
0.56
0.56
0.51
0.24
0
-0.24
-0.56
-0.88
-1.23
-1.55
-1.84
-2.24
-2.61
-2.96
-3.25
-3.52
-3.76
-3.97
-4.13
-4.24
-3.63
-2.4
-0.56
1.76
3.95
5.52
6.59
7.17
7.44
7.47
7.31
7.2
6.96
6.59
6.16
5.6
4.96
4.24
3.6
3.01
2.56
2.35
2.24
2.16
2.05
1.89
1.68
1.44
1.07
0.64
0.21
-0.21
-0.64
-1.04
-1.41
-1.68
-1.97
-2.24
-2.48
-2.69
-2.91
-3.12
-3.23
-3.12
-2.48
-1.23
0.69
2.8
4.75
6.24
7.2
7.6
7.71
7.52
7.2
6.88
6.56
6.21
5.79
5.2
4.53
3.79
2.96
2.29
1.71
1.36
1.07
0.85
0.64
0.4
0.03
-0.4
-0.85
-1.33
-1.84
-2.45
-2.99
-3.52
-4.13
-4.61
-5.04
-5.39
-5.76
-6.16
-6.48
-6.75
-6.96
-7.09
-6.88
-5.84
-4.32
-2.35
-0.4
1.07
2.08
2.64
2.83
2.83
2.64
2.43
2.21
1.92
1.49
0.96
0.24
-0.43
-1.12
-1.68
-2.05
-2.21
-2.24
-2.13
-2.03
-2
-2.05
-2.21
-2.4
-2.72
-3.04
-3.36
-3.65
-3.87
-4.16
-4.45
-4.72
-5.04
-5.17
-5.39
-5.68
-5.97
-6.24
-6.32
-6.08
-5.12
-3.52
-1.36
0.72
2.48
3.57
4.21
4.48
4.53
4.43
4.32
4.11
3.79
3.36
2.72
1.97
1.2
0.48
-0.16
-0.4
-0.48
-0.43
-0.32
-0.19
-0.08
-0.16
-0.29
-0.56
-0.88
-1.28
-1.65
-2.08
-2.51
-2.88
-3.28
-3.6
-3.97
-4.32
-4.64
-5.01
-5.28
-5.47
-5.47
-5.12
-3.68
-1.81
0.4
2.43
3.97
4.96
5.57
5.79
5.84
5.71
5.49
5.2
4.93
4.45
3.84
3.01
2.21
1.52
0.93
0.61
0.48
0.4
0.4
0.4
0.29
0.13
-0.16
-0.48
-0.8
-1.2
-1.55
-1.97
-2.4
-2.72
-3.09
-3.52
-3.92
-4.29
-4.56
-4.85
-5.07
-5.28
-5.31
-4.72
-3.52
-1.47
0.72
2.72
4.32
5.23
5.76
5.92
5.97
5.84
5.73
5.57
5.36
4.91
4.32
3.68
2.93
2.24
1.6
1.17
0.96
0.88
0.91
0.96
0.96
0.77
0.61
0.32
0
-0.32
-0.72
-0.96
-1.33
-1.68
-2
-2.32
-2.56
-2.85
-3.07
-3.28
-3.49
-3.6
-3.44
-2.64
-1.15
0.88
3.17
5.2
6.8
7.76
8.19
8.4
8.27
8.05
7.76
7.44
7.07
6.64
6.05
5.31
4.56
3.89
3.31
2.96
2.67
2.56
2.48
2.37
2.21
2
1.68
1.31
0.88
0.43
-0.05
-0.48
-0.93
-1.41
-1.84
-2.27
-2.64
-3.04
-3.28
-3.55
-3.76
-3.95
-4
-3.52
-2.45
-0.75
1.28
3.07
4.45
5.52
5.76
5.87
5.68
5.44
5.12
4.88
4.53
4.11
3.6
2.93
2.19
1.44
0.83
0.35
-0.08
-0.43
-0.59
-0.8
-1.12
-1.49
-1.92
-2.27
-2.69
-3.12
-3.57
-4.05
-4.48
-4.91
-5.33
-5.76
-6.19
-6.61
-6.96
-7.36
-7.73
-8
-8.13
-7.92
-7.2
-5.68
-3.65
-1.52
0.05
1.23
1.92
2.19
2.24
2.16
1.95
1.68
1.36
0.91
0.32
-0.32
-1.15
-1.95
-2.48
-2.83
-2.93
-2.96
-2.85
-2.75
-2.64
-2.67
-2.83
-3.04
-3.25
-3.52
-3.76
-4.05
-4.32
-4.64
-4.96
-5.23
-5.44
-5.73
-5.95
-6.16
-6.43
-6.53
-6.56
-6.21
-5.31
-3.76
-1.55
0.59
2.4
3.65
4.4
4.64
4.77
4.67
4.56
4.32
4
3.6
2.96
2.21
1.44
0.67
0.13
-0.16
-0.32
-0.27
-0.08
0.03
0.08
0.08
0
-0.32
-0.56
-0.91
-1.33
-1.76
-2.11
-2.53
-2.88
-3.28
-3.65
-4
-4.29
-4.51
-4.72
-5.01
-5.12
-4.96
-3.81
-2.11
0
2.21
3.97
5.12
5.76
6.03
6.08
5.95
5.79
5.6
5.25
4.83
4.24
3.47
2.67
1.92
1.2
0.67
0.32
0.29
0.24
0.24
0.11
-0.11
-0.32
-0.56
-0.93
-1.36
-1.79
-2.16
-2.56
-2.96
-3.28
-3.6
-4
-4.32
-4.64
-4.93
-5.15
-5.44
-5.44
-5.12
-4.16
-2.35
-0.11
2.08
3.95
5.17
5.92
6.21
6.27
6.16
6.05
5.89
5.6
5.15
4.61
3.92
3.15
2.4
1.68
1.28
1.01
0.88
0.85
0.8
0.8
0.77
0.61
0.4
0.16
-0.16
-0.48
-0.8
-1.12
-1.44
-1.73
-2
-2.24
-2.53
-2.75
-3.04
-3.17
-3.33
-3.36
-2.96
-1.89
-0.08
2.08
4.16
5.92
6.96
7.55
7.84
7.73
7.57
7.36
7.07
6.75
6.32
5.87
5.23
4.48
3.84
3.2
2.72
2.35
2.13
2.08
2.05
1.95
1.76
1.41
0.99
0.48
0.03
-0.51
-1.04
-1.65
-2.19
-2.72
-3.23
-3.65
-4.08
-4.4
-4.77
-5.12
-5.41
-5.63
-5.52
-4.8
-3.36
-1.44
0.59
2.24
3.44
4.03
4.24
4.24
4.03
3.81
3.52
3.2
2.83
2.32
1.68
0.93
0.16
-0.53
-1.12
-1.36
-1.44
-1.39
-1.36
-1.25
-1.25
-1.36
-1.76
-2.13
-2.56
-2.99
-3.47
-3.92
-4.35
-4.72
-5.12
-5.55
-5.97
-6.32
-6.72
-7.09
-7.36
-7.55
-7.55
-7.04
-5.49
-3.57
-1.44
0.48
1.92
2.72
3.23
3.33
3.28
3.07
2.85
2.56
2.13
1.6
0.88
0.03
-0.83
-1.44
-1.81
-1.97
-2
-1.87
-1.76
-1.68
-1.68
-1.73
-1.92
-2.13
-2.35
-2.56
-2.88
-3.2
-3.52
-3.76
-4.08
-4.4
-4.64
-5.01
-5.36
-5.68
-5.95
-6.08
-5.89
-4.93
-3.28
-1.04
1.15
3.04
4.4
5.04
5.36
5.44
5.33
5.12
4.99
4.67
4.24
3.57
2.83
2
1.28
0.64
0.16
-0.03
-0.03
0.08
0.19
0.24
0.08
-0.13
-0.35
-0.64
-0.99
-1.41
-1.84
-2.16
-2.53
-2.96
-3.36
-3.73
-4.08
-4.4
-4.72
-5.04
-5.25
-5.25
-4.88
-3.6
-1.73
0.4
2.48
4.03
5.04
5.57
5.73
5.68
5.57
5.41
5.2
4.85
4.43
3.84
3.15
2.35
1.52
0.99
0.61
0.4
0.4
0.4
0.4
0.29
0.19
0
-0.24
-0.56
-0.88
-1.12
-1.49
-1.84
-2.24
-2.56
-2.8
-3.15
-3.52
-3.76
-4
-4.21
-4.4
-4.27
-3.57
-2.16
-0.16
2.08
4.08
5.6
6.56
7.2
7.23
7.23
7.12
6.91
6.64
6.32
5.87
5.28
4.56
3.81
3.17
2.64
2.24
1.97
1.84
1.68
1.63
1.52
1.31
1.04
0.72
0.29
-0.13
-0.48
-0.8
-1.12
-1.36
-1.68
-2
-2.24
-2.48
-2.69
-2.88
-3.07
-3.12
-3.04
-2.43
-1.15
0.72
2.85
4.83
6.56
7.28
7.71
7.84
7.71
7.44
7.2
6.85
6.43
6
5.44
4.8
4.08
3.41
2.72
2.16
1.71
1.49
1.28
1.07
0.8
0.48
0.05
-0.37
-0.88
-1.44
-2.08
-2.56
-3.09
-3.63
-4.16
-4.72
-5.2
-5.6
-6
-6.37
-6.72
-6.99
-7.04
-6.72
-5.55
-3.84
-1.84
-0.16
1.23
2.16
2.53
2.69
2.64
2.43
2.21
1.92
1.57
1.09
0.56
-0.19
-0.93
-1.6
-2.19
-2.56
-2.64
-2.69
-2.59
-2.48
-2.51
-2.61
-2.8
-3.04
-3.36
-3.6
-3.92
-4.24
-4.56
-4.88
-5.15
-5.44
-5.76
-6.03
-6.32
-6.69
-6.96
-7.2
-7.23
-6.59
-5.36
-3.23
-1.04
0.96
2.51
3.47
3.84
4
4
3.84
3.63
3.36
2.96
2.4
1.71
0.88
0.08
-0.56
-1.04
-1.2
-1.2
-1.12
-1.01
-0.96
-0.88
-0.93
-1.15
-1.36
-1.57
-1.84
-2.16
-2.4
-2.77
-3.2
-3.6
-3.97
-4.32
-4.72
-5.04
-5.36
-5.65
-5.81
-5.76
-4.72
-3.01
-0.8
1.47
3.44
4.72
5.55
5.87
5.92
5.79
5.63
5.44
5.09
4.67
4
3.23
2.43
1.6
0.99
0.56
0.32
0.29
0.24
0.24
0.21
0.05
-0.16
-0.4
-0.72
-1.12
-1.47
-1.89
-2.24
-2.67
-3.09
-3.44
-3.84
-4.16
-4.56
-4.88
-5.2
-5.52
-5.6
-5.39
-4.48
-2.69
-0.51
1.68
3.47
4.64
5.36
5.65
5.71
5.6
5.49
5.33
5.04
4.69
4.21
3.6
2.83
2.08
1.44
1.12
0.91
0.8
0.8
0.8
0.8
0.67
0.45
0.24
-0.08
-0.35
-0.64
-1.04
-1.41
-1.76
-2.08
-2.4
-2.72
-3.01
-3.28
-3.6
-3.73
-3.95
-4
-3.49
-2.32
-0.4
1.84
3.97
5.76
6.88
7.47
7.76
7.76
7.65
7.44
7.15
6.88
6.48
6
5.31
4.56
3.92
3.33
2.88
2.61
2.45
2.4
2.32
2.27
2.08
1.84
1.52
1.12
0.67
0.19
-0.24
-0.67
-1.04
-1.36
-1.65
-1.92
-2.24
-2.45
-2.67
-2.8
-2.99
-3.04
-2.64
-1.71
0
2.08
3.92
5.41
6.4
6.77
6.88
6.64
6.35
6.08
5.68
5.33
4.91
4.32
3.68
2.93
2.16
1.52
0.88
0.48
0.19
-0.03
-0.24
-0.56
-0.93
-1.36
-1.81
-2.35
-2.88
-3.49
-4.08
-4.64
-5.2
-5.73
-6.16
-6.59
-7.01
-7.44
-7.84
-8.16
-8.4
-8.64
-8.37
-7.6
-5.92
-3.89
-1.76
-0.13
1.09
1.76
2.08
2.08
1.92
1.79
1.57
1.28
0.83
0.24
-0.48
-1.33
-2.19
-2.72
-2.99
-3.09
-3.12
-3.07
-2.96
-2.88
-2.88
-2.99
-3.2
-3.41
-3.63
-3.92
-4.21
-4.48
-4.8
-5.04
-5.36
-5.68
-5.89
-6.16
-6.4
-6.59
-6.69
-6.72
-6.32
-5.25
-3.52
-1.36
0.83
2.48
3.76
4.4
4.64
4.72
4.61
4.4
4.19
3.87
3.44
2.77
1.97
1.12
0.4
-0.19
-0.48
-0.56
-0.51
-0.32
-0.21
-0.16
-0.16
-0.29
-0.56
-0.88
-1.23
-1.6
-2
-2.35
-2.77
-3.12
-3.52
-3.89
-4.32
-4.64
-4.96
-5.28
-5.52
-5.63
-5.28
-4.05
-2.13
0.08
2.27
3.92
5.04
5.63
5.89
5.84
5.73
5.57
5.36
5.01
4.48
3.84
3.07
2.27
1.44
0.88
0.45
0.24
0.21
0.16
0.16
0.05
-0.05
-0.24
-0.56
-0.88
-1.28
-1.6
-1.97
-2.4
-2.8
-3.17
-3.52
-3.87
-4.24
-4.56
-4.8
-5.01
-5.2
-5.17
-4.8
-3.6
-1.76
0.48
2.56
4.16
5.23
5.92
6.05
6.16
6.08
5.87
5.65
5.44
4.99
4.4
3.68
2.93
2.29
1.68
1.28
1.01
0.88
0.88
0.93
0.96
0.85
0.69
0.4
0.16
-0.16
-0.48
-0.8
-1.17
-1.44
-1.76
-2.08
-2.4
-2.64
-2.91
-3.12
-3.33
-3.44
-3.44
-2.88
-1.49
0.48
2.64
4.72
6.48
7.28
7.76
8
7.87
7.65
7.44
7.15
6.83
6.4
5.76
5.12
4.4
3.68
3.04
2.56
2.29
2.19
2.16
2.08
1.97
1.68
1.41
0.99
0.56
0.08
-0.56
-1.04
-1.57
-2.11
-2.64
-3.15
-3.52
-3.92
-4.32
-4.69
-5.04
-5.39
-5.44
-5.12
-3.92
-2.11
0
1.87
3.36
4.32
4.69
4.8
4.64
4.4
4.08
3.84
3.49
3.01
2.4
1.65
0.85
0.16
-0.48
-0.8
-0.88
-0.96
-0.91
-1.04
-1.15
-1.31
-1.6
-2.03
-2.45
-2.88
-3.39
-3.81
-4.24
-4.67
-5.09
-5.52
-5.95
-6.37
-6.72
-7.12
-7.44
-7.76
-7.92
-7.55
-6.64
-4.69
-2.56
-0.48
1.2
2.37
2.88
3.12
3.12
2.96
2.72
2.45
2.08
1.6
0.85
0
-0.8
-1.39
-1.84
-2
-2.05
-2
-1.89
-1.84
-1.76
-1.79
-1.95
-2.16
-2.37
-2.64
-2.88
-3.2
-3.47
-3.76
-4
-4.32
-4.56
-4.88
-5.2
-5.6
-5.89
-6.05
-6
-5.09
-3.55
-1.36
0.91
2.88
4.16
4.99
5.31
5.36
5.39
5.23
5.04
4.69
4.27
3.6
2.83
2.03
1.2
0.69
0.43
0.24
0.35
0.4
0.48
0.45
0.29
0.08
-0.16
-0.48
-0.88
-1.23
-1.6
-2
-2.43
-2.85
-3.28
-3.68
-4
-4.4
-4.72
-4.99
-5.28
-5.28
-4.85
-3.6
-1.57
0.83
2.96
4.72
5.79
6.32
6.53
6.59
6.48
6.35
6.13
5.84
5.39
4.8
4
3.25
2.56
1.92
1.6
1.33
1.12
0.99
0.77
0.64
0.43
0.16
-0.08
-0.4
-0.72
-1.04
-1.44
-1.76
-2.08
-2.45
-2.72
-3.04
-3.36
-3.68
-4
-4.21
-4.32
-4.24
-3.6
-2.16
-0.16
1.97
3.89
5.44
6.27
6.69
6.88
6.85
6.69
6.48
6.27
5.95
5.52
4.96
4.27
3.52
2.85
2.21
1.76
1.49
1.33
1.2
1.07
0.8
0.56
0.21
-0.16
-0.48
-0.8
-1.17
-1.52
-1.92
-2.24
-2.64
-2.96
-3.28
-3.6
-3.84
-4.11
-4.32
-4.51
-4.51
-3.76
-2.37
-0.29
1.92
3.84
5.28
6.24
6.61
6.72
6.64
6.45
6.29
6.08
5.76
5.39
4.8
4.16
3.47
2.72
2.11
1.57
1.28
1.09
0.93
0.72
0.48
0.21
-0.08
-0.48
-0.85
-1.28
-1.79
-2.21
-2.64
-2.99
-3.41
-3.84
-4.16
-4.53
-4.88
-5.28
-5.6
-5.76
-5.84
-5.25
-4.08
-2.13
-0.16
1.76
3.07
3.92
4.32
4.45
4.35
4.16
4.03
3.81
3.52
3.07
2.48
1.84
1.12
0.43
-0.08
-0.35
-0.45
-0.48
-0.45
-0.4
-0.4
-0.53
-0.85
-1.2
-1.63
-2.05
-2.48
-2.99
-3.41
-3.84
-4.24
-4.61
-5.04
-5.44
-5.81
-6.08
-6.4
-6.67
-6.72
-6.29
-5.01
-3.12
-0.91
1.17
2.72
3.79
4.21
4.4
4.45
4.29
4.08
3.95
3.63
3.2
2.61
1.81
1.12
0.4
-0.08
-0.32
-0.4
-0.4
-0.32
-0.29
-0.24
-0.32
-0.53
-0.75
-0.96
-1.39
-1.81
-2.24
-2.67
-3.09
-3.52
-3.95
-4.37
-4.72
-5.07
-5.44
-5.76
-5.89
-5.79
-5.12
-3.44
-1.31
0.96
2.91
4.24
5.04
5.41
5.57
5.52
5.41
5.25
5.04
4.69
4.16
3.52
2.75
1.95
1.2
0.88
0.72
0.72
0.72
0.72
0.64
0.43
0.21
-0.08
-0.43
-0.85
-1.28
-1.63
-2.05
-2.48
-2.88
-3.25
-3.68
-4.03
-4.4
-4.8
-5.12
-5.33
-5.44
-4.88
-3.65
-1.68
0.64
2.77
4.4
5.39
5.92
6.24
6.24
6.19
6.08
5.95
5.68
5.28
4.72
4.03
3.28
2.64
2.11
1.76
1.47
1.25
1.12
1.09
0.99
0.8
0.56
0.24
-0.08
-0.4
-0.77
-1.12
-1.52
-1.89
-2.16
-2.51
-2.88
-3.2
-3.52
-3.79
-4
-4.16
-4
-3.12
-1.63
0.56
2.72
4.56
5.89
6.88
7.09
7.2
7.2
7.09
6.93
6.8
6.53
6.11
5.6
4.93
4.24
3.6
3.01
2.59
2.32
2.05
1.95
1.76
1.63
1.36
0.96
0.53
0.11
-0.32
-0.72
-1.09
-1.44
-1.76
-2.08
-2.4
-2.72
-2.99
-3.28
-3.49
-3.71
-3.84
-3.79
-3.09
-1.6
0.4
2.59
4.64
5.87
6.67
7.04
7.04
6.93
6.72
6.51
6.24
5.84
5.41
4.93
4.32
3.49
2.75
2.08
1.52
1.2
0.96
0.67
0.4
0.08
-0.27
-0.69
-1.2
-1.65
-2.24
-2.72
-3.15
-3.57
-4
-4.43
-4.8
-5.12
-5.52
-5.89
-6.24
-6.53
-6.75
-6.8
-6.27
-5.09
-3.28
-1.17
0.69
2.16
2.93
3.41
3.52
3.49
3.39
3.28
3.07
2.8
2.4
1.84
1.15
0.4
-0.29
-0.83
-1.12
-1.2
-1.2
-1.2
-1.17
-1.12
-1.2
-1.41
-1.68
-1.92
-2.16
-2.48
-2.88
-3.12
-3.49
-3.92
-4.35
-4.77
-5.12
-5.52
-5.84
-6.08
-6.29
-6.29
-5.92
-4.45
-2.48
-0.24
1.76
3.31
4.16
4.69
4.85
4.88
4.67
4.51
4.32
3.97
3.49
2.8
2
1.31
0.56
0.11
-0.05
-0.08
-0.05
0
0.08
0.08
-0.03
-0.24
-0.67
-1.04
-1.44
-1.87
-2.24
-2.64
-3.07
-3.49
-3.84
-4.24
-4.56
-4.96
-5.28
-5.55
-5.84
-5.68
-4.99
-3.52
-1.36
0.99
2.96
4.43
5.28
5.76
5.84
5.79
5.68
5.55
5.33
4.96
4.4
3.76
2.96
2.21
1.57
0.96
0.75
0.64
0.56
0.53
0.43
0.32
0.08
-0.24
-0.56
-0.99
-1.36
-1.68
-2.08
-2.45
-2.88
-3.28
-3.6
-4
-4.35
-4.72
-5.04
-5.28
-5.44
-5.36
-4.51
-2.91
-0.8
1.39
3.25
4.64
5.44
5.81
5.92
5.92
5.87
5.76
5.55
5.23
4.8
4.13
3.39
2.64
2.08
1.55
1.28
1.09
1.04
1.04
1.01
0.91
0.72
0.4
0.13
-0.16
-0.56
-0.88
-1.2
-1.6
-1.92
-2.24
-2.59
-2.96
-3.28
-3.49
-3.71
-3.92
-3.97
-3.76
-2.72
-0.99
1.2
3.44
5.23
6.51
7.2
7.41
7.52
7.44
7.25
7.09
6.88
6.53
6.05
5.44
4.77
4.08
3.44
2.85
2.43
2.24
2.05
1.95
1.84
1.63
1.36
0.96
0.53
0.11
-0.4
-0.88
-1.2
-1.6
-1.95
-2.32
-2.72
-3.04
-3.36
-3.68
-3.92
-4.24
-4.4
-4.29
-3.55
-2.16
-0.08
1.95
3.76
4.93
5.57
5.84
5.81
5.65
5.44
5.15
4.88
4.56
4.11
3.52
2.8
1.97
1.23
0.64
0.21
-0.16
-0.4
-0.64
-0.85
-0.96
-1.2
-1.57
-2
-2.43
-2.85
-3.28
-3.79
-4.21
-4.64
-5.07
-5.49
-5.92
-6.32
-6.69
-7.04
-7.33
-7.55
-7.6
-7.09
-5.87
-4
-1.81
0.16
1.68
2.75
3.12
3.2
3.25
3.15
2.96
2.72
2.35
1.84
1.17
0.37
-0.4
-1.09
-1.52
-1.76
-1.81
-1.76
-1.68
-1.68
-1.68
-1.76
-1.97
-2.19
-2.4
-2.69
-2.91
-3.2
-3.44
-3.71
-4
-4.29
-4.56
-4.96
-5.28
-5.6
-5.92
-6.13
-6.03
-5.44
-3.84
-1.71
0.56
2.51
3.79
4.64
5.01
5.17
5.12
4.99
4.77
4.48
4.03
3.44
2.64
1.87
1.07
0.4
0.08
-0.08
-0.08
0.03
0.08
0.16
-0.03
-0.19
-0.48
-0.83
-1.2
-1.6
-2
-2.37
-2.8
-3.23
-3.65
-4
-4.35
-4.72
-5.04
-5.36
-5.63
-5.84
-5.39
-4.32
-2.48
-0.16
2.08
3.92
5.09
5.73
6.08
6.05
5.95
5.84
5.6
5.28
4.88
4.29
3.49
2.64
1.89
1.31
0.88
0.59
0.48
0.4
0.4
0.35
0.16
-0.05
-0.32
-0.64
-0.96
-1.33
-1.68
-2
-2.37
-2.72
-3.04
-3.36
-3.68
-4
-4.27
-4.48
-4.67
-4.72
-4.16
-2.96
-0.99
1.2
3.2
4.85
6.08
6.48
6.64
6.72
6.59
6.37
6.16
5.89
5.47
4.96
4.29
3.6
2.88
2.37
1.95
1.68
1.52
1.47
1.36
1.23
0.96
0.64
0.43
0.16
-0.16
-0.56
-0.93
-1.2
-1.55
-1.92
-2.24
-2.48
-2.75
-3.04
-3.25
-3.47
-3.6
-3.65
-3.12
-1.84
0.08
2.32
4.48
5.92
6.93
7.44
7.52
7.41
7.2
6.99
6.72
6.4
5.97
5.49
4.88
4.21
3.41
2.72
2.16
1.84
1.6
1.47
1.25
1.04
0.8
0.43
0
-0.56
-1.2
-1.76
-2.32
-2.91
-3.36
-3.79
-4.21
-4.64
-5.07
-5.49
-5.84
-6.16
-6.48
-6.64
-6.45
-5.55
-4
-1.87
0.16
1.76
2.88
3.47
3.6
3.63
3.41
3.2
2.99
2.72
2.32
1.76
1.12
0.4
-0.4
-0.99
-1.44
-1.63
-1.73
-1.68
-1.65
-1.6
-1.68
-1.81
-2.03
-2.24
-2.56
-2.88
-3.2
-3.55
-3.97
-4.4
-4.83
-5.25
-5.6
-6
-6.32
-6.72
-7.01
-7.17
-7.12
-6.21
-4.67
-2.56
-0.29
1.68
2.88
3.71
4.03
4.08
4.11
3.89
3.68
3.41
2.93
2.32
1.55
0.75
-0.08
-0.59
-0.91
-1.12
-1.09
-0.99
-0.88
-0.85
-0.8
-0.88
-1.01
-1.28
-1.52
-1.76
-2.13
-2.56
-2.99
-3.41
-3.84
-4.24
-4.61
-5.04
-5.39
-5.76
-6.08
-6.16
-5.95
-5.12
-3.39
-1.09
1.12
3.01
4.29
5.04
5.33
5.44
5.36
5.15
4.93
4.64
4.19
3.55
2.72
1.95
1.2
0.48
0.08
-0.08
-0.08
-0.05
0.11
0.08
-0.05
-0.27
-0.56
-0.91
-1.33
-1.68
-2.11
-2.53
-2.96
-3.47
-3.84
-4.24
-4.59
-4.96
-5.36
-5.6
-5.92
-6.16
-6.08
-5.55
-4
-1.87
0.48
2.48
3.84
4.75
5.2
5.23
5.28
5.12
4.91
4.69
4.32
3.84
3.15
2.32
1.57
0.88
0.48
0.29
0.29
0.4
0.51
0.61
0.64
0.4
0.13
-0.08
-0.48
-0.85
-1.2
-1.55
-1.92
-2.24
-2.59
-2.96
-3.28
-3.52
-3.84
-4.16
-4.37
-4.59
-4.48
-3.87
-2.43
-0.4
1.97
4.11
5.76
6.72
7.25
7.44
7.41
7.25
7.04
6.69
6.27
5.84
5.2
4.51
3.76
3.07
2.48
2.08
1.81
1.71
1.68
1.65
1.55
1.36
1.04
0.72
0.32
-0.05
-0.32
-0.64
-0.96
-1.28
-1.6
-1.81
-2.03
-2.32
-2.53
-2.8
-2.96
-3.12
-3.12
-2.8
-1.68
0.03
2.16
4.21
5.87
6.96
7.55
7.65
7.52
7.09
6.72
6.32
5.89
5.41
4.8
4.13
3.33
2.64
1.97
1.55
1.12
0.91
0.75
0.56
0.35
0.13
-0.24
-0.67
-1.09
-1.68
-2.21
-2.8
-3.44
-3.97
-4.51
-5.04
-5.65
-6.24
-6.72
-7.07
-7.44
-7.84
-8.08
-8.13
-7.6
-6.19
-4.21
-2.16
-0.29
0.99
1.76
2.11
2.21
2.08
1.87
1.55
1.12
0.67
0.08
-0.64
-1.41
-2.21
-2.88
-3.31
-3.52
-3.6
-3.49
-3.39
-3.28
-3.31
-3.41
-3.6
-3.81
-4.03
-4.32
-4.56
-4.83
-5.12
-5.44
-5.76
-6
-6.24
-6.56
-6.8
-7.04
-7.25
-7.36
-7.23
-6.53
-5.12
-3.09
-0.8
1.28
2.8
3.76
4.32
4.35
4.29
4.08
3.84
3.47
2.96
2.29
1.49
0.64
-0.19
-0.72
-1.04
-1.15
-1.09
-0.96
-0.77
-0.67
-0.64
-0.67
-0.77
-0.96
-1.17
-1.49
-1.92
-2.32
-2.69
-3.12
-3.47
-3.89
-4.32
-4.67
-5.04
-5.36
-5.65
-5.87
-5.76
-4.83
-2.96
-0.56
1.73
3.6
5.12
5.73
6.05
6.16
6.03
5.81
5.6
5.17
4.64
4
3.15
2.29
1.52
0.93
0.51
0.32
0.24
0.24
0.24
0.24
0.13
-0.08
-0.29
-0.61
-0.96
-1.36
-1.73
-2.16
-2.51
-2.88
-3.28
-3.63
-4
-4.32
-4.72
-5.04
-5.28
-5.33
-4.8
-3.44
-1.41
0.88
3.2
4.56
5.52
6
6.19
6.19
6.08
5.95
5.73
5.44
4.99
4.4
3.68
2.96
2.32
1.76
1.31
1.09
1.04
1.12
1.12
1.12
0.99
0.77
0.48
0.16
-0.16
-0.48
-0.8
-1.12
-1.52
-1.84
-2.11
-2.4
-2.72
-3.04
-3.28
-3.55
-3.6
-3.28
-2.19
-0.37
1.92
4.03
5.79
7.04
7.76
8.03
8
7.87
7.65
7.44
7.12
6.75
6.24
5.57
4.83
4.16
3.49
3.07
2.8
2.64
2.59
2.48
2.37
2.21
1.92
1.52
1.15
0.72
0.21
-0.21
-0.64
-1.17
-1.65
-2.08
-2.4
-2.77
-3.12
-3.41
-3.63
-3.84
-3.87
-3.28
-2.16
-0.21
1.87
3.76
5.12
6.03
6.32
6.43
6.21
5.92
5.6
5.33
4.96
4.48
3.84
3.12
2.4
1.71
1.12
0.61
0.29
0.08
-0.05
-0.27
-0.56
-0.91
-1.33
-1.76
-2.29
-2.83
-3.28
-3.79
-4.21
-4.64
-5.07
-5.49
-5.84
-6.27
-6.64
-7.04
-7.33
-7.49
-7.52
-6.59
-5.04
-3.04
-0.88
0.93
2.08
2.8
3.07
3.12
3.07
2.91
2.72
2.37
1.95
1.36
0.59
-0.21
-0.88
-1.36
-1.57
-1.76
-1.65
-1.55
-1.44
-1.44
-1.49
-1.6
-1.73
-2
-2.24
-2.56
-2.83
-3.12
-3.36
-3.68
-3.92
-4.27
-4.64
-4.96
-5.31
-5.63
-5.92
-5.87
-5.33
-4.08
-2.08
0.21
2.16
3.63
4.59
5.12
5.2
5.15
4.96
4.75
4.48
4.08
3.52
2.83
2
1.25
0.67
0.24
0.21
0.21
0.32
0.32
0.27
0.16
0
-0.32
-0.64
-0.99
-1.36
-1.76
-2.16
-2.53
-2.88
-3.31
-3.68
-4
-4.35
-4.72
-5.04
-5.25
-5.36
-5.04
-4
-2.19
0
2.16
3.92
5.12
5.71
5.92
6
5.81
5.65
5.44
5.09
4.67
4.08
3.31
2.45
1.6
0.99
0.56
0.32
0.32
0.32
0.32
0.19
-0.03
-0.24
-0.56
-0.88
-1.2
-1.6
-1.97
-2.32
-2.72
-3.04
-3.36
-3.71
-4.08
-4.4
-4.64
-4.91
-5.04
-4.91
-4.21
-2.64
-0.61
1.68
3.84
5.2
6.11
6.64
6.67
6.67
6.56
6.35
6.13
5.84
5.36
4.67
3.92
3.25
2.61
2.16
1.87
1.65
1.6
1.49
1.39
1.2
0.96
0.69
0.48
0.16
-0.16
-0.48
-0.85
-1.12
-1.44
-1.76
-2.03
-2.32
-2.53
-2.75
-2.88
-3.07
-3.12
-2.72
-1.57
0.24
2.4
4.53
6.24
7.36
7.92
8.08
8.08
7.87
7.65
7.44
7.09
6.67
6.24
5.6
4.91
4.24
3.71
3.17
2.88
2.72
2.67
2.64
2.51
2.29
1.92
1.49
1.07
0.56
-0.05
-0.59
-1.12
-1.68
-2.27
-2.88
-3.41
-3.95
-4.4
-4.83
-5.25
-5.52
-5.63
-5.2
-4.16
-2.37
-0.35
1.6
2.99
3.84
4.16
4.29
4.13
3.92
3.6
3.28
2.88
2.43
1.84
1.12
0.37
-0.43
-0.96
-1.33
-1.49
-1.52
-1.49
-1.44
-1.44
-1.68
-2
-2.4
-2.83
-3.25
-3.68
-4.19
-4.61
-5.04
-5.47
-5.89
-6.32
-6.72
-7.09
-7.44
-7.76
-8.03
-8.16
-7.76
-6.64
-4.88
-2.59
-0.45
1.2
2.29
2.77
2.96
3.01
2.85
2.64
2.37
1.95
1.44
0.69
-0.11
-0.96
-1.65
-2.08
-2.32
-2.4
-2.35
-2.24
-2.13
-2.08
-2.16
-2.35
-2.51
-2.72
-3.04
-3.36
-3.68
-3.89
-4.16
-4.48
-4.77
-5.04
-5.28
-5.57
-5.79
-6
-6.13
-6.03
-5.44
-3.68
-1.55
0.72
2.75
4.08
4.88
5.25
5.41
5.28
5.15
4.93
4.56
4.08
3.39
2.64
1.79
1.04
0.4
0
-0.16
-0.16
0.03
0.13
0.24
0.05
-0.11
-0.32
-0.67
-1.04
-1.44
-1.76
-2.13
-2.48
-2.91
-3.33
-3.68
-4.03
-4.4
-4.72
-5.04
-5.25
-5.44
-4.91
-3.73
-1.84
0.45
2.48
4.08
5.15
5.68
5.92
5.89
5.73
5.52
5.28
4.91
4.4
3.79
2.99
2.16
1.41
0.83
0.4
0.29
0.24
0.24
0.24
0.24
0.08
-0.05
-0.32
-0.64
-0.88
-1.2
-1.52
-1.92
-2.29
-2.64
-2.96
-3.28
-3.6
-3.92
-4.19
-4.4
-4.56
-4.4
-3.52
-2.03
0.16
2.48
4.43
5.81
6.8
7.04
7.2
7.2
6.99
6.72
6.4
5.97
5.44
4.8
4.03
3.28
2.64
2.24
1.92
1.76
1.68
1.63
1.6
1.47
1.2
0.88
0.53
0.11
-0.24
-0.64
-0.96
-1.2
-1.44
-1.76
-2
-2.24
-2.51
-2.72
-2.91
-2.96
-3.04
-2.64
-1.57
0.16
2.24
4.37
6.32
7.25
7.89
8.16
8.03
7.76
7.52
7.17
6.75
6.32
5.76
5.12
4.4
3.57
2.88
2.32
1.87
1.65
1.52
1.39
1.12
0.8
0.45
0.03
-0.48
-1.04
-1.68
-2.24
-2.77
-3.31
-3.84
-4.4
-4.99
-5.52
-5.92
-6.29
-6.64
-6.91
-7.01
-6.72
-5.71
-4
-1.92
-0.13
1.31
2.24
2.61
2.72
2.64
2.43
2.16
1.84
1.41
0.88
0.24
-0.51
-1.31
-2
-2.53
-2.75
-2.8
-2.77
-2.67
-2.48
-2.51
-2.61
-2.8
-3.04
-3.36
-3.6
-3.92
-4.24
-4.56
-4.88
-5.15
-5.36
-5.71
-6.13
-6.48
-6.77
-7.04
-7.28
-7.25
-6.51
-5.2
-2.96
-0.72
1.28
2.72
3.63
3.92
4.08
3.97
3.76
3.52
3.15
2.72
2.05
1.25
0.4
-0.4
-0.99
-1.28
-1.44
-1.44
-1.28
-1.17
-1.12
-1.04
-1.09
-1.31
-1.44
-1.68
-2
-2.24
-2.56
-2.88
-3.2
-3.63
-4.05
-4.4
-4.77
-5.04
-5.36
-5.57
-5.63
-5.28
-3.81
-1.79
0.48
2.61
4.32
5.28
5.81
5.97
6
5.79
5.57
5.36
4.93
4.4
3.68
2.83
2.03
1.36
0.77
0.45
0.24
0.24
0.24
0.24
0.19
-0.03
-0.24
-0.56
-0.88
-1.2
-1.55
-1.97
-2.32
-2.72
-3.09
-3.44
-3.84
-4.16
-4.48
-4.8
-5.07
-5.28
-4.88
-3.92
-2.24
0
2.19
3.76
4.91
5.55
5.84
5.89
5.79
5.6
5.47
5.2
4.8
4.24
3.55
2.8
2.16
1.57
1.04
0.93
0.88
0.88
0.91
0.91
0.8
0.59
0.32
0
-0.32
-0.64
-0.96
-1.28
-1.6
-1.92
-2.21
-2.48
-2.8
-3.09
-3.31
-3.52
-3.6
-3.39
-2.64
-1.01
1.12
3.36
5.28
6.67
7.6
7.92
8.03
7.92
7.71
7.49
7.2
6.85
6.37
5.76
5.09
4.4
3.68
3.25
2.93
2.72
2.61
2.51
2.48
2.35
2.08
1.76
1.41
0.99
0.56
0.13
-0.29
-0.64
-1.07
-1.44
-1.84
-2.13
-2.35
-2.56
-2.77
-2.93
-3.04
-2.67
-1.71
-0.08
1.97
3.95
5.6
6.61
7.09
7.28
7.04
6.72
6.4
6
5.63
5.2
4.72
4.03
3.28
2.61
1.92
1.36
0.93
0.56
0.4
0.19
-0.03
-0.4
-0.83
-1.25
-1.76
-2.37
-2.91
-3.52
-4.13
-4.67
-5.2
-5.73
-6.27
-6.72
-7.12
-7.49
-7.84
-8.11
-8.27
-7.92
-6.88
-5.12
-3.04
-1.04
0.45
1.52
1.92
2.08
2
1.81
1.65
1.36
0.93
0.45
-0.24
-0.99
-1.73
-2.4
-2.96
-3.23
-3.28
-3.2
-3.15
-3.12
-3.04
-3.09
-3.2
-3.44
-3.71
-4
-4.29
-4.51
-4.8
-5.12
-5.39
-5.68
-5.92
-6.24
-6.48
-6.69
-6.91
-6.96
-6.69
-5.68
-4
-1.73
0.51
2.48
3.65
4.4
4.72
4.77
4.67
4.48
4.16
3.79
3.36
2.67
1.81
1.04
0.27
-0.32
-0.56
-0.72
-0.67
-0.48
-0.35
-0.24
-0.24
-0.37
-0.59
-0.88
-1.31
-1.68
-2.08
-2.51
-2.88
-3.28
-3.68
-4.05
-4.4
-4.8
-5.17
-5.44
-5.6
-5.55
-5.04
-3.44
-1.31
1.04
3.07
4.56
5.52
6
6.05
5.92
5.79
5.52
5.2
4.77
4.24
3.52
2.67
1.81
1.2
0.72
0.4
0.16
0.11
0.16
0.16
0.03
-0.19
-0.48
-0.77
-1.04
-1.44
-1.79
-2.16
-2.56
-2.88
-3.25
-3.6
-4
-4.32
-4.64
-4.93
-5.15
-5.2
-4.77
-3.55
-1.68
0.53
2.61
4.24
5.33
5.81
6
6.08
6.03
5.84
5.71
5.39
4.96
4.37
3.63
2.88
2.16
1.57
1.12
0.91
0.8
0.8
0.83
0.88
0.72
0.51
0.29
0
-0.35
-0.72
-1.04
-1.28
-1.65
-2
-2.29
-2.56
-2.8
-3.09
-3.31
-3.52
-3.57
-3.15
-2.16
-0.21
1.97
4.16
6
7.17
7.76
8
8
7.84
7.63
7.41
7.12
6.67
6.08
5.44
4.77
4.03
3.36
2.85
2.59
2.4
2.4
2.4
2.32
2.11
1.89
1.52
1.09
0.67
0.16
-0.29
-0.77
-1.28
-1.71
-2.13
-2.48
-2.8
-3.12
-3.44
-3.68
-3.89
-4
-3.47
-2.4
-0.64
1.44
3.31
4.72
5.55
5.87
5.92
5.68
5.36
5.04
4.69
4.27
3.76
3.17
2.37
1.52
0.77
0.13
-0.48
-0.88
-1.15
-1.36
-1.57
-1.79
-2.08
-2.4
-2.77
-3.2
-3.55
-3.97
-4.48
-4.93
-5.41
-5.84
-6.27
-6.69
-7.12
-7.55
-7.97
-8.32
-8.53
-8.64
-8.16
-7.07
-5.15
-2.88
-0.88
0.72
1.84
2.16
2.32
2.24
2.03
1.81
1.52
1.07
0.48
-0.24
-1.09
-1.84
-2.48
-2.85
-2.96
-3.04
-2.85
-2.75
-2.72
-2.67
-2.83
-3.04
-3.25
-3.52
-3.84
-4.16
-4.48
-4.72
-4.96
-5.28
-5.52
-5.76
-5.97
-6.16
-6.37
-6.53
-6.64
-6.27
-5.31
-3.68
-1.49
0.75
2.8
3.95
4.69
5.04
5.07
5.07
4.88
4.67
4.35
3.92
3.25
2.45
1.68
0.88
0.24
-0.24
-0.56
-0.56
-0.4
-0.32
-0.27
-0.32
-0.35
-0.56
-0.88
-1.28
-1.65
-2
-2.35
-2.77
-3.2
-3.55
-3.97
-4.32
-4.72
-5.04
-5.36
-5.6
-5.6
-5.12
-3.79
-1.76
0.64
2.72
4.32
5.28
5.73
5.95
5.92
5.79
5.57
5.36
5.01
4.53
3.92
3.09
2.35
1.68
1.09
0.72
0.56
0.48
0.48
0.48
0.37
0.21
-0.08
-0.4
-0.72
-1.04
-1.39
-1.76
-2.16
-2.51
-2.88
-3.2
-3.6
-3.97
-4.32
-4.61
-4.83
-4.96
-4.77
-3.92
-2.4
-0.19
1.95
3.76
5.09
5.89
6.16
6.32
6.27
6.24
6.03
5.81
5.44
4.96
4.32
3.6
2.88
2.24
1.68
1.31
1.15
0.96
0.96
0.96
0.96
0.83
0.56
0.32
0.05
-0.32
-0.64
-0.99
-1.31
-1.6
-1.92
-2.24
-2.56
-2.85
-3.07
-3.28
-3.44
-3.33
-2.88
-1.44
0.43
2.64
4.67
6.27
7.12
7.65
7.81
7.68
7.44
7.23
7.04
6.69
6.27
5.68
5.04
4.4
3.76
3.23
2.75
2.4
2.29
2.19
2.08
1.92
1.6
1.28
0.85
0.37
-0.08
-0.64
-1.23
-1.76
-2.29
-2.83
-3.36
-3.76
-4.08
-4.48
-4.83
-5.15
-5.44
-5.36
-4.72
-3.44
-1.47
0.67
2.4
3.65
4.35
4.64
4.67
4.45
4.24
4
3.73
3.36
2.83
2.24
1.44
0.69
0.05
-0.56
-0.69
-0.8
-0.8
-0.77
-0.83
-1.04
-1.28
-1.6
-2
-2.43
-2.85
-3.28
-3.71
-4.13
-4.56
-4.99
-5.36
-5.76
-6.11
-6.53
-6.96
-7.17
-7.28
-7.2
-6.43
-4.83
-2.72
-0.53
1.28
2.64
3.28
3.6
3.68
3.65
3.49
3.2
2.88
2.51
1.92
1.15
0.35
-0.48
-1.01
-1.33
-1.44
-1.44
-1.33
-1.2
-1.12
-1.17
-1.28
-1.49
-1.71
-2
-2.24
-2.56
-2.8
-3.09
-3.41
-3.84
-4.19
-4.56
-4.96
-5.2
-5.52
-5.76
-5.79
-5.36
-3.92
-1.97
0.32
2.48
3.97
4.99
5.52
5.55
5.6
5.44
5.23
5.01
4.64
4.08
3.39
2.56
1.81
1.12
0.64
0.29
0.29
0.32
0.32
0.32
0.24
0
-0.27
-0.56
-0.96
-1.33
-1.76
-2.16
-2.53
-2.96
-3.31
-3.68
-4.08
-4.4
-4.72
-5.04
-5.33
-5.55
-5.28
-4.32
-2.56
-0.4
1.73
3.49
4.72
5.31
5.57
5.68
5.57
5.41
5.2
4.93
4.51
4
3.33
2.53
1.84
1.25
0.83
0.64
0.56
0.56
0.56
0.45
0.35
0.16
-0.08
-0.4
-0.72
-1.12
-1.44
-1.76
-2.11
-2.48
-2.88
-3.12
-3.44
-3.76
-4.05
-4.27
-4.32
-4.21
-3.47
-1.92
0.19
2.43
4.48
5.87
6.77
7.12
7.28
7.23
7.04
6.83
6.56
6.24
5.81
5.28
4.56
3.76
3.12
2.64
2.24
1.97
1.84
1.73
1.63
1.52
1.28
0.91
0.48
0.05
-0.32
-0.64
-0.96
-1.28
-1.6
-1.84
-2.11
-2.4
-2.61
-2.83
-2.96
-3.12
-3.12
-2.88
-1.76
-0.05
2.08
4.13
5.84
6.96
7.63
7.79
7.76
7.55
7.33
7.04
6.8
6.43
5.92
5.25
4.51
3.84
3.2
2.56
2.08
1.76
1.55
1.36
1.12
0.8
0.4
-0.03
-0.51
-1.12
-1.65
-2.24
-2.88
-3.41
-3.95
-4.48
-4.93
-5.41
-5.76
-6.11
-6.48
-6.8
-6.91
-6.69
-5.92
-4.27
-2.29
-0.32
1.39
2.4
2.96
3.2
3.15
2.96
2.83
2.61
2.32
1.89
1.36
0.72
-0.03
-0.72
-1.36
-1.76
-1.92
-2
-1.97
-1.92
-1.84
-1.95
-2.05
-2.24
-2.53
-2.8
-3.12
-3.36
-3.68
-4
-4.29
-4.56
-4.88
-5.2
-5.52
-5.92
-6.24
-6.45
-6.56
-6.11
-5.04
-3.28
-1.15
0.88
2.56
3.65
4.24
4.56
4.56
4.45
4.24
4
3.63
3.12
2.53
1.79
0.96
0.21
-0.27
-0.48
-0.48
-0.43
-0.32
-0.24
-0.24
-0.32
-0.45
-0.72
-1.12
-1.52
-1.89
-2.32
-2.75
-3.17
-3.52
-3.87
-4.24
-4.64
-4.88
-5.15
-5.44
-5.63
-5.57
-4.8
-3.39
-1.2
1.04
2.99
4.37
5.36
5.6
5.76
5.68
5.55
5.33
5.12
4.75
4.16
3.52
2.75
2
1.28
0.88
0.61
0.48
0.4
0.4
0.4
0.27
0
-0.32
-0.56
-0.93
-1.36
-1.79
-2.21
-2.64
-2.99
-3.41
-3.84
-4.19
-4.56
-4.88
-5.17
-5.39
-5.52
-5.2
-4.08
-2.24
-0.05
2.08
4
5.04
5.73
6
6
5.95
5.84
5.71
5.44
5.04
4.48
3.84
3.12
2.4
1.87
1.44
1.17
1.01
0.96
0.96
0.91
0.72
0.51
0.24
-0.08
-0.4
-0.77
-1.12
-1.44
-1.76
-2.16
-2.48
-2.75
-3.04
-3.28
-3.55
-3.76
-3.92
-3.81
-3.12
-1.68
0.4
2.72
4.59
6.08
7.04
7.41
7.57
7.44
7.23
7.07
6.88
6.56
6.19
5.76
5.12
4.43
3.76
3.17
2.75
2.48
2.29
2.13
1.92
1.81
1.6
1.28
0.85
0.43
0
-0.43
-0.91
-1.36
-1.71
-2.03
-2.24
-2.56
-2.83
-3.04
-3.33
-3.55
-3.6
-3.41
-2.61
-1.2
0.91
2.99
4.8
5.97
6.72
6.88
6.91
6.69
6.48
6.13
5.81
5.44
4.96
4.32
3.6
2.8
2.16
1.52
0.93
0.56
0.24
0.11
-0.16
-0.48
-0.91
-1.33
-1.84
-2.37
-2.91
-3.44
-3.97
-4.45
-4.8
-5.23
-5.65
-6
-6.4
-6.72
-7.12
-7.41
-7.57
-7.52
-6.61
-5.17
-3.28
-1.23
0.53
1.6
2.27
2.59
2.64
2.59
2.43
2.24
1.97
1.55
1.04
0.37
-0.37
-1.12
-1.73
-2.11
-2.32
-2.32
-2.32
-2.24
-2.24
-2.29
-2.4
-2.61
-2.88
-3.2
-3.52
-3.79
-4.08
-4.4
-4.67
-4.96
-5.25
-5.52
-5.76
-5.97
-6.19
-6.48
-6.48
-6.11
-4.96
-3.12
-0.83
1.2
2.88
3.95
4.56
4.77
4.83
4.72
4.51
4.29
4
3.52
2.88
2.08
1.31
0.56
-0.08
-0.21
-0.32
-0.24
-0.21
-0.11
-0.08
-0.19
-0.35
-0.64
-0.99
-1.41
-1.76
-2.08
-2.45
-2.88
-3.31
-3.68
-4.08
-4.51
-4.88
-5.2
-5.44
-5.71
-5.76
-5.17
-3.89
-1.84
0.48
2.56
4.24
5.17
5.65
5.84
5.81
5.71
5.52
5.31
4.99
4.48
3.81
3.01
2.16
1.49
0.91
0.64
0.45
0.35
0.32
0.21
0.05
-0.16
-0.48
-0.8
-1.12
-1.55
-1.97
-2.4
-2.83
-3.25
-3.68
-4.03
-4.4
-4.8
-5.12
-5.44
-5.68
-5.87
-5.87
-5.2
-3.81
-1.73
0.56
2.56
4.05
5.04
5.41
5.52
5.6
5.52
5.47
5.28
5.01
4.59
4
3.33
2.59
1.92
1.55
1.33
1.2
1.12
1.07
1.04
0.91
0.69
0.48
0.08
-0.29
-0.64
-1.04
-1.41
-1.84
-2.19
-2.56
-2.88
-3.2
-3.52
-3.84
-4.05
-4.32
-4.4
-4.13
-3.12
-1.44
0.85
3.04
4.88
6.05
6.75
7.04
7.2
7.15
6.96
6.75
6.48
6.16
5.71
5.07
4.32
3.6
2.96
2.48
2.08
1.81
1.68
1.55
1.33
1.12
0.77
0.35
-0.08
-0.56
-0.93
-1.36
-1.79
-2.21
-2.64
-2.96
-3.33
-3.68
-4.08
-4.4
-4.64
-4.93
-5.09
-4.96
-3.92
-2.21
-0.08
1.97
3.68
4.8
5.49
5.71
5.68
5.55
5.33
5.04
4.8
4.43
4
3.33
2.59
1.84
1.12
0.53
0.16
-0.05
-0.16
-0.24
-0.45
-0.67
-0.96
-1.31
-1.73
-2.16
-2.59
-3.07
-3.52
-3.95
-4.37
-4.8
-5.23
-5.65
-6
-6.32
-6.64
-6.96
-7.09
-6.93
-6.24
-4.56
-2.53
-0.4
1.44
2.61
3.36
3.63
3.73
3.68
3.57
3.41
3.2
2.85
2.32
1.68
0.93
0.24
-0.4
-0.69
-0.8
-0.88
-0.77
-0.72
-0.72
-0.83
-0.93
-1.12
-1.41
-1.68
-2.08
-2.32
-2.64
-3.04
-3.44
-3.81
-4.24
-4.59
-4.96
-5.36
-5.68
-5.95
-6.16
-5.81
-4.85
-3.12
-0.91
1.17
2.96
4.13
4.77
5.12
5.12
5.07
4.96
4.83
4.56
4.16
3.6
2.91
2.16
1.41
0.88
0.56
0.56
0.56
0.64
0.69
0.59
0.4
0.08
-0.24
-0.64
-1.07
-1.49
-1.92
-2.32
-2.69
-3.12
-3.47
-3.89
-4.32
-4.64
-4.91
-5.2
-5.49
-5.6
-5.36
-4.37
-2.56
-0.32
1.89
3.71
5.04
5.55
5.81
5.92
5.89
5.73
5.6
5.36
4.99
4.48
3.73
3.04
2.32
1.71
1.23
1.04
0.88
0.83
0.8
0.69
0.48
0.16
-0.08
-0.45
-0.88
-1.28
-1.65
-2
-2.35
-2.72
-3.12
-3.47
-3.84
-4.16
-4.48
-4.75
-4.96
-5.07
-4.75
-3.68
-1.87
0.32
2.64
4.32
5.55
6.24
6.59
6.69
6.64
6.51
6.35
6.16
5.73
5.25
4.72
3.97
3.28
2.72
2.16
1.84
1.6
1.49
1.33
1.12
1.01
0.8
0.48
0.16
-0.21
-0.56
-0.91
-1.28
-1.68
-2
-2.32
-2.64
-2.96
-3.23
-3.52
-3.79
-3.95
-4.08
-3.89
-3.04
-1.6
0.56
2.75
4.64
6
6.85
7.12
7.28
7.23
7.04
6.8
6.53
6.32
5.89
5.36
4.72
4
3.36
2.72
2.29
1.97
1.68
1.57
1.41
1.12
0.69
0.27
-0.24
-0.77
-1.31
-1.76
-2.19
-2.61
-3.04
-3.47
-3.89
-4.24
-4.64
-4.96
-5.36
-5.68
-5.89
-6.08
-5.6
-4.53
-2.8
-0.72
1.25
2.64
3.6
4.08
4.16
4.19
4.03
3.84
3.63
3.36
2.96
2.4
1.76
0.96
0.32
-0.21
-0.64
-0.75
-0.8
-0.72
-0.72
-0.72
-0.8
-1.01
-1.33
-1.76
-2.19
-2.61
-3.12
-3.55
-3.97
-4.48
-4.88
-5.25
-5.68
-6.03
-6.4
-6.8
-7.01
-7.17
-7.04
-6.19
-4.59
-2.48
-0.27
1.65
3.04
3.84
4.16
4.24
4.21
4.05
3.84
3.52
3.15
2.56
1.79
0.99
0.24
-0.29
-0.67
-0.8
-0.8
-0.69
-0.64
-0.56
-0.56
-0.72
-0.93
-1.15
-1.36
-1.68
-2
-2.4
-2.91
-3.28
-3.68
-4.11
-4.48
-4.88
-5.2
-5.52
-5.84
-6
-5.89
-4.96
-3.28
-1.04
1.28
3.17
4.51
5.28
5.57
5.68
5.68
5.49
5.33
5.04
4.61
4.03
3.28
2.53
1.79
1.12
0.67
0.51
0.48
0.56
0.56
0.48
0.27
0.05
-0.24
-0.59
-1.01
-1.36
-1.79
-2.21
-2.64
-2.99
-3.36
-3.76
-4.08
-4.45
-4.8
-5.09
-5.36
-5.44
-5.28
-4.32
-2.64
-0.37
1.81
3.68
4.85
5.55
5.84
5.92
5.87
5.68
5.55
5.28
4.96
4.43
3.84
3.12
2.4
1.76
1.44
1.17
1.07
1.04
1.04
0.99
0.88
0.64
0.32
0
-0.32
-0.64
-1.04
-1.47
-1.84
-2.24
-2.48
-2.85
-3.2
-3.52
-3.84
-4
-4.19
-4.24
-3.92
-2.75
-0.88
1.36
3.52
5.28
6.48
7.17
7.44
7.52
7.39
7.17
6.96
6.72
6.35
5.92
5.33
4.59
3.92
3.28
2.75
2.4
2.19
2.08
2
1.79
1.57
1.28
0.85
0.43
0
-0.43
-0.8
-1.2
-1.52
-1.89
-2.24
-2.56
-2.88
-3.12
-3.33
-3.55
-3.76
-3.84
-3.52
-2.64
-0.85
1.28
3.36
5.17
6.29
6.88
7.12
7.07
6.88
6.64
6.32
6
5.65
5.12
4.48
3.79
2.99
2.24
1.6
1.12
0.8
0.61
0.45
0.16
-0.16
-0.53
-0.96
-1.49
-2.08
-2.72
-3.15
-3.57
-4.08
-4.51
-4.93
-5.28
-5.71
-6.08
-6.48
-6.8
-7.07
-7.28
-7.15
-6.45
-4.96
-2.99
-0.91
0.88
2.05
2.75
3.2
3.2
3.09
2.96
2.75
2.48
2.08
1.52
0.88
0.08
-0.59
-1.23
-1.68
-1.79
-1.84
-1.84
-1.76
-1.76
-1.76
-1.89
-2.16
-2.48
-2.72
-3.04
-3.36
-3.68
-4
-4.24
-4.56
-4.88
-5.2
-5.55
-5.92
-6.24
-6.53
-6.64
-6.48
-5.6
-3.89
-1.68
0.45
2.27
3.68
4.21
4.59
4.72
4.67
4.45
4.24
3.89
3.41
2.8
2.03
1.28
0.56
0
-0.27
-0.4
-0.29
-0.19
-0.16
-0.08
-0.08
-0.24
-0.48
-0.85
-1.2
-1.63
-2.05
-2.4
-2.83
-3.25
-3.68
-4.11
-4.48
-4.8
-5.12
-5.44
-5.68
-5.73
-5.15
-3.76
-1.65
0.64
2.88
4.32
5.33
5.84
6.03
6.03
5.92
5.79
5.52
5.12
4.64
3.95
3.2
2.37
1.68
1.12
0.69
0.59
0.56
0.48
0.48
0.32
0.19
-0.13
-0.48
-0.83
-1.25
-1.6
-2.03
-2.45
-2.88
-3.31
-3.68
-4
-4.4
-4.72
-5.04
-5.31
-5.47
-5.36
-4.48
-2.88
-0.72
1.49
3.41
4.8
5.57
6.05
6.16
6.16
6.11
6
5.76
5.39
4.96
4.32
3.63
2.96
2.27
1.79
1.44
1.28
1.23
1.28
1.25
1.09
0.88
0.64
0.32
0.08
-0.27
-0.64
-1.04
-1.39
-1.76
-2.08
-2.48
-2.8
-3.12
-3.41
-3.63
-3.84
-3.89
-3.47
-2.48
-0.53
1.65
3.76
5.44
6.61
7.2
7.44
7.44
7.36
7.15
6.93
6.72
6.29
5.81
5.2
4.45
3.71
3.04
2.53
2.21
2
1.89
1.84
1.68
1.44
1.07
0.64
0.21
-0.27
-0.72
-1.15
-1.52
-1.84
-2.24
-2.56
-2.88
-3.25
-3.52
-3.84
-4.13
-4.29
-4.48
-4
-2.93
-1.12
0.96
2.93
4.32
5.25
5.68
5.76
5.71
5.49
5.2
4.96
4.64
4.24
3.68
3.04
2.24
1.52
0.93
0.48
0.16
-0.11
-0.24
-0.48
-0.8
-1.04
-1.39
-1.81
-2.24
-2.69
-3.17
-3.68
-4.13
-4.61
-5.04
-5.47
-5.84
-6.24
-6.67
-7.04
-7.36
-7.57
-7.68
-7.28
-6.13
-4.32
-2.16
-0.13
1.41
2.48
3.07
3.28
3.2
3.09
2.93
2.72
2.37
1.95
1.28
0.51
-0.29
-1.12
-1.44
-1.65
-1.76
-1.73
-1.63
-1.6
-1.55
-1.65
-1.84
-2.08
-2.35
-2.64
-2.96
-3.28
-3.6
-3.89
-4.16
-4.48
-4.77
-5.04
-5.44
-5.68
-5.95
-6.16
-6.05
-5.41
-3.84
-1.81
0.43
2.48
3.81
4.67
5.12
5.15
5.2
5.04
4.83
4.56
4.16
3.6
2.85
2
1.33
0.64
0.24
0.13
0.13
0.24
0.4
0.45
0.32
0
-0.27
-0.64
-1.04
-1.41
-1.84
-2.27
-2.69
-3.12
-3.55
-3.92
-4.32
-4.64
-4.96
-5.28
-5.55
-5.65
-5.28
-4.13
-2.21
0.16
2.29
4
5.2
5.79
6.05
6.16
5.97
5.87
5.68
5.33
4.91
4.32
3.49
2.75
2
1.41
0.99
0.72
0.56
0.56
0.56
0.43
0.21
0
-0.32
-0.69
-1.04
-1.44
-1.76
-2.16
-2.51
-2.88
-3.2
-3.52
-3.84
-4.16
-4.37
-4.64
-4.72
-4.59
-3.79
-2.32
-0.21
1.97
3.92
5.23
6.08
6.48
6.64
6.59
6.48
6.35
6.08
5.76
5.31
4.72
4
3.28
2.64
2.16
1.79
1.57
1.44
1.31
1.15
0.96
0.75
0.53
0.24
-0.05
-0.32
-0.72
-1.04
-1.36
-1.68
-1.92
-2.24
-2.56
-2.85
-3.12
-3.28
-3.47
-3.52
-3.2
-1.95
-0.13
2.08
4.16
5.92
7.12
7.81
8.03
8.08
7.87
7.65
7.36
7.09
6.67
6.24
5.6
4.91
4.24
3.55
3.07
2.64
2.43
2.27
2.08
1.87
1.6
1.2
0.69
0.21
-0.32
-0.88
-1.52
-2.16
-2.69
-3.23
-3.76
-4.19
-4.61
-4.96
-5.31
-5.68
-6
-6.05
-5.57
-4.56
-2.61
-0.53
1.36
2.88
3.73
4.16
4.32
4.21
3.92
3.79
3.52
3.2
2.75
2.16
1.52
0.75
0
-0.56
-0.85
-0.96
-1.04
-1.01
-0.96
-0.88
-1.09
-1.36
-1.76
-2.19
-2.67
-3.2
-3.63
-4.05
-4.56
-4.99
-5.41
-5.76
-6.19
-6.56
-6.96
-7.28
-7.49
-7.68
-7.15
-6.08
-4.24
-1.95
0.08
1.68
2.77
3.36
3.6
3.57
3.47
3.28
3.04
2.67
2.16
1.55
0.75
-0.08
-0.75
-1.23
-1.52
-1.52
-1.47
-1.36
-1.28
-1.28
-1.28
-1.41
-1.63
-1.92
-2.16
-2.53
-2.88
-3.17
-3.44
-3.68
-4.11
-4.48
-4.88
-5.23
-5.55
-5.84
-6.03
-5.97
-5.2
-3.71
-1.52
0.8
2.75
4.13
5.2
5.44
5.6
5.52
5.39
5.17
4.96
4.51
3.92
3.2
2.35
1.6
0.96
0.56
0.4
0.4
0.56
0.56
0.48
0.35
0.13
-0.16
-0.51
-0.93
-1.28
-1.71
-2.13
-2.48
-2.83
-3.2
-3.6
-4.03
-4.35
-4.64
-4.96
-5.23
-5.36
-5.07
-4.05
-2.24
-0.05
2.13
4.08
5.04
5.73
6
6
5.89
5.76
5.55
5.23
4.8
4.21
3.47
2.72
2
1.36
0.88
0.64
0.64
0.64
0.64
0.59
0.48
0.27
-0.05
-0.4
-0.72
-1.09
-1.44
-1.79
-2.16
-2.56
-2.91
-3.28
-3.6
-3.92
-4.19
-4.4
-4.64
-4.53
-4
-2.59
-0.56
1.84
3.84
5.44
6.48
7.01
7.17
7.2
7.07
6.91
6.72
6.4
5.97
5.44
4.77
4.03
3.36
2.8
2.48
2.24
2.13
2.03
1.92
1.79
1.52
1.2
0.77
0.35
-0.08
-0.51
-0.88
-1.2
-1.55
-1.87
-2.16
-2.4
-2.67
-2.88
-3.15
-3.31
-3.36
-3.17
-2.43
-1.12
1.01
3.15
5.04
6.4
7.25
7.52
7.65
7.49
7.2
6.96
6.64
6.24
5.79
5.2
4.48
3.76
3.07
2.4
1.97
1.65
1.36
1.23
1.01
0.72
0.29
-0.13
-0.64
-1.17
-1.71
-2.32
-2.88
-3.47
-4.08
-4.53
-5.01
-5.36
-5.76
-6.08
-6.4
-6.72
-6.93
-7.12
-6.53
-5.41
-3.68
-1.6
0.32
1.6
2.53
2.96
3.04
2.99
2.83
2.64
2.43
2.11
1.68
1.04
0.4
-0.32
-0.96
-1.55
-2
-2.03
-2.08
-2
-1.97
-1.97
-2.08
-2.21
-2.48
-2.8
-3.12
-3.39
-3.68
-4.08
-4.4
-4.64
-4.93
-5.2
-5.44
-5.79
-6.16
-6.56
-6.77
-6.83
-6.4
-5.23
-3.31
-1.12
1.01
2.61
3.68
4.19
4.4
4.4
4.27
4.05
3.84
3.49
3.01
2.32
1.55
0.75
0
-0.32
-0.48
-0.56
-0.45
-0.29
-0.24
-0.19
-0.29
-0.48
-0.69
-1.01
-1.44
-1.87
-2.29
-2.72
-3.12
-3.49
-3.92
-4.27
-4.64
-5.04
-5.28
-5.6
-5.84
-5.76
-5.23
-3.68
-1.63
0.72
2.88
4.32
5.23
5.68
5.71
5.76
5.6
5.39
5.12
4.72
4.24
3.49
2.64
1.97
1.28
0.8
0.53
0.53
0.56
0.48
0.48
0.32
0.08
-0.19
-0.48
-0.91
-1.33
-1.68
-2.11
-2.48
-2.88
-3.23
-3.65
-4.08
-4.32
-4.64
-4.96
-5.17
-5.39
-5.2
-4.35
-2.69
-0.56
1.65
3.47
4.8
5.57
5.95
6.08
5.97
5.87
5.68
5.47
5.15
4.64
4
3.31
2.64
2.03
1.49
1.2
1.04
1.04
1.04
1.01
0.91
0.72
0.4
0.08
-0.24
-0.64
-0.96
-1.36
-1.71
-2.08
-2.48
-2.72
-3.04
-3.36
-3.65
-3.92
-4.08
-4.11
-3.68
-2.56
-0.59
1.6
3.84
5.47
6.69
7.36
7.68
7.68
7.6
7.47
7.25
6.96
6.53
6.05
5.44
4.72
4.03
3.44
2.85
2.53
2.4
2.29
2.19
2.08
1.84
1.52
1.12
0.69
0.27
-0.16
-0.67
-1.09
-1.52
-1.76
-2.13
-2.48
-2.8
-3.12
-3.36
-3.57
-3.79
-3.92
-3.65
-2.75
-1.12
0.99
2.96
4.56
5.71
6.13
6.24
6.19
5.92
5.6
5.36
4.99
4.56
4.08
3.44
2.72
2
1.36
0.88
0.45
0.13
-0.08
-0.29
-0.51
-0.8
-1.23
-1.71
-2.32
-2.83
-3.25
-3.76
-4.21
-4.69
-5.12
-5.55
-5.97
-6.4
-6.75
-7.17
-7.6
-7.84
-8
-8
-7.04
-5.44
-3.36
-1.15
0.56
1.76
2.51
2.77
2.8
2.69
2.53
2.32
1.97
1.55
0.96
0.27
-0.53
-1.36
-1.79
-2.05
-2.24
-2.21
-2.16
-2.08
-2
-2.05
-2.16
-2.37
-2.59
-2.88
-3.12
-3.49
-3.84
-4.16
-4.48
-4.72
-4.96
-5.28
-5.6
-5.84
-6.11
-6.32
-6.51
-6.35
-5.36
-3.6
-1.36
0.8
2.61
3.84
4.64
4.77
4.83
4.72
4.59
4.32
4
3.52
2.88
2.16
1.39
0.64
0.08
-0.13
-0.24
-0.24
-0.05
0.05
0.08
0.05
-0.16
-0.48
-0.8
-1.17
-1.6
-2
-2.37
-2.8
-3.15
-3.57
-4
-4.35
-4.72
-5.04
-5.44
-5.71
-5.84
-5.41
-4.19
-2.24
0.11
2.24
4.16
5.07
5.6
5.84
5.84
5.73
5.52
5.31
4.99
4.56
3.89
3.09
2.32
1.55
1.07
0.8
0.56
0.51
0.48
0.48
0.37
0.16
-0.08
-0.45
-0.8
-1.23
-1.65
-2.08
-2.43
-2.85
-3.28
-3.63
-4
-4.32
-4.72
-5.04
-5.28
-5.52
-5.52
-5.04
-3.71
-1.63
0.8
2.91
4.56
5.68
6.21
6.43
6.48
6.37
6.27
6.08
5.76
5.33
4.8
3.97
3.23
2.56
1.97
1.6
1.36
1.17
1.07
1.12
1.09
0.93
0.72
0.48
0.16
-0.16
-0.51
-0.88
-1.28
-1.6
-1.92
-2.24
-2.56
-2.88
-3.12
-3.41
-3.63
-3.84
-3.73
-2.99
-1.76
0.4
2.64
4.64
6.19
7.15
7.52
7.68
7.63
7.44
7.2
6.93
6.64
6.21
5.68
5.04
4.32
3.63
3.04
2.64
2.43
2.24
2.21
2.11
1.92
1.65
1.23
0.8
0.35
-0.19
-0.64
-1.2
-1.68
-2.08
-2.48
-2.85
-3.28
-3.68
-4
-4.4
-4.72
-4.93
-5.12
-4.51
-3.28
-1.44
0.67
2.64
3.92
4.83
5.15
5.2
5.12
4.85
4.64
4.32
3.95
3.52
2.88
2.24
1.52
0.88
0.29
-0.16
-0.29
-0.4
-0.48
-0.59
-0.75
-0.96
-1.31
-1.73
-2.16
-2.59
-3.01
-3.52
-3.95
-4.37
-4.8
-5.23
-5.65
-6.08
-6.51
-6.88
-7.2
-7.41
-7.41
-6.8
-5.39
-3.41
-1.2
0.72
2.11
3.04
3.33
3.44
3.36
3.23
3.01
2.72
2.27
1.73
0.96
0.19
-0.56
-1.28
-1.49
-1.6
-1.6
-1.49
-1.39
-1.36
-1.31
-1.41
-1.6
-1.84
-2.11
-2.32
-2.64
-2.96
-3.28
-3.57
-3.84
-4.24
-4.67
-5.04
-5.44
-5.76
-6.03
-6.08
-5.57
-4.29
-2.24
0
2.08
3.76
4.69
5.17
5.36
5.33
5.23
5.04
4.72
4.35
3.84
3.15
2.35
1.52
0.91
0.53
0.32
0.29
0.35
0.4
0.4
0.35
0.16
-0.16
-0.43
-0.8
-1.2
-1.57
-2
-2.43
-2.85
-3.28
-3.71
-4.08
-4.48
-4.8
-5.12
-5.44
-5.55
-5.23
-4
-2.13
0.21
2.48
4.13
5.2
5.84
6.03
6.08
6
5.79
5.57
5.28
4.8
4.11
3.36
2.61
1.92
1.36
0.99
0.72
0.64
0.64
0.64
0.64
0.4
0.13
-0.08
-0.4
-0.77
-1.12
-1.52
-1.84
-2.24
-2.59
-2.96
-3.36
-3.6
-3.92
-4.24
-4.51
-4.67
-4.4
-3.44
-1.68
0.56
2.77
4.53
5.84
6.45
6.83
6.96
6.77
6.67
6.48
6.16
5.79
5.28
4.64
3.95
3.2
2.59
2.05
1.76
1.57
1.47
1.44
1.23
1.01
0.72
0.48
0.11
-0.24
-0.64
-0.96
-1.36
-1.68
-2
-2.4
-2.72
-3.04
-3.36
-3.57
-3.84
-4
-4.03
-3.49
-2.32
-0.32
1.92
4.08
5.68
6.75
7.28
7.49
7.39
7.2
6.99
6.72
6.4
5.97
5.44
4.8
4.08
3.39
2.8
2.29
1.97
1.76
1.63
1.47
1.28
0.93
0.51
0.08
-0.45
-0.99
-1.52
-2.03
-2.51
-2.96
-3.36
-3.73
-4.16
-4.56
-4.93
-5.28
-5.6
-5.87
-6
-5.49
-4.27
-2.4
-0.29
1.63
3.12
4.08
4.4
4.48
4.43
4.21
4
3.76
3.39
2.96
2.29
1.55
0.8
0.11
-0.32
-0.56
-0.67
-0.67
-0.56
-0.53
-0.48
-0.64
-0.96
-1.28
-1.68
-2.11
-2.59
-3.04
-3.39
-3.81
-4.24
-4.67
-5.09
-5.44
-5.79
-6.16
-6.48
-6.69
-6.64
-6.08
-4.59
-2.56
-0.32
1.63
2.96
3.84
4.21
4.37
4.32
4.19
3.97
3.6
3.17
2.64
1.92
1.17
0.43
-0.24
-0.56
-0.72
-0.72
-0.69
-0.59
-0.48
-0.48
-0.53
-0.72
-0.93
-1.25
-1.68
-2.03
-2.45
-2.88
-3.31
-3.73
-4.08
-4.51
-4.88
-5.2
-5.55
-5.81
-5.92
-5.39
-4.21
-2.24
0.05
2.13
3.76
4.83
5.36
5.6
5.49
5.39
5.2
4.96
4.59
4.08
3.41
2.67
1.84
1.09
0.61
0.4
0.4
0.4
0.32
0.29
0.19
0
-0.24
-0.56
-0.96
-1.31
-1.73
-2.16
-2.59
-3.01
-3.36
-3.79
-4.16
-4.56
-4.91
-5.23
-5.52
-5.65
-5.39
-4.32
-2.56
-0.27
2
3.73
4.96
5.76
5.89
5.95
5.84
5.71
5.49
5.2
4.75
4.16
3.44
2.67
1.97
1.36
0.99
0.88
0.8
0.8
0.8
0.72
0.59
0.37
0.08
-0.16
-0.48
-0.8
-1.2
-1.57
-1.92
-2.24
-2.56
-2.88
-3.2
-3.47
-3.76
-3.97
-4.08
-3.76
-2.77
-0.96
1.28
3.41
5.23
6.56
7.09
7.36
7.44
7.31
7.09
6.96
6.72
6.35
5.84
5.17
4.48
3.76
3.12
2.59
2.32
2.08
2.03
2
1.87
1.65
1.36
1.01
0.59
0.16
-0.27
-0.64
-0.96
-1.28
-1.6
-1.92
-2.16
-2.43
-2.72
-2.93
-3.15
-3.28
-3.12
-2.32
-0.8
1.28
3.41
5.44
6.59
7.33
7.6
7.55
7.28
7.04
6.72
6.35
5.92
5.36
4.72
4
3.25
2.45
1.84
1.31
1.04
0.8
0.59
0.37
0.08
-0.27
-0.69
-1.2
-1.73
-2.32
-2.88
-3.49
-4.03
-4.56
-5.07
-5.49
-5.84
-6.24
-6.61
-6.96
-7.31
-7.41
-7.12
-6.13
-4.43
-2.24
-0.35
1.2
2.24
2.77
2.93
2.88
2.75
2.59
2.4
2.05
1.57
1.04
0.29
-0.51
-1.2
-1.79
-2.16
-2.24
-2.32
-2.27
-2.16
-2.16
-2.21
-2.4
-2.61
-2.88
-3.12
-3.44
-3.76
-4
-4.32
-4.59
-4.88
-5.12
-5.44
-5.68
-5.97
-6.24
-6.48
-6.37
-5.57
-4.16
-1.92
0.27
2.16
3.49
4.29
4.56
4.72
4.67
4.48
4.27
4
3.6
2.93
2.13
1.36
0.59
0.05
-0.24
-0.4
-0.4
-0.24
-0.13
-0.08
-0.08
-0.24
-0.56
-0.88
-1.23
-1.6
-2
-2.43
-2.85
-3.28
-3.71
-4.13
-4.48
-4.88
-5.2
-5.52
-5.73
-5.73
-5.28
-3.55
-1.47
0.88
2.85
4.35
5.12
5.55
5.65
5.68
5.47
5.25
5.04
4.61
4.08
3.36
2.51
1.71
1.04
0.64
0.43
0.4
0.4
0.4
0.4
0.27
0
-0.24
-0.51
-0.88
-1.28
-1.63
-2
-2.4
-2.8
-3.17
-3.52
-3.92
-4.24
-4.64
-4.96
-5.17
-5.36
-4.72
-3.39
-1.52
0.77
2.91
4.4
5.36
5.84
6
6.05
5.95
5.84
5.63
5.31
4.88
4.24
3.55
2.8
2.16
1.57
1.12
0.91
0.8
0.8
0.83
0.77
0.64
0.43
0.16
-0.24
-0.59
-0.96
-1.28
-1.68
-2.05
-2.4
-2.77
-3.04
-3.44
-3.76
-4.03
-4.24
-4.21
-3.79
-2.64
-0.72
1.63
3.76
5.52
6.59
7.2
7.41
7.47
7.36
7.15
6.93
6.64
6.19
5.65
4.96
4.21
3.57
2.96
2.72
2.45
2.24
2.21
2.11
2
1.76
1.44
1.04
0.61
0.19
-0.24
-0.69
-1.17
-1.52
-1.84
-2.16
-2.48
-2.77
-2.99
-3.28
-3.49
-3.6
-3.52
-2.77
-1.28
0.72
2.72
4.43
5.68
6.27
6.48
6.48
6.16
5.84
5.52
5.2
4.83
4.32
3.68
2.99
2.24
1.6
1.01
0.56
0.19
-0.03
-0.16
-0.4
-0.77
-1.2
-1.65
-2.19
-2.72
-3.15
-3.57
-4.08
-4.51
-4.93
-5.36
-5.79
-6.21
-6.64
-6.96
-7.33
-7.6
-7.73
-7.52
-6.48
-4.75
-2.56
-0.4
1.17
2.24
2.8
2.99
2.99
2.8
2.59
2.37
2.08
1.6
