646
631
623
618
619
622
618
607
596
586
564
543
522
495
471
449
427
403
381
360
338
317
299
281
261
239
218
197
175
154
152
178
245
341
451
558
654
730
789
826
844
849
846
840
832
822
821
818
814
804
790
770
749
730
710
700
694
690
690
690
690
680
672
658
642
626
606
586
567
550
530
511
497
480
461
449
432
413
397
377
364
357
368
413
481
563
648
730
788
833
863
876
881
879
872
864
859
855
852
846
836
820
802
782
764
742
728
720
710
705
697
686
666
647
626
599
572
542
514
487
465
445
427
409
388
369
353
337
318
297
281
262
241
221
205
209
241
310
401
504
600
678
738
778
802
813
808
802
792
781
770
765
760
750
734
716
694
678
664
654
648
646
646
646
646
642
631
615
594
572
551
530
508
487
469
449
431
413
397
379
357
341
325
309
293
277
261
241
222
201
191
197
229
306
403
505
598
678
734
773
794
798
800
792
782
772
761
754
745
734
714
697
680
670
663
655
650
650
647
646
648
640
630
614
598
578
556
535
514
492
468
445
428
407
385
365
349
329
309
290
277
259
241
221
199
181
164
171
209
281
376
480
578
660
725
774
794
802
806
796
782
770
760
749
738
726
710
690
668
647
638
635
640
646
650
652
650
644
636
622
602
583
562
540
519
497
476
455
437
416
395
373
355
341
321
303
285
265
253
234
217
198
187
205
255
338
433
531
622
698
748
780
798
805
800
790
780
769
754
748
734
718
697
672
658
648
643
638
634
634
638
638
638
630
615
604
586
564
543
522
500
479
457
437
419
397
380
361
341
323
307
293
277
258
241
221
205
201
217
267
349
447
546
638
709
765
794
812
817
814
804
793
782
773
765
750
733
712
690
670
656
646
640
640
646
646
648
646
639
626
610
588
567
546
524
503
481
460
439
417
396
375
353
337
318
297
277
258
241
223
205
189
198
241
309
405
507
602
685
741
778
802
813
810
804
790
774
764
750
738
725
704
682
659
643
634
634
634
638
638
640
642
631
620
606
586
567
546
524
503
481
460
441
421
404
388
373
353
334
317
301
285
265
247
234
225
255
314
397
497
594
674
744
792
818
829
832
826
814
801
790
776
765
750
729
708
682
654
627
614
604
596
594
588
580
570
548
527
505
479
452
425
395
368
345
319
298
273
255
234
213
193
174
152
131
107
80
54
38
36
83
155
245
343
423
489
536
568
590
590
584
570
554
535
514
489
460
429
397
371
353
356
369
385
404
415
425
429
427
417
407
393
377
359
345
329
314
301
281
269
255
241
225
209
193
178
167
168
209
289
393
516
631
734
814
873
903
921
929
931
920
912
903
893
885
875
864
848
826
805
786
770
760
752
746
740
729
722
709
688
666
643
616
590
568
547
530
508
489
469
448
429
409
388
367
349
333
341
381
447
532
622
708
777
826
861
883
891
889
884
875
868
860
850
845
837
822
806
788
770
753
734
722
712
704
698
688
674
658
636
612
590
563
536
509
489
471
449
429
411
393
372
351
329
317
319
345
412
492
582
671
738
794
829
848
859
853
848
842
832
821
814
808
797
782
761
740
722
702
689
678
668
663
658
647
634
614
594
575
554
531
504
485
464
445
425
408
389
369
349
330
313
298
311
353
423
508
602
680
750
798
826
840
842
840
832
822
812
804
798
788
772
750
724
694
670
654
640
626
620
612
602
591
578
562
540
516
493
468
447
425
403
379
361
339
318
297
275
251
229
225
241
285
364
457
546
626
688
734
756
766
766
760
749
738
725
720
710
696
679
658
636
620
610
604
596
594
594
594
590
578
564
550
528
507
485
460
436
413
392
373
353
337
318
297
275
254
241
235
259
309
392
483
574
651
713
750
776
784
782
776
765
754
748
737
730
718
700
674
654
638
622
615
610
610
610
610
606
595
584
566
544
523
501
480
459
437
417
399
381
364
345
325
303
285
269
262
275
321
395
483
574
651
713
766
788
798
798
796
782
770
760
749
738
722
704
678
655
631
606
580
572
570
563
552
542
530
511
489
461
429
401
373
344
317
290
266
245
223
202
181
159
135
112
87
71
64
104
168
253
347
432
497
546
575
594
596
588
578
562
543
526
503
476
445
417
391
369
375
383
397
413
432
441
445
443
433
423
409
393
377
359
341
326
313
301
289
273
257
246
233
221
215
231
289
372
479
586
678
756
810
845
867
875
869
864
855
849
841
830
824
810
794
773
752
738
724
713
702
697
692
682
671
655
634
610
591
570
548
527
505
485
469
453
433
415
401
380
361
341
330
335
361
427
504
590
679
749
802
837
859
871
869
867
863
857
852
850
845
837
822
805
786
770
754
738
726
717
712
702
692
678
658
636
615
590
563
534
509
492
473
453
436
420
401
380
359
341
323
321
337
381
453
538
622
697
758
798
825
834
842
840
830
824
818
814
812
801
786
769
750
730
709
690
674
667
656
650
639
626
610
592
571
550
528
507
485
463
439
421
401
385
365
348
329
309
289
270
253
235
233
257
311
392
485
571
646
706
745
766
774
773
768
762
756
748
742
732
721
702
680
659
650
639
631
630
624
622
618
616
608
594
578
559
538
516
495
469
448
427
405
385
367
349
331
313
297
279
258
241
221
202
193
213
263
341
433
527
618
679
725
754
764
766
762
756
748
742
736
728
718
701
679
658
639
628
626
622
624
634
634
631
626
615
602
586
564
543
522
500
479
461
440
419
401
383
369
353
335
317
297
277
258
241
223
226
261
322
411
505
595
670
726
761
780
786
781
773
762
756
748
742
732
718
698
675
648
638
634
631
630
627
630
626
620
612
598
580
559
538
516
492
469
449
431
409
388
367
349
331
313
297
279
261
241
221
205
201
221
277
357
453
547
634
692
737
766
776
776
770
760
752
742
732
724
714
693
682
650
636
628
626
626
626
626
624
622
614
602
586
566
544
523
501
476
455
429
409
391
373
352
333
313
297
281
261
239
218
201
183
178
201
258
347
445
542
627
698
740
769
778
781
776
766
756
748
738
728
714
694
671
642
618
599
591
590
586
586
590
579
568
554
534
515
489
464
440
409
387
363
337
315
291
269
243
222
201
174
150
124
102
72
44
22
8
20
68
148
249
339
423
489
534
566
578
580
572
562
546
530
509
487
457
425
397
381
377
389
408
429
445
459
465
467
467
457
447
433
421
405
392
377
367
356
345
331
323
313
302
291
281
269
255
249
263
311
393
497
607
714
804
871
915
939
952
959
957
952
951
945
940
935
929
919
899
879
860
846
832
821
814
808
800
794
782
769
750
729
705
682
655
628
598
575
551
526
504
480
457
440
421
401
385
372
361
383
428
497
579
662
738
796
838
871
877
883
887
881
873
867
861
856
850
838
822
806
786
768
750
737
729
722
716
705
694
680
659
634
611
582
554
527
500
473
452
433
417
397
379
361
341
322
301
285
274
269
303
363
445
536
624
698
757
794
818
824
824
818
813
808
802
793
785
774
761
740
714
693
674
658
644
636
634
634
631
626
614
600
586
564
543
522
500
479
457
440
421
401
385
367
349
331
310
293
275
257
245
253
287
349
436
527
614
692
742
774
793
801
794
788
777
766
761
753
746
734
716
710
671
652
638
632
630
626
622
622
618
607
596
582
560
539
518
496
475
453
437
419
397
376
360
345
325
306
289
273
257
237
222
219
233
289
364
453
547
630
690
738
765
778
781
776
770
761
753
746
736
725
710
694
672
650
643
635
630
630
630
630
630
630
622
606
590
570
548
527
501
480
459
437
420
401
381
369
351
333
317
301
285
267
249
229
223
234
273
355
445
538
627
694
742
768
781
786
780
769
758
748
737
730
722
706
686
662
640
626
620
618
614
614
614
614
608
600
586
572
551
530
508
487
465
448
429
409
388
369
353
337
321
305
285
269
253
237
226
225
269
333
421
516
607
678
728
760
782
785
780
770
760
749
738
728
717
702
680
659
638
627
616
610
608
606
606
604
599
594
578
562
546
528
507
485
464
445
425
408
389
369
349
333
317
297
278
261
239
223
213
227
273
341
432
526
610
678
726
754
766
769
762
752
738
722
712
698
686
663
636
610
588
572
558
552
547
542
538
535
530
518
501
481
460
439
413
391
361
337
310
283
261
234
210
185
162
138
116
90
63
40
26
26
44
115
201
297
380
455
509
547
563
570
571
560
550
538
519
497
471
444
417
401
391
385
396
409
425
435
443
445
440
432
421
409
396
385
365
352
341
327
319
309
294
283
269
258
247
233
223
221
249
310
404
509
620
717
798
857
895
915
923
923
919
913
908
903
901
896
887
875
856
838
822
806
790
780
772
766
760
749
738
722
704
682
655
628
602
579
555
534
514
497
481
464
445
425
409
396
381
391
423
477
555
638
714
780
828
867
879
887
887
880
869
863
859
856
850
838
822
806
790
772
754
736
725
718
712
701
690
674
655
634
611
584
558
530
500
477
449
425
409
389
373
353
333
317
297
279
266
265
299
359
437
528
622
694
753
790
814
818
816
810
801
796
790
785
780
770
749
728
706
680
659
642
632
630
630
626
623
614
602
588
570
548
527
505
484
465
445
424
405
385
365
347
329
309
290
277
259
241
221
203
185
168
155
158
197
267
359
461
556
639
706
737
756
766
765
757
750
744
736
730
724
713
698
676
655
638
622
619
618
623
628
638
639
642
634
620
599
582
560
539
518
500
479
461
440
419
401
381
365
345
327
309
293
281
265
249
229
210
197
182
179
197
255
338
433
530
620
686
737
761
774
778
773
758
752
741
734
728
714
702
680
662
650
639
634
634
639
644
650
648
643
634
622
606
590
568
547
526
505
487
465
448
427
405
388
369
353
333
317
301
286
273
253
235
217
201
205
234
297
384
480
570
651
716
762
782
790
790
784
773
762
749
744
734
718
700
678
658
639
626
624
624
626
630
630
630
627
616
602
584
563
546
524
503
481
460
441
425
405
387
369
349
333
317
301
285
269
251
233
217
202
197
213
263
344
441
538
626
702
745
777
790
792
789
778
768
757
746
736
725
710
689
664
646
634
631
630
630
630
638
638
632
622
610
594
578
560
539
518
496
475
457
436
415
397
376
357
341
323
305
289
277
258
237
217
201
193
201
246
321
419
515
606
682
738
774
796
801
798
792
781
766
761
753
738
726
708
686
667
656
654
648
646
642
643
646
642
632
624
614
592
574
554
536
515
493
473
455
437
416
397
381
364
345
329
313
294
277
257
241
225
217
235
281
368
464
562
648
721
770
798
812
814
812
801
790
780
772
762
746
728
706
685
663
642
631
626
622
620
618
614
607
596
582
559
532
505
479
452
421
391
364
337
310
283
253
230
206
185
162
135
112
91
67
44
30
38
72
155
251
349
439
508
558
591
604
610
603
592
578
566
547
526
501
469
437
416
403
397
404
420
441
460
473
481
485
488
481
469
453
437
421
405
393
381
365
353
343
331
321
310
299
289
274
263
261
286
339
421
523
622
710
785
844
879
897
905
907
900
892
887
877
869
863
852
836
814
793
772
750
738
728
722
717
709
698
686
667
646
623
596
570
548
527
505
484
463
441
424
405
385
372
351
329
309
293
285
293
338
409
501
595
682
753
804
838
860
868
867
861
856
846
841
838
834
822
806
790
769
745
722
706
696
686
680
672
662
650
634
622
604
586
566
544
523
501
481
463
441
424
405
385
368
352
333
313
294
277
266
277
317
387
475
570
650
722
774
808
826
830
832
824
814
808
800
790
784
773
758
737
716
694
672
654
638
632
630
630
624
616
606
588
567
546
524
503
481
459
435
413
392
371
349
327
309
289
269
250
229
209
190
173
158
152
168
237
327
429
528
616
686
737
764
778
786
781
770
760
749
742
732
721
710
689
667
646
630
622
618
619
624
630
634
631
626
608
590
570
548
527
505
484
463
441
424
403
381
364
345
325
305
289
269
249
233
213
197
186
177
211
273
361
465
564
646
714
757
782
797
802
798
786
773
762
749
741
726
709
688
662
650
639
634
632
630
630
630
627
622
611
600
582
560
539
518
497
479
457
440
419
397
377
359
341
319
298
285
267
249
229
207
191
181
191
231
309
407
508
598
674
730
774
786
794
798
788
777
766
756
745
734
717
696
670
648
632
626
618
620
622
626
626
626
619
608
594
574
555
534
512
493
473
451
429
409
389
371
353
331
313
293
277
258
237
217
201
189
207
255
337
440
542
630
704
757
790
805
810
810
800
789
778
768
757
742
725
704
682
656
638
630
626
626
626
626
626
626
619
606
590
572
551
530
508
489
469
452
431
413
393
375
361
345
329
309
291
273
257
247
255
297
369
465
562
651
726
786
817
836
846
845
837
826
816
805
794
778
760
738
717
693
666
643
632
622
618
618
618
616
608
598
586
567
550
532
511
489
472
453
437
417
399
381
363
349
329
311
290
269
263
271
309
379
469
566
654
729
790
822
844
855
853
845
830
817
809
798
784
768
746
720
693
666
646
630
622
612
607
606
599
588
574
556
535
509
479
452
421
395
368
337
310
286
265
242
215
193
167
146
124
120
142
193
281
377
469
548
604
642
664
672
674
667
656
642
626
610
594
572
548
518
491
475
465
472
483
497
516
527
534
538
532
522
509
493
477
463
449
437
427
416
405
388
369
353
333
314
309
329
385
465
558
651
738
792
840
871
884
889
887
877
869
859
842
832
818
797
776
754
734
718
698
690
688
678
672
664
650
628
607
582
555
528
501
475
453
437
417
399
381
361
343
321
299
283
269
298
355
433
530
628
710
780
828
863
877
883
883
881
876
871
863
860
850
838
822
802
781
760
742
724
713
706
697
692
682
664
646
626
604
583
562
538
522
501
484
465
449
429
411
393
375
361
365
400
464
546
631
706
770
816
845
859
867
867
859
853
848
838
837
829
818
797
776
754
733
712
694
682
671
666
655
644
626
604
580
554
526
496
465
443
419
397
377
359
341
319
298
277
255
242
237
269
325
409
504
592
670
726
766
794
796
796
790
781
773
766
761
753
742
725
701
678
658
642
634
626
623
622
620
612
602
591
575
558
536
515
493
468
447
425
408
387
369
349
330
313
293
274
253
235
219
205
229
277
353
451
552
638
708
756
790
801
804
798
789
781
774
764
753
742
729
708
682
666
652
642
632
627
626
626
623
618
606
592
574
552
531
509
488
467
445
424
403
381
361
343
325
307
286
269
251
230
209
193
190
213
275
359
457
555
635
698
742
766
782
781
773
762
752
741
734
728
714
694
671
652
638
628
626
626
630
630
630
626
623
610
596
575
554
532
511
489
468
447
425
404
383
365
345
326
309
293
277
257
239
221
201
202
226
281
368
464
558
644
712
758
784
794
798
792
781
770
761
753
742
730
714
694
668
652
646
644
636
634
634
636
638
627
616
606
584
563
542
522
503
481
460
439
417
405
387
369
349
330
317
301
282
261
243
227
217
243
297
377
476
570
658
724
769
806
813
818
814
804
790
778
768
757
746
729
708
686
664
648
638
630
630
630
634
631
626
615
602
586
566
547
526
500
481
461
440
419
401
381
363
345
326
313
293
275
257
237
225
219
241
297
385
485
583
666
734
780
804
818
818
813
802
789
781
770
760
746
726
705
680
658
640
632
630
630
630
630
628
623
614
598
582
562
536
515
493
472
451
429
408
387
365
344
322
301
279
255
229
201
174
152
146
164
225
309
408
501
578
634
678
694
702
702
692
680
674
663
650
638
620
596
570
540
524
518
514
516
526
536
544
550
551
551
542
530
514
501
491
475
453
437
421
405
389
376
361
345
329
309
287
271
261
281
329
405
492
583
658
717
757
782
789
792
786
770
754
738
721
697
670
643
616
590
578
570
574
579
587
590
584
576
562
544
523
501
479
455
437
416
395
373
356
337
317
301
282
265
243
219
201
186
183
205
278
375
485
595
689
766
822
855
871
879
881
875
869
864
859
857
849
838
828
814
794
777
761
750
741
736
730
721
713
702
688
674
654
636
615
598
576
555
538
522
505
489
472
453
437
417
399
385
381
403
453
526
608
694
764
822
863
885
896
899
893
888
879
872
864
859
848
834
818
798
780
758
738
725
714
709
701
694
682
663
642
620
596
570
542
512
485
459
435
409
391
377
357
339
318
297
277
261
249
258
303
377
465
559
646
709
754
786
797
802
798
789
781
774
769
761
750
737
716
694
682
647
634
626
626
626
626
623
618
607
596
582
562
543
522
496
475
453
432
411
393
377
361
341
323
305
285
267
254
253
285
344
429
523
608
686
741
778
806
808
805
798
788
777
770
760
749
738
717
696
670
644
623
614
606
606
606
606
606
598
591
578
558
538
519
497
476
455
433
416
397
381
361
343
325
305
289
269
259
265
297
369
455
546
628
698
746
776
792
794
792
781
770
761
753
742
732
716
694
672
651
630
614
606
602
600
598
598
591
578
562
550
531
509
488
467
441
420
399
377
360
341
321
301
282
265
243
222
213
218
253
317
405
499
590
660
714
750
768
773
766
756
745
730
724
713
698
676
652
622
596
578
566
555
550
546
544
539
530
515
501
481
460
439
413
391
364
337
310
283
261
235
214
193
166
139
112
90
63
48
52
92
160
249
343
433
495
540
570
583
586
578
564
546
526
504
480
453
421
405
373
367
372
385
403
421
437
444
449
449
439
425
413
397
381
369
353
339
329
317
303
293
278
267
257
242
234
233
277
344
437
546
655
742
812
860
895
909
915
911
905
900
891
883
880
871
859
840
818
798
780
762
749
741
734
728
720
710
694
675
650
627
603
578
547
523
501
484
465
445
429
411
393
376
355
341
335
355
401
477
560
646
724
785
826
853
864
867
861
856
846
841
838
834
828
814
798
781
760
738
721
705
694
689
684
674
662
643
622
600
579
550
532
511
489
469
451
433
417
401
381
365
347
329
309
295
293
318
380
461
551
634
714
761
796
814
824
824
818
813
808
802
797
792
782
765
744
722
701
679
666
651
643
634
628
623
614
602
586
574
556
535
514
492
471
449
429
411
393
372
353
337
321
305
285
265
246
229
211
203
225
279
363
457
554
636
706
748
777
786
789
784
774
769
764
754
749
741
730
713
689
674
663
655
650
647
650
650
648
643
634
618
602
582
564
543
522
501
483
461
441
423
405
388
369
353
337
323
309
289
270
249
230
219
229
277
349
441
532
620
694
742
774
786
789
784
774
764
756
750
741
733
718
697
678
662
646
635
626
620
618
618
618
612
606
594
578
558
540
519
497
477
459
437
419
403
381
364
345
329
313
297
281
261
242
225
210
207
225
281
359
453
548
634
698
749
773
786
789
781
770
765
757
746
740
729
714
693
671
658
651
643
638
636
634
638
636
631
622
607
591
570
552
531
509
488
467
445
428
407
385
369
353
337
321
305
289
269
253
233
222
225
257
329
417
514
602
679
734
772
788
794
792
781
770
760
749
738
724
708
686
663
639
622
610
596
590
584
576
570
563
550
534
512
488
461
439
415
389
360
338
317
295
271
245
223
202
181
158
134
112
86
59
36
11
0
8
58
138
237
333
413
481
527
554
570
570
564
554
538
519
497
475
448
417
391
377
373
384
397
417
437
453
465
469
467
457
451
440
425
409
393
381
371
357
345
334
326
317
307
299
289
274
261
253
262
302
373
476
583
686
778
859
911
939
952
955
957
952
947
941
939
935
924
913
899
877
859
838
826
813
806
797
789
782
774
758
738
717
696
670
647
623
598
568
547
522
496
475
453
441
423
405
389
371
365
376
413
473
559
644
726
788
836
867
883
885
887
881
876
871
865
863
859
850
834
818
797
776
754
737
724
718
709
704
694
678
659
638
616
592
562
535
508
481
460
439
425
408
389
369
348
329
313
293
279
281
306
365
445
534
622
702
750
790
810
816
818
814
805
800
794
789
784
774
757
736
714
685
666
650
639
631
626
626
626
622
610
594
582
560
539
518
496
475
457
436
415
397
379
368
349
331
313
293
277
266
269
303
371
453
544
630
702
753
785
802
804
804
794
781
776
770
765
757
742
729
708
686
664
643
630
618
615
614
614
611
602
590
574
558
536
515
493
472
451
429
413
395
377
357
341
325
307
289
269
258
258
277
334
412
497
588
660
718
757
776
786
785
777
766
757
749
742
736
722
702
680
659
642
627
622
618
614
614
614
608
600
586
574
555
534
512
491
473
456
435
413
393
377
361
341
325
305
285
269
253
245
258
293
371
461
554
635
705
746
773
784
786
780
772
762
753
745
734
724
708
686
666
642
614
602
591
586
580
575
570
559
543
522
500
476
445
415
388
357
326
299
273
247
223
201
174
150
128
102
75
52
40
54
100
183
274
361
435
496
538
567
572
574
567
556
546
535
524
509
488
461
433
415
404
401
408
421
437
452
463
469
473
471
461
447
433
417
407
396
389
379
368
361
355
344
333
321
310
301
315
351
413
501
600
694
772
830
875
887
895
899
892
881
875
867
864
855
838
822
802
781
760
742
729
721
714
708
700
690
672
651
630
606
574
546
519
492
465
437
411
393
373
355
333
313
297
277
266
269
297
368
451
542
634
714
770
809
830
838
840
832
826
821
818
818
813
805
790
769
748
722
701
679
666
656
648
646
640
632
622
610
591
574
552
531
505
484
465
445
428
409
389
373
355
333
313
297
293
306
355
425
514
602
682
742
785
806
818
818
810
805
800
790
789
784
774
762
744
718
692
667
646
634
623
614
604
602
594
583
570
554
532
511
485
464
443
421
400
379
361
344
325
305
289
275
261
245
229
209
189
173
173
203
259
341
437
531
614
674
720
738
750
750
742
732
726
722
717
712
702
685
663
638
616
603
594
592
590
594
599
602
602
598
582
562
544
523
505
485
467
449
428
409
389
373
355
333
321
305
289
273
254
237
219
201
185
183
210
265
352
448
546
634
698
746
770
781
778
772
761
754
745
737
730
722
704
682
660
642
626
624
622
626
634
634
634
628
620
606
590
571
550
528
504
481
460
439
417
396
375
357
341
322
305
289
273
253
235
217
197
198
222
277
360
453
542
622
680
726
746
754
758
748
737
730
721
713
706
693
671
650
630
616
610
608
606
610
614
614
614
602
588
578
558
539
518
493
477
457
436
417
397
385
367
349
329
313
293
275
257
237
225
227
257
323
404
493
584
656
710
744
760
770
764
753
738
728
717
706
694
675
654
630
603
578
563
555
550
546
546
546
544
536
522
504
483
461
440
413
385
360
335
313
287
266
241
219
198
177
155
131
108
87
74
80
126
195
281
365
445
505
550
576
594
596
591
582
566
550
530
503
476
445
420
401
389
396
412
429
444
455
457
460
452
441
425
407
389
373
357
341
326
313
301
290
279
265
254
243
233
218
207
221
267
351
453
566
667
758
821
872
899
911
911
907
900
889
879
877
875
867
855
838
818
798
777
750
738
728
718
709
704
690
674
655
634
608
584
558
538
522
501
481
465
453
436
417
397
376
357
341
334
351
401
469
550
634
706
765
810
830
838
842
842
837
830
826
824
818
812
801
786
765
744
722
704
690
678
674
668
658
647
631
614
596
575
554
532
511
489
472
453
437
421
403
385
364
345
325
317
327
357
428
508
598
679
746
794
824
840
842
840
832
826
817
814
810
800
789
770
749
725
698
678
664
654
644
636
626
614
598
578
560
542
522
500
479
457
432
413
393
376
357
337
317
298
281
263
255
273
317
387
469
550
619
674
713
734
742
741
736
726
720
712
706
700
689
670
648
627
606
591
583
582
578
578
574
564
556
542
522
503
477
452
428
397
375
351
325
303
282
261
239
218
197
174
150
132
118
112
140
197
279
365
444
511
566
587
603
610
607
596
590
584
579
578
571
560
542
522
505
493
484
479
477
481
481
485
485
483
473
463
449
437
420
401
385
369
356
341
325
311
297
282
271
261
239
218
197
181
167
168
203
267
345
425
503
570
611
635
646
647
644
638
628
620
614
610
602
586
568
544
522
504
499
493
489
492
493
493
488
477
471
460
445
425
409
389
368
347
325
302
278
257
234
207
185
163
139
116
90
66
44
36
47
88
151
226
301
364
412
449
465
473
469
459
445
437
427
413
397
380
359
341
333
317
321
331
345
357
368
376
377
372
364
349
333
317
305
290
277
261
250
239
229
213
199
189
177
160
144
135
138
156
223
309
405
499
582
642
686
716
734
745
750
754
756
764
770
778
778
770
758
742
726
714
698
686
686
686
686
685
679
670
658
644
630
610
591
574
558
542
530
512
496
481
465
449
433
417
399
389
391
423
477
550
624
698
758
804
830
848
853
855
859
856
859
860
863
867
864
850
838
824
810
794
782
772
766
761
756
746
732
718
698
676
652
626
599
575
554
531
504
489
473
457
441
424
408
393
375
364
361
385
436
505
580
652
718
760
789
806
812
814
814
814
814
814
816
818
814
804
788
770
756
742
726
716
708
702
692
680
670
656
635
618
600
579
558
540
519
497
481
465
449
431
417
397
380
361
341
325
309
297
302
331
393
471
554
634
697
742
774
789
794
794
790
788
786
786
786
786
781
768
750
734
726
706
692
680
674
667
662
662
651
640
626
610
591
570
552
531
509
492
471
453
433
415
401
384
365
349
331
313
293
274
263
265
294
356
437
523
603
678
726
761
774
784
784
782
778
776
774
774
774
770
758
740
722
713
686
678
674
671
666
666
660
650
638
622
602
576
555
530
503
476
449
423
399
377
356
331
309
291
270
249
226
202
181
155
136
140
170
231
313
400
480
550
591
623
642
648
643
634
627
619
610
603
587
566
546
538
522
519
527
538
554
567
578
587
590
590
583
572
562
547
536
522
511
500
489
477
459
445
435
421
401
384
365
349
334
329
357
415
500
594
688
765
838
876
905
923
928
931
931
931
933
935
936
936
931
915
899
883
871
860
846
842
840
830
825
814
798
781
760
738
713
689
666
638
611
590
567
543
518
496
475
453
428
407
389
383
383
409
467
542
622
700
764
814
845
864
875
875
875
875
875
877
879
883
880
871
855
838
822
808
797
790
780
772
766
756
742
726
709
688
662
636
612
590
563
536
509
487
463
445
429
413
397
381
365
345
327
314
313
338
387
457
543
626
694
749
784
810
816
818
818
817
814
814
818
818
814
802
786
770
750
732
714
701
693
686
679
668
658
651
638
622
602
583
566
544
526
505
488
469
453
437
421
405
387
373
361
345
329
309
295
274
261
253
261
301
367
452
538
622
689
738
764
780
786
786
784
782
782
780
778
777
769
754
733
722
698
685
679
674
671
674
674
668
663
654
638
622
606
584
563
542
522
503
485
465
447
433
417
401
381
365
352
337
317
301
285
266
253
249
275
329
405
492
580
658
717
757
774
786
789
786
781
778
774
773
770
762
750
732
710
696
682
666
664
662
662
660
658
654
646
630
618
596
578
558
536
515
497
477
461
445
428
409
393
381
368
353
337
318
301
283
265
245
243
270
317
399
487
574
654
713
754
777
785
786
781
778
774
773
765
758
752
736
714
698
676
658
647
639
634
632
627
622
615
602
582
560
539
518
491
461
433
407
380
357
330
306
281
259
238
217
195
174
152
127
103
76
66
68
100
168
254
341
423
487
534
563
576
582
579
568
558
548
540
530
508
487
465
444
433
429
437
453
465
481
495
501
505
503
497
487
476
465
451
440
429
423
412
401
395
384
377
368
360
349
338
327
325
341
389
457
548
639
722
796
846
883
905
913
915
913
908
903
903
900
899
892
881
863
841
825
810
796
788
782
773
768
758
742
724
702
680
656
630
607
580
554
528
504
481
460
444
429
409
393
377
363
349
345
367
417
489
574
656
730
789
832
855
868
873
875
869
867
867
865
863
863
856
845
826
809
790
770
758
748
742
736
725
714
702
684
662
640
616
590
563
539
518
499
485
469
453
437
421
409
391
373
357
338
333
351
396
457
543
623
694
754
797
818
830
833
834
830
828
822
822
822
818
806
790
770
754
738
718
706
696
690
678
664
654
638
619
598
580
559
538
516
495
473
453
435
417
400
381
361
345
331
317
299
278
261
245
229
225
242
293
369
456
544
626
688
736
758
772
777
774
769
764
758
757
754
750
738
720
698
679
671
662
655
650
646
647
647
642
631
618
602
580
562
546
524
503
477
457
441
421
404
385
369
353
337
321
305
289
273
257
241
221
210
215
245
311
397
489
580
655
710
745
766
778
777
772
766
761
756
754
748
737
726
705
684
666
659
646
642
642
644
646
640
632
622
610
591
574
558
539
518
496
477
457
441
423
405
393
375
357
343
331
313
298
285
269
253
237
229
246
291
365
452
540
626
689
734
762
773
778
778
769
764
758
753
748
742
730
712
690
672
664
654
646
643
642
638
638
638
627
616
602
584
566
546
524
505
485
469
451
433
415
401
385
369
353
341
325
309
293
273
259
257
277
330
405
491
576
658
710
750
770
780
780
774
765
760
754
744
733
722
705
684
658
630
614
598
587
579
570
564
556
546
534
515
493
472
448
425
399
375
353
331
310
289
267
249
229
207
189
168
142
118
100
83
80
108
162
237
321
401
468
518
548
570
578
568
560
546
531
518
497
476
455
429
409
393
393
401
417
429
445
453
457
456
448
437
421
405
393
379
365
349
343
331
321
310
299
289
278
267
253
242
239
257
306
389
493
600
692
770
830
871
899
905
911
907
901
896
895
891
893
887
871
855
834
814
796
782
769
761
750
745
737
722
709
688
666
644
620
594
568
544
522
504
488
473
457
439
421
407
393
377
371
392
433
504
582
662
733
789
822
845
856
859
860
855
855
855
855
850
844
833
818
797
778
758
742
729
718
709
701
694
682
666
646
622
595
574
543
519
493
473
457
437
421
405
389
376
355
337
317
301
297
319
368
437
523
603
678
738
778
798
810
808
806
800
792
782
782
780
770
758
740
718
692
667
646
630
619
610
600
595
586
576
568
550
534
515
493
472
451
429
409
391
373
356
337
321
305
291
277
261
245
229
209
193
181
175
199
249
334
425
518
594
658
698
721
732
734
732
724
714
713
710
706
696
685
666
644
626
610
608
606
606
607
612
614
616
608
598
580
562
542
520
499
477
457
439
417
400
381
361
345
329
313
297
281
265
247
229
213
211
241
293
371
459
546
623
676
714
733
741
734
729
721
714
709
704
698
690
674
654
630
608
598
592
590
594
599
604
606
599
586
570
556
535
514
492
471
449
428
409
389
368
352
337
321
302
285
265
249
229
213
205
213
258
327
413
503
586
650
698
725
738
740
732
722
712
701
694
684
672
654
632
614
598
586
575
570
570
572
574
568
560
546
530
514
493
467
443
417
387
360
329
303
282
257
235
214
193
171
150
128
107
91
80
94
136
201
286
372
445
512
552
578
586
588
582
571
560
554
544
536
526
512
491
485
463
460
465
476
489
505
519
527
530
528
520
509
503
489
473
461
445
433
423
415
405
395
384
373
361
348
341
353
393
461
548
639
730
793
844
879
896
901
899
893
888
887
880
875
871
860
844
822
810
776
754
740
732
726
721
713
702
685
663
642
615
588
562
534
504
473
453
435
417
397
381
361
339
318
297
286
289
321
385
471
562
644
717
774
806
828
838
838
838
834
826
826
826
826
824
810
797
776
754
734
718
710
701
696
686
675
667
658
646
627
606
584
566
546
528
509
489
479
465
449
433
415
397
383
375
385
431
495
574
656
732
790
832
853
867
871
868
863
861
859
859
857
849
838
817
796
774
757
741
730
720
712
702
692
680
662
640
619
590
567
540
514
487
460
437
421
405
389
373
357
337
317
301
293
290
314
365
439
522
602
663
712
742
760
768
770
766
764
758
754
754
750
740
726
710
689
667
650
640
635
630
628
626
622
611
598
582
564
543
522
500
479
457
437
419
401
381
365
345
327
309
289
273
259
249
255
287
353
435
520
606
668
714
746
757
762
766
757
752
750
745
740
730
713
692
666
640
619
606
591
580
574
567
559
550
536
515
493
472
448
421
396
372
345
318
294
269
247
226
205
187
166
144
118
91
64
46
38
52
98
173
257
335
405
465
492
511
522
519
508
501
491
480
469
448
424
401
381
365
357
365
381
397
412
423
433
432
424
409
393
377
361
347
333
317
306
298
289
279
271
261
250
239
225
215
215
229
286
369
465
571
672
750
809
849
875
887
897
903
908
911
911
915
915
907
893
872
850
838
830
810
800
789
782
776
765
754
737
716
694
671
647
622
595
568
546
524
503
481
469
451
433
417
399
389
384
405
449
516
591
670
733
784
818
837
848
850
850
850
850
850
850
850
848
834
818
801
782
766
750
740
730
721
713
702
690
671
650
628
604
574
551
527
501
481
465
453
440
421
405
388
372
357
337
318
305
299
315
361
431
516
602
671
733
774
798
812
814
810
810
810
810
810
810
804
790
770
749
725
702
686
672
658
652
647
642
631
620
610
596
578
558
535
514
493
473
455
433
413
397
381
364
345
329
317
301
285
265
246
229
214
206
213
259
329
413
503
586
650
701
725
738
742
740
734
733
730
726
728
728
718
705
684
662
651
646
642
643
648
654
658
655
642
627
611
590
568
547
526
504
483
465
449
433
413
396
380
365
349
330
317
301
285
265
247
229
213
214
238
293
375
463
550
626
685
730
750
758
758
757
752
746
742
740
738
732
716
694
674
660
650
648
648
650
646
646
646
638
624
614
592
571
550
530
511
489
468
449
429
417
399
381
365
349
337
321
305
289
271
253
237
226
223
253
307
388
481
567
642
706
738
760
770
769
764
762
758
756
754
749
741
726
705
684
670
658
658
654
650
650
650
648
640
630
614
598
578
556
538
518
495
473
457
437
421
405
387
373
357
341
325
309
293
277
261
242
229
233
267
334
417
514
599
670
720
752
766
774
772
766
761
756
746
741
733
718
701
676
658
642
626
614
607
599
594
594
588
578
566
547
526
503
476
449
423
399
373
351
323
301
279
258
237
215
197
177
155
134
112
86
62
40
32
46
84
162
253
341
423
489
534
560
571
574
567
559
550
539
528
514
492
468
445
437
435
441
452
468
485
495
503
505
500
492
481
465
452
437
427
416
405
392
384
373
359
348
337
330
319
309
298
285
277
283
321
389
487
588
690
772
838
887
917
928
931
931
931
927
927
927
931
928
917
907
885
867
846
830
817
806
801
796
790
780
769
750
729
708
682
655
631
606
583
556
534
512
491
469
457
444
433
417
401
393
391
415
461
528
606
686
749
800
834
853
864
867
863
860
859
853
850
850
844
833
818
800
786
782
749
736
726
720
709
702
692
678
658
636
612
590
562
532
505
484
463
445
425
409
393
376
357
341
329
310
289
270
257
257
286
348
425
518
603
674
725
762
778
786
784
778
774
772
766
766
764
754
741
720
698
676
660
650
643
638
634
634
631
622
611
600
582
560
539
518
496
475
457
437
419
397
380
361
345
329
315
301
285
269
253
233
217
205
197
210
249
321
409
501
584
659
706
734
748
750
748
742
738
733
730
726
721
713
702
680
664
650
648
646
646
651
656
658
655
647
638
622
603
582
562
543
522
500
481
465
448
429
409
397
381
365
349
333
321
305
289
269
251
233
217
214
230
285
364
457
550
628
693
738
754
762
762
753
745
742
737
732
726
716
705
686
666
652
642
634
634
634
634
631
626
620
610
594
578
559
538
516
492
469
452
431
409
389
371
353
337
321
301
285
269
253
241
225
209
189
170
164
173
213
281
375
471
562
634
690
726
746
749
750
745
740
730
724
718
714
702
684
666
650
631
618
614
616
622
627
630
634
635
624
610
594
575
554
536
515
497
477
459
437
421
405
389
373
360
349
333
317
301
286
273
253
245
250
277
343
423
514
598
675
726
764
780
786
788
780
774
769
761
754
749
744
730
714
693
666
655
650
646
646
643
642
640
632
622
606
590
570
547
523
497
472
451
429
404
380
357
335
314
297
275
254
233
211
190
168
151
146
164
226
303
389
475
544
598
634
655
666
664
659
654
644
636
630
619
608
594
578
556
538
536
534
542
556
567
578
582
584
582
580
572
558
547
534
526
515
501
489
473
460
445
435
421
405
385
369
353
345
356
389
460
540
622
698
760
798
826
840
842
841
836
826
821
818
814
804
790
774
753
734
718
708
697
690
685
676
666
654
635
614
591
564
538
516
495
473
453
437
417
401
385
369
353
334
317
297
281
277
286
331
401
489
583
670
737
790
826
848
856
859
855
855
850
850
850
855
844
830
814
793
774
754
738
728
718
713
708
698
684
670
650
632
614
594
578
559
542
526
507
493
477
461
441
425
412
397
387
387
417
467
536
618
692
756
810
836
849
855
853
848
846
842
845
846
844
833
822
801
780
762
742
726
714
705
697
686
679
666
650
628
604
582
555
528
501
475
453
437
417
399
381
365
349
329
307
289
273
282
319
385
471
559
634
697
737
762
772
774
770
765
760
754
753
748
738
726
708
702
655
631
614
604
596
594
590
587
578
566
550
534
512
491
465
440
421
401
385
369
349
335
314
297
275
254
233
218
213
229
275
348
433
516
586
642
688
706
710
714
709
698
693
690
686
684
670
654
631
607
590
578
567
558
558
558
562
562
559
546
524
503
481
455
428
401
371
341
317
291
273
253
235
214
197
175
154
128
112
115
148
205
274
349
412
463
497
515
523
522
515
507
505
495
487
481
468
447
425
405
389
377
373
379
389
396
404
409
409
404
393
380
361
341
323
302
285
269
253
237
218
205
189
171
152
136
136
152
205
283
377
469
550
611
658
678
686
682
676
671
666
662
659
658
647
631
606
586
572
562
552
550
550
550
552
554
547
536
526
505
487
465
436
412
389
368
347
321
303
282
261
238
214
193
177
166
177
229
298
377
460
530
586
622
638
646
650
647
642
640
638
642
642
639
630
616
595
590
563
558
554
554
554
558
562
559
554
547
536
522
509
493
477
465
449
429
413
397
377
360
338
317
298
287
289
313
364
433
503
570
630
660
682
694
694
694
694
694
694
694
700
700
694
676
655
638
619
606
602
598
600
602
602
602
594
582
563
542
516
492
469
447
423
401
380
359
341
322
309
289
267
246
225
203
190
189
214
273
345
423
500
566
607
631
646
647
650
646
650
652
654
654
656
654
638
619
602
586
570
566
562
564
566
571
574
570
564
556
546
531
518
501
485
472
457
437
419
401
381
363
349
331
313
297
279
258
241
221
205
201
225
278
349
435
512
586
627
656
674
675
675
674
674
676
678
684
686
682
675
659
642
636
623
622
618
620
630
631
634
634
627
616
606
592
571
550
527
503
477
456
435
413
388
367
345
327
306
281
263
239
213
191
173
168
191
242
313
389
461
522
562
588
602
606
606
602
598
595
590
590
587
578
562
543
522
509
512
518
530
543
558
567
570
574
572
564
558
546
532
518
505
495
485
476
468
461
453
437
425
409
393
377
359
353
361
401
465
542
622
692
750
782
806
818
820
828
830
836
841
842
846
844
838
822
806
794
789
773
770
766
766
758
752
741
722
701
679
654
624
600
578
560
542
526
509
496
481
463
449
433
412
393
373
363
363
385
436
514
598
682
757
818
860
884
899
908
911
919
928
933
943
952
957
955
943
924
907
897
889
887
887
887
883
876
865
850
833
812
790
769
748
726
705
684
662
642
623
606
586
567
546
524
503
481
460
444
433
449
487
546
610
674
734
781
816
838
844
849
855
856
861
871
880
885
887
880
869
859
848
837
830
828
820
814
808
797
786
774
756
738
721
697
674
648
624
602
576
555
538
516
495
477
459
448
437
423
409
393
377
361
349
356
388
445
514
591
666
724
764
790
809
814
818
822
822
826
832
837
846
841
830
814
798
782
774
768
760
758
748
740
730
714
698
678
656
635
614
588
564
538
522
503
485
473
457
445
435
421
405
393
380
369
353
334
317
302
291
297
327
381
453
530
604
666
706
738
750
758
758
758
758
758
762
764
766
762
749
730
714
698
685
670
659
654
654
654
648
642
631
618
598
580
562
542
520
501
485
465
449
433
417
401
385
373
360
345
334
321
305
289
273
257
250
253
277
338
416
501
582
643
690
724
740
746
746
746
746
746
749
750
750
745
734
717
696
678
668
666
662
658
655
654
647
636
622
606
587
566
543
519
493
468
447
425
404
383
365
345
326
309
289
270
249
231
210
189
167
146
132
131
152
205
274
357
433
496
542
570
580
588
594
584
576
570
566
560
546
530
514
497
488
483
489
500
514
530
536
542
542
536
528
518
507
496
485
471
460
449
443
435
429
420
412
405
395
384
369
353
343
341
369
425
501
587
670
746
802
842
871
881
887
891
892
900
903
908
913
915
907
893
879
859
842
830
820
809
806
800
792
782
766
748
726
705
684
658
632
611
590
564
546
530
509
491
469
451
437
421
407
399
405
440
493
562
635
705
758
797
821
838
844
846
846
848
853
859
863
863
859
845
826
806
796
790
774
764
753
746
736
722
710
689
667
646
623
599
574
544
520
497
476
457
441
431
417
401
385
369
357
343
331
329
363
416
485
566
643
706
753
780
798
806
806
806
812
814
818
824
824
818
801
782
762
750
734
714
705
697
686
675
664
650
634
615
590
578
559
538
516
495
481
464
445
433
416
400
389
377
364
349
334
321
309
293
282
281
311
365
433
518
598
658
708
740
754
760
762
762
762
765
770
774
774
766
753
732
710
698
682
666
652
647
646
644
639
630
618
604
590
568
547
526
505
489
469
452
433
417
405
392
377
367
353
341
326
313
293
275
262
253
273
315
385
465
546
618
674
714
742
748
750
750
750
750
750
754
757
758
742
724
706
688
676
670
662
659
658
656
651
646
634
620
610
588
567
550
528
509
489
472
456
441
425
409
397
383
369
353
338
325
309
293
277
261
247
245
269
317
389
473
558
630
686
721
742
750
757
752
750
750
750
746
746
741
730
717
696
674
660
655
654
651
646
646
640
632
622
604
586
566
544
523
501
481
463
441
420
399
381
364
345
325
303
287
269
247
226
201
179
158
136
128
139
177
249
331
413
493
555
590
608
619
622
623
615
610
608
606
606
594
575
554
532
516
501
501
501
509
524
535
542
546
546
546
534
523
514
497
484
469
456
451
441
435
427
417
412
401
385
369
353
337
323
323
341
388
457
538
620
690
742
780
798
802
802
800
794
793
790
790
784
770
754
737
718
698
682
671
666
660
658
650
639
628
618
600
579
558
540
519
497
477
459
441
425
409
393
377
364
349
329
310
297
282
274
293
339
409
497
587
664
726
766
798
814
822
822
822
822
822
826
828
830
826
810
792
770
754
741
730
724
716
710
700
689
678
656
638
622
604
586
566
546
527
509
493
477
465
451
440
425
413
397
381
365
349
345
361
401
461
539
616
686
738
781
802
814
814
814
814
814
818
818
818
822
810
794
774
758
742
738
706
696
690
679
668
658
643
627
602
582
563
542
520
499
481
460
439
421
405
389
373
357
344
333
317
298
281
265
249
229
221
226
249
315
396
485
568
643
694
724
740
750
753
750
746
746
746
746
753
745
730
709
690
686
663
658
654
659
659
658
652
644
634
618
602
582
560
539
522
500
481
465
444
425
405
393
377
361
343
329
313
298
285
269
251
235
221
207
213
249
314
400
489
574
646
706
728
741
746
746
744
742
738
738
738
740
732
718
697
675
662
652
647
646
650
652
662
660
652
638
622
603
582
560
542
522
500
484
469
449
433
417
399
388
373
356
337
317
301
282
265
250
239
253
287
355
437
526
608
678
724
753
762
770
770
766
762
760
754
754
752
742
722
704
682
667
659
654
648
646
642
640
638
626
610
591
570
548
527
501
480
459
433
411
387
369
348
326
305
287
266
245
222
198
173
151
132
128
159
218
297
387
469
538
587
624
642
650
647
646
639
631
626
626
623
610
588
564
542
531
523
518
523
531
542
551
556
558
555
547
542
526
512
497
483
472
461
448
440
429
413
395
373
361
345
329
315
313
337
387
459
538
614
680
730
760
776
782
781
773
766
761
756
746
736
722
702
680
670
646
631
620
614
607
602
598
592
584
570
554
535
514
492
471
449
433
415
397
377
359
345
329
310
289
271
255
241
251
286
353
436
530
618
690
741
778
794
802
806
806
804
802
808
813
814
812
798
778
758
742
726
708
697
686
679
671
666
660
652
638
618
599
578
560
542
522
509
496
485
469
451
433
415
401
385
377
388
417
473
543
618
689
748
786
810
824
826
825
822
822
822
822
826
825
820
802
785
766
746
730
714
698
688
676
670
658
642
622
599
572
546
519
495
473
453
437
421
404
385
369
356
334
317
302
291
301
335
400
481
562
634
698
737
761
770
774
772
770
766
766
766
765
760
746
725
704
682
656
635
622
615
610
610
604
599
590
574
558
538
515
488
465
445
427
409
389
373
361
344
325
309
291
270
253
245
255
293
355
440
526
598
656
706
728
738
742
741
733
730
730
730
730
724
708
686
664
640
622
608
600
598
598
598
594
592
582
566
552
531
509
488
464
441
419
400
385
369
353
337
322
309
293
271
253
233
221
213
229
273
345
429
514
588
646
684
708
722
722
722
718
714
714
714
714
709
694
672
651
630
615
604
602
606
608
610
610
607
598
582
566
546
520
496
469
444
420
393
371
347
325
303
282
261
239
218
197
170
146
124
106
100
124
174
249
337
421
493
558
584
603
614
612
604
598
594
594
590
583
572
554
531
507
493
485
483
489
496
507
518
519
522
522
515
504
493
479
465
453
437
427
421
412
404
393
384
376
365
348
329
313
321
351
405
481
564
642
708
756
786
797
802
806
801
796
790
786
784
774
757
736
714
698
682
670
660
652
646
640
632
614
598
582
562
540
519
493
469
451
429
412
393
377
365
347
329
307
286
269
253
242
249
295
368
453
547
632
698
749
776
794
802
805
806
806
806
810
812
814
806
793
774
754
737
718
702
692
684
674
666
663
654
643
630
614
596
575
554
534
515
501
485
469
453
441
425
409
393
377
361
349
352
377
425
495
574
647
712
758
788
809
814
814
814
814
816
818
818
818
813
798
777
758
738
724
713
698
692
684
674
662
646
630
608
584
562
536
515
493
473
455
437
417
401
385
369
356
341
325
309
293
273
254
249
255
293
357
444
530
610
671
720
746
762
765
766
766
764
766
766
766
770
762
746
726
701
685
674
667
662
658
658
655
650
639
628
610
592
571
550
530
511
493
473
455
437
421
405
389
377
364
349
333
317
301
281
265
261
271
314
381
467
552
630
694
737
758
770
773
770
766
766
762
764
766
762
750
732
710
689
672
658
651
646
642
642
639
634
623
612
594
572
554
534
512
491
473
452
433
417
401
385
369
359
345
329
313
297
281
263
247
237
245
279
345
431
516
594
666
712
738
752
757
758
753
750
746
748
750
746
740
724
702
686
672
658
658
655
650
650
647
646
639
626
610
594
575
554
532
511
489
468
449
429
413
400
385
369
356
341
326
313
293
277
266
261
286
337
413
499
584
654
709
746
770
776
776
770
769
766
766
762
762
754
741
722
702
685
663
650
640
638
634
627
619
614
602
583
562
540
519
497
468
447
425
400
381
361
344
322
301
281
262
241
215
191
168
152
150
168
225
297
377
459
526
574
607
620
630
628
626
622
616
611
606
599
586
566
550
534
518
516
514
522
532
546
554
559
564
562
555
544
534
519
505
497
487
476
465
449
436
425
409
396
377
359
345
341
356
399
461
546
626
698
753
796
814
828
833
830
825
822
822
821
818
810
793
774
754
733
717
702
696
690
690
684
670
654
632
611
586
560
542
522
501
483
465
449
433
421
405
389
373
357
341
325
311
309
341
396
473
558
643
716
770
801
822
830
834
834
834
834
837
846
846
841
830
813
792
774
757
738
726
716
705
694
684
670
654
631
604
582
564
543
522
505
489
473
457
441
429
413
397
377
356
339
325
314
314
345
396
473
558
632
700
758
784
802
814
814
814
814
814
814
814
817
809
794
773
752
734
714
698
682
674
671
662
651
638
626
614
598
578
556
538
518
496
480
465
449
431
413
399
388
373
359
348
333
321
302
285
271
263
273
307
372
453
539
616
686
730
757
766
774
774
774
770
770
770
770
770
762
750
732
710
689
672
662
656
654
654
652
647
638
626
610
594
576
555
534
514
497
481
461
445
433
417
401
385
373
360
345
329
315
301
282
266
245
235
235
249
306
384
469
554
634
686
725
746
754
756
750
746
746
749
754
746
744
734
713
692
686
663
658
658
652
650
650
648
643
634
618
602
586
564
543
522
501
485
465
449
433
417
407
393
377
357
341
329
317
301
281
265
249
233
230
243
289
359
447
534
612
676
726
746
754
758
757
749
746
742
742
742
736
725
706
685
663
654
646
643
646
650
650
646
640
632
622
604
583
566
544
526
505
488
467
449
433
417
401
383
369
357
343
331
317
305
289
273
253
237
229
230
259
313
395
483
574
646
700
734
754
757
758
754
752
742
742
742
738
726
710
690
668
652
646
640
638
638
638
638
634
624
616
602
580
559
538
515
491
465
444
423
401
380
361
341
319
301
281
261
242
221
199
178
156
135
124
132
182
249
333
423
505
562
606
632
646
648
643
638
632
627
622
612
602
582
560
539
534
512
509
509
520
534
542
550
552
554
551
540
530
519
508
493
480
472
461
451
443
437
427
413
397
385
367
349
334
329
337
377
441
526
610
688
750
797
821
834
837
832
826
820
814
810
804
793
774
753
729
706
685
671
662
660
655
650
639
623
602
584
563
542
520
499
477
456
435
417
401
385
369
353
339
325
305
286
269
257
257
281
338
419
514
603
680
742
782
812
822
826
826
826
821
818
822
824
826
818
801
780
758
741
725
710
700
692
686
679
668
662
650
634
618
596
578
558
538
519
501
487
473
461
447
433
417
407
391
373
359
348
353
380
433
509
590
662
726
772
801
810
818
816
814
814
812
810
812
814
806
794
776
754
742
724
698
686
675
670
660
652
638
620
602
582
564
543
522
500
479
461
441
423
405
389
373
361
345
331
317
301
287
273
253
237
221
213
226
265
341
429
518
599
666
710
737
748
750
752
746
742
741
738
734
733
725
706
685
663
642
635
630
634
635
640
642
635
624
614
598
582
562
540
519
497
477
461
441
424
403
381
365
349
333
313
297
285
273
257
241
225
211
201
221
263
337
429
523
602
668
714
746
752
754
750
745
737
734
734
732
730
718
700
678
656
635
626
618
620
622
627
632
630
619
608
594
580
559
538
516
497
481
464
445
429
409
393
377
363
349
333
318
305
289
277
261
245
237
245
285
355
440
526
606
672
722
746
760
766
761
756
750
746
744
738
733
722
706
685
674
650
636
631
630
623
618
618
611
600
590
572
551
530
504
480
453
427
403
377
357
338
317
295
277
261
239
218
201
179
158
132
110
99
104
146
213
297
381
459
526
566
595
606
608
603
598
591
583
574
567
556
538
516
495
481
477
480
489
505
522
534
539
547
550
543
530
518
505
492
477
461
448
437
424
416
405
400
392
381
375
359
341
327
325
353
408
485
578
667
742
802
842
869
879
881
876
875
871
868
863
864
867
859
842
824
802
781
762
750
740
732
726
720
709
694
674
655
634
606
576
546
526
507
489
469
451
437
425
409
389
373
360
345
326
321
333
379
453
538
623
701
770
806
833
846
848
845
838
834
834
834
830
828
822
801
780
758
733
714
702
688
679
670
663
652
638
616
595
578
556
535
514
492
471
453
433
417
401
381
365
345
329
313
297
281
265
249
229
210
197
186
202
241
318
409
505
594
666
718
753
764
766
769
764
754
749
746
746
744
733
722
705
684
662
655
650
650
651
654
654
648
640
630
616
598
582
562
543
526
505
487
473
456
437
417
401
385
369
353
334
317
302
289
273
255
237
221
215
223
265
338
427
518
600
670
722
752
765
774
769
764
758
750
748
742
737
729
714
693
674
662
652
650
646
642
644
646
643
635
626
614
598
578
558
539
518
496
475
453
437
419
401
381
365
353
337
321
305
289
273
257
241
227
221
231
277
353
440
531
618
679
728
758
768
773
770
761
756
746
736
730
726
716
702
686
678
654
646
640
635
634
634
634
634
623
612
598
580
562
542
520
501
481
461
445
425
405
389
369
352
335
321
309
290
273
253
237
225
221
247
297
380
471
562
643
705
746
772
780
782
780
772
762
757
752
746
736
722
706
684
662
650
644
642
638
638
638
638
635
624
614
596
578
558
540
519
497
476
455
437
420
401
385
368
352
341
321
305
289
270
257
253
274
325
397
489
580
662
721
764
786
798
801
798
788
780
770
761
756
746
733
712
690
667
640
614
608
603
598
596
591
586
574
558
538
515
491
469
447
423
397
372
348
325
307
289
269
247
226
205
183
156
136
126
142
181
257
339
425
497
556
598
623
631
634
627
616
606
594
580
566
548
524
497
481
468
461
469
483
497
516
527
534
540
535
526
515
504
489
477
461
445
435
421
413
403
392
381
364
345
329
326
339
385
460
554
650
734
804
863
893
912
919
919
913
911
907
904
903
896
888
879
861
840
822
806
790
778
772
761
750
744
730
710
689
662
634
603
576
550
522
495
469
448
427
405
389
373
357
341
333
341
385
447
530
612
690
750
798
825
842
846
846
842
841
838
838
834
834
826
814
798
778
757
736
718
700
689
682
675
662
650
634
615
590
568
547
526
504
483
461
444
425
409
393
375
357
337
321
309
299
318
361
437
520
606
678
737
778
804
812
814
813
808
802
801
798
798
792
781
766
744
717
694
672
656
642
636
628
622
612
604
594
578
559
534
516
495
469
449
431
409
392
373
353
337
321
305
289
273
257
235
214
193
185
190
213
285
373
465
554
634
690
728
746
750
754
754
750
745
742
738
733
728
718
697
675
670
643
638
634
634
639
646
650
647
638
622
606
586
564
543
522
500
479
457
432
411
389
373
357
341
322
309
297
285
269
249
231
213
197
189
199
241
311
403
497
586
658
718
745
764
774
774
772
770
766
764
762
750
737
722
700
675
654
638
635
634
636
644
650
650
647
638
626
607
590
572
551
530
508
487
469
448
427
409
389
373
357
341
325
305
289
270
257
255
274
329
403
491
582
660
722
766
786
797
802
797
789
778
774
772
762
756
742
722
712
676
662
648
643
642
638
638
634
631
618
602
587
574
554
532
508
485
464
443
425
405
387
369
353
337
325
303
285
269
254
243
249
285
352
433
519
596
666
706
733
746
746
741
730
720
709
698
688
679
670
652
631
606
588
580
578
578
578
578
578
572
562
550
531
514
491
464
441
417
391
369
347
322
301
279
258
237
215
194
168
152
136
128
152
209
289
379
464
542
599
639
662
667
670
666
651
640
630
612
591
562
539
515
501
500
503
514
524
535
546
551
551
542
530
516
501
487
476
461
447
436
421
405
389
369
349
330
313
291
273
257
259
289
345
439
543
638
726
790
838
868
881
887
885
880
875
875
872
871
875
869
859
842
826
810
801
774
766
757
752
746
740
726
706
689
667
646
619
595
578
560
542
526
509
496
481
461
445
429
412
404
417
459
520
594
674
746
802
842
869
879
883
880
879
873
871
871
869
867
859
846
830
810
793
774
754
744
733
726
716
705
694
676
655
630
603
576
550
523
493
465
440
421
401
384
365
345
329
313
301
299
318
373
451
539
626
705
764
802
821
826
830
821
816
810
806
804
798
793
782
762
741
714
690
674
658
646
635
627
618
611
600
586
568
547
526
504
480
453
432
411
393
373
355
333
315
294
273
251
230
213
214
233
289
368
459
550
627
689
738
758
766
770
765
757
750
746
744
738
728
717
698
678
659
646
638
638
638
634
634
630
624
616
602
582
563
542
516
492
469
448
427
409
389
371
353
338
325
309
293
282
277
302
353
425
512
603
678
737
777
802
806
804
798
793
788
782
778
776
766
754
736
710
684
659
642
628
626
622
618
615
610
598
584
570
550
531
509
484
465
445
428
407
385
375
361
345
329
310
297
285
290
317
384
464
546
628
698
746
777
788
790
788
777
766
760
749
738
726
710
690
675
630
598
570
551
542
532
530
526
516
508
497
480
459
437
415
388
361
338
314
293
267
243
221
199
178
152
131
110
100
111
156
225
306
384
457
505
546
566
571
571
566
559
546
534
522
503
477
455
431
409
397
400
413
429
443
457
457
457
453
441
425
413
399
385
365
353
343
333
321
307
297
282
269
249
241
251
285
364
463
570
671
757
814
857
879
887
889
887
883
881
879
875
873
865
846
829
808
782
761
740
722
708
697
690
679
668
658
636
615
590
563
539
514
489
471
449
433
417
397
384
363
349
341
347
381
441
524
610
680
745
794
818
832
838
838
836
834
830
828
826
825
817
802
781
760
738
717
698
686
674
663
658
646
627
610
587
563
542
520
496
473
456
435
417
401
385
373
357
341
321
305
297
301
343
407
489
578
658
726
770
794
810
812
814
810
809
804
802
797
792
782
761
740
714
692
667
646
628
620
610
606
603
594
582
566
550
528
507
485
464
440
417
400
379
361
341
325
309
294
278
257
241
225
205
198
203
237
305
391
481
568
635
690
721
737
742
737
732
726
718
716
714
708
694
678
662
643
622
608
603
602
603
608
610
611
600
590
578
559
538
516
492
469
448
427
405
384
363
345
325
306
293
275
257
241
223
205
189
170
159
164
195
259
345
437
528
614
662
697
714
720
720
714
704
696
690
685
679
670
654
635
618
603
592
590
590
590
598
599
602
602
595
584
566
544
523
497
472
451
425
399
375
353
327
306
285
263
242
221
199
178
152
131
107
96
103
140
209
301
392
477
540
591
622
638
640
634
627
616
606
595
584
574
556
532
509
491
483
477
476
487
497
509
523
530
532
527
518
507
496
481
469
456
441
427
413
405
395
387
377
360
341
325
305
289
281
295
341
413
500
591
678
736
781
810
828
830
826
817
812
802
790
777
766
749
728
706
696
666
654
646
643
634
632
627
618
606
590
570
548
530
509
488
467
449
428
407
389
371
357
337
319
298
277
261
250
253
293
363
449
546
636
718
776
816
838
844
846
846
837
832
830
830
830
826
814
796
778
758
740
722
708
700
694
684
675
666
654
638
622
604
583
562
544
523
501
489
471
453
437
421
405
389
373
353
341
335
353
409
479
558
640
713
770
806
830
842
842
840
834
833
828
826
822
822
814
797
776
758
750
726
714
701
696
690
679
666
650
632
611
586
566
547
526
504
485
465
449
433
417
401
385
369
349
333
317
295
282
273
291
337
409
495
583
662
728
773
798
813
818
814
805
802
798
790
790
786
774
756
734
713
692
674
655
644
638
634
634
630
619
608
594
572
551
530
508
487
465
448
427
405
389
371
353
333
317
305
287
266
245
229
215
201
218
263
337
428
519
606
674
725
758
765
770
770
760
749
742
738
736
726
714
698
678
656
640
634
630
630
630
630
630
626
619
608
594
574
555
534
512
491
469
452
431
413
393
375
357
338
325
305
289
270
249
237
218
205
203
225
281
361
455
550
634
698
746
766
774
778
769
761
750
744
736
730
720
704
686
664
638
626
618
615
614
618
618
618
607
596
586
568
547
526
500
479
453
431
407
381
359
331
309
283
265
245
223
202
181
159
138
112
95
92
116
175
258
357
443
520
582
620
647
658
659
651
642
626
615
606
594
575
554
528
507
489
481
479
485
497
511
522
527
535
534
527
516
505
489
476
465
455
444
433
424
416
409
396
377
361
345
326
309
291
289
317
372
449
538
623
696
750
785
806
814
813
808
798
788
777
762
750
732
710
688
660
638
623
612
606
602
602
602
595
584
570
550
531
509
488
467
441
420
399
377
357
341
325
307
289
269
251
233
217
207
210
249
315
407
509
604
688
762
798
825
838
844
844
842
842
840
838
838
836
826
814
796
778
762
746
730
720
712
702
701
698
694
684
670
654
632
614
594
576
558
542
522
505
489
471
457
441
424
405
389
379
376
397
451
526
610
689
761
818
855
873
883
883
883
879
871
868
867
863
857
846
830
812
794
773
752
742
732
724
718
708
697
682
660
639
614
587
558
530
504
480
449
429
413
393
373
355
341
323
302
281
263
247
237
254
299
373
464
555
638
705
753
786
797
802
798
793
785
778
773
768
762
750
734
714
693
671
654
644
636
634
634
634
630
619
608
594
576
555
534
512
491
469
452
431
409
389
371
353
338
325
305
283
265
245
233
225
237
286
361
449
544
630
698
745
772
786
788
788
778
769
764
758
753
745
734
717
696
674
663
650
642
634
634
634
628
623
618
607
594
574
554
535
514
488
469
449
429
411
389
369
353
333
321
305
281
271
245
229
214
211
241
302
388
481
575
652
718
754
778
790
789
781
774
768
760
754
748
737
722
705
680
658
646
643
638
634
631
630
628
623
614
598
579
558
540
519
497
471
447
421
400
379
353
331
310
289
263
242
217
194
170
144
127
119
140
193
278
377
469
552
618
658
685
694
697
692
682
676
668
658
651
640
622
600
590
562
547
539
538
544
552
562
567
570
574
567
556
546
530
516
501
488
467
449
433
415
401
389
373
361
345
331
317
298
290
297
333
403
485
571
651
726
768
797
810
814
806
798
786
770
758
742
724
702
679
655
638
620
612
610
606
606
598
592
584
570
552
531
514
492
471
449
424
405
385
365
347
329
309
293
273
255
237
217
201
190
193
225
297
397
499
598
686
754
802
834
849
855
850
845
840
834
830
828
822
816
802
786
765
744
726
712
701
694
689
686
686
680
672
658
642
623
602
584
566
546
526
507
489
477
461
445
429
413
397
381
368
353
357
381
437
515
598
678
746
800
838
850
859
863
861
853
846
841
836
834
828
817
802
782
764
742
724
710
698
693
685
674
663
647
626
604
580
558
532
508
485
464
443
425
404
383
365
345
329
313
295
277
261
245
226
209
190
179
189
229
303
397
499
590
666
725
762
778
786
786
778
773
768
758
753
748
738
722
704
682
670
654
642
639
642
646
646
646
638
627
616
606
584
566
546
524
503
485
464
443
421
405
389
369
348
331
317
297
281
265
250
237
221
203
185
164
160
174
221
299
396
493
586
658
714
750
769
778
777
772
762
753
745
738
732
721
706
685
674
650
640
635
634
640
648
654
656
651
642
626
610
594
572
551
530
512
491
469
449
431
413
393
375
361
345
329
309
291
275
261
241
222
205
194
205
249
322
416
518
603
678
730
768
786
790
793
788
778
768
760
750
740
729
714
704
671
654
644
639
642
640
638
638
638
632
622
608
587
566
544
523
501
479
452
425
404
380
357
335
314
293
270
246
229
207
186
164
143
124
104
108
146
213
309
405
493
571
622
658
678
689
690
685
676
670
659
646
634
620
599
578
558
547
538
539
547
558
572
583
590
594
596
590
583
572
558
546
530
518
504
485
465
448
429
413
397
381
365
349
333
313
298
293
305
363
440
530
623
709
774
822
852
871
875
872
867
857
852
842
833
828
814
797
776
770
734
716
702
693
685
678
672
664
654
636
618
602
580
559
538
518
499
477
460
441
421
405
389
373
353
337
317
299
281
269
266
293
353
441
538
630
714
776
822
848
861
867
865
857
850
841
833
830
824
813
798
786
762
734
714
701
690
680
675
674
667
656
646
634
618
598
576
555
534
512
493
473
456
440
425
405
392
377
357
341
321
306
303
321
383
460
546
634
714
774
817
838
850
855
852
846
841
833
826
817
809
798
786
768
762
726
708
690
679
668
662
655
644
634
616
598
578
556
535
514
492
471
449
432
411
389
377
361
345
323
302
285
267
251
241
254
297
369
460
554
642
714
762
794
809
817
810
805
800
794
785
777
770
760
746
726
702
675
654
644
639
634
638
638
638
632
622
602
590
571
554
532
511
489
468
449
429
413
400
385
365
349
333
317
301
281
271
274
297
364
447
538
622
702
758
796
814
822
825
820
810
801
793
786
776
765
746
734
710
674
652
634
622
612
612
614
612
607
598
586
572
558
536
515
493
473
455
433
417
401
381
365
349
333
325
298
281
266
258
269
319
392
477
562
636
694
738
754
762
760
749
734
722
709
694
682
666
650
628
604
598
566
552
542
540
538
534
530
527
518
504
485
465
443
419
393
371
344
321
295
274
253
230
209
189
166
142
124
108
116
152
217
302
401
484
551
602
635
654
658
655
642
626
610
594
574
550
518
485
476
452
449
452
465
481
492
503
509
508
500
489
479
465
449
437
424
413
399
388
377
367
353
337
315
297
277
267
275
313
384
480
582
679
760
826
864
888
903
904
907
903
893
888
883
879
873
859
845
824
802
782
764
754
745
740
730
724
713
702
682
663
642
616
592
570
548
530
509
497
481
465
445
437
417
403
400
417
472
542
622
705
774
830
848
893
907
911
908
899
899
899
895
893
885
875
861
840
818
801
780
762
752
741
730
721
713
694
676
655
630
603
576
550
527
497
473
447
420
397
377
353
329
314
309
321
347
432
509
588
655
670
736
752
762
761
753
746
737
732
722
712
701
690
668
658
614
586
570
558
552
547
546
532
524
514
496
475
453
428
404
377
351
326
301
279
258
237
215
194
173
147
128
124
122
159
221
299
377
445
496
531
550
554
551
542
530
514
501
496
480
461
440
413
405
355
330
313
302
297
289
285
285
277
269
253
229
207
186
160
146
103
80
55
31
24
3
0
0
0
0
0
0
0
0
0
0
0
7
50
108
132
197
213
221
215
213
193
174
156
140
132
96
66
39
16
8
3
0
0
3
8
8
6
4
0
0
0
0
0
0
0
0
0
0
0
0
0
0
0
0
0
0
0
0
0
0
3
4
86
142
181
199
205
217
213
210
209
205
205
205
203
198
181
173
151
140
135
130
128
138
140
144
144
144
132
120
104
88
76
60
40
24
11
4
3
0
0
0
0
0
0
0
4
30
64
189
261
317
361
381
395
409
409
415
421
424
432
437
441
444
445
435
424
409
400
397
389
396
404
405
405
405
409
400
392
381
376
360
349
334
323
321
298
290
285
274
269
249
234
229
245
273
329
413
495
562
610
624
664
678
682
685
686
700
702
706
705
702
694
686
667
646
638
627
614
608
606
610
610
607
598
583
570
566
538
519
497
476
465
433
416
397
381
369
353
329
309
290
273
267
254
269
319
397
417
555
616
658
685
690
698
697
692
682
678
675
674
672
667
654
643
611
594
579
571
570
571
574
578
576
574
566
555
542
522
505
484
457
433
401
369
356
318
297
282
269
265
226
202
177
154
140
100
98
132
193
245
317
401
444
481
505
511
522
514
501
488
485
471
460
449
436
425
397
383
372
365
361
364
373
383
385
389
389
387
377
367
353
349
325
309
293
282
277
257
246
235
225
217
203
185
170
159
156
174
241
321
407
484
501
600
632
646
651
654
646
640
635
630
626
618
606
590
571
558
555
550
554
564
575
578
596
602
602
591
586
570
558
542
530
518
499
477
461
445
429
423
399
377
356
337
333
311
319
365
444
489
630
717
784
834
859
875
887
888
888
883
883
885
895
899
893
891
872
859
842
833
830
822
818
816
814
810
800
786
770
752
730
720
685
662
636
615
610
578
559
542
522
514
489
475
464
461
489
546
626
701
773
834
855
908
927
936
941
943
952
955
955
960
963
971
969
961
951
939
928
919
917
915
911
909
904
895
880
867
863
826
808
786
764
750
718
697
675
654
642
623
602
582
563
542
530
497
493
500
535
590
721
790
846
888
907
939
947
949
951
951
956
963
968
971
971
968
957
939
928
917
915
901
899
895
893
891
875
864
850
830
818
797
766
744
720
698
688
655
634
612
591
586
550
531
509
488
477
445
428
409
397
401
439
501
576
648
714
740
809
834
842
845
846
841
838
834
836
838
838
832
821
806
790
766
742
730
717
710
706
696
678
662
643
638
600
574
546
519
505
465
440
419
397
381
360
333
311
290
273
262
230
209
187
166
160
140
154
197
262
297
409
475
526
562
578
586
586
584
576
566
562
548
534
512
491
485
459
453
457
468
473
493
504
515
518
518
512
501
491
480
465
460
444
433
423
412
409
396
388
381
371
365
337
319
301
289
289
318
373
459
544
630
663
757
798
824
837
838
848
850
850
852
855
859
861
856
846
834
821
806
804
798
794
793
790
786
781
770
766
733
712
690
668
658
622
602
586
570
562
548
534
514
500
485
477
456
453
475
520
534
658
736
802
853
875
915
929
937
939
943
948
955
956
959
963
961
956
943
927
913
911
892
887
883
877
875
863
850
834
814
802
781
750
724
700
678
667
635
614
596
575
570
532
508
481
463
457
453
487
543
610
662
729
802
842
869
883
885
893
895
896
901
903
908
911
911
899
891
863
846
830
814
806
798
790
780
769
758
750
724
702
680
656
650
603
579
554
531
518
485
464
443
421
405
389
369
353
334
321
318
321
357
416
493
514
647
706
746
774
782
794
794
794
794
794
797
798
798
793
778
770
746
726
709
693
690
671
663
658
651
646
634
622
606
586
574
552
530
508
487
465
457
433
413
397
381
377
355
338
321
301
293
261
246
241
253
285
349
437
511
578
626
639
674
678
682
676
674
664
659
654
652
650
634
612
588
566
554
543
530
535
538
542
544
550
546
539
523
518
479
455
433
411
397
365
339
321
301
285
266
245
225
206
185
174
144
124
116
122
124
214
291
377
459
493
570
599
615
618
618
610
598
588
580
566
556
527
501
480
467
465
472
483
497
508
514
522
523
515
505
497
484
465
453
440
425
419
400
389
379
368
365
347
330
309
289
281
261
255
279
333
397
493
614
698
770
818
830
863
871
875
877
879
879
881
887
885
883
867
845
826
806
798
788
774
765
762
758
754
738
722
701
679
674
631
604
578
567
546
526
511
497
481
469
456
437
417
404
397
408
453
514
590
664
682
786
826
855
868
871
875
876
881
883
883
885
887
884
871
855
846
822
818
792
781
778
765
760
750
738
730
702
680
656
634
614
587
554
527
503
481
471
441
425
409
393
389
361
345
329
315
313
353
412
489
574
630
697
766
797
816
822
824
826
826
826
826
826
829
821
810
794
786
758
737
721
710
702
694
686
675
664
650
643
622
602
580
559
554
522
503
485
465
457
433
417
401
385
377
364
345
329
310
293
286
267
273
306
371
389
535
615
682
730
746
774
782
785
782
778
776
770
770
770
762
756
732
710
689
670
666
652
650
646
644
642
634
623
612
598
586
567
542
522
503
481
472
445
425
408
389
385
357
341
325
310
305
289
271
253
237
225
217
213
249
305
385
428
556
630
685
720
726
744
746
742
741
738
734
730
728
722
710
689
662
636
620
610
607
602
602
606
606
606
586
570
550
528
518
485
464
440
417
397
373
345
323
313
281
271
245
229
211
193
189
160
142
120
99
88
68
74
106
164
225
313
417
465
492
558
563
576
578
571
560
558
539
528
509
488
477
437
431
415
413
429
443
457
468
476
481
479
468
457
443
432
429
407
396
385
375
369
357
348
343
333
325
314
301
291
283
273
267
251
257
299
369
389
550
640
714
740
790
834
846
849
850
846
846
846
845
842
838
833
812
790
773
757
754
740
734
730
729
726
714
701
679
658
646
630
610
590
571
554
546
524
509
497
484
477
453
440
425
405
397
389
405
448
509
570
650
746
802
845
871
877
893
895
895
895
895
895
895
895
892
887
867
845
834
806
794
781
766
761
758
746
740
718
698
676
655
650
607
580
554
531
518
485
464
445
425
417
404
385
369
351
333
329
326
357
413
485
505
644
712
762
796
806
818
822
822
822
818
813
810
810
810
798
792
768
746
730
714
706
684
672
666
655
650
630
615
602
582
566
547
522
500
479
461
452
425
405
388
369
365
337
321
305
297
281
253
235
217
205
205
234
297
383
471
558
594
693
730
753
761
762
761
756
750
749
746
742
736
725
710
694
675
658
648
646
646
647
650
650
646
638
634
611
595
574
552
542
509
488
469
449
437
416
393
373
355
333
325
301
285
270
257
253
225
209
193
175
173
189
239
317
409
481
564
658
704
736
750
750
748
742
736
728
726
717
709
698
680
670
638
623
615
610
606
606
610
615
615
606
599
578
558
536
515
509
467
443
421
399
385
349
331
310
305
273
254
229
207
186
168
158
126
104
83
62
56
58
100
173
258
301
425
491
536
566
574
579
578
567
556
546
539
520
501
480
456
449
423
417
417
429
437
457
472
483
485
485
480
469
457
444
433
427
408
397
387
376
373
359
348
341
331
329
313
302
294
285
277
274
289
335
408
497
543
676
746
790
825
842
864
867
863
857
855
846
841
836
826
814
798
778
769
740
726
721
708
706
701
693
690
664
643
626
610
602
570
552
534
514
501
485
465
449
441
413
405
381
365
348
331
329
339
380
449
535
578
698
764
812
846
859
867
875
873
871
867
865
863
863
857
846
842
809
785
762
744
738
722
713
708
706
694
680
662
640
619
598
588
562
542
520
501
497
473
457
441
429
421
401
384
365
349
345
356
393
465
548
630
667
772
818
844
857
859
863
860
855
852
846
846
844
833
822
810
789
766
757
730
718
714
701
698
688
676
674
644
623
602
570
554
514
492
473
453
441
425
405
389
376
365
360
344
333
325
311
305
287
293
321
380
417
542
620
688
742
766
785
798
798
796
790
785
769
766
764
753
750
725
714
682
660
650
634
626
623
622
622
619
614
598
590
562
551
519
497
476
457
453
420
399
381
365
357
329
313
297
281
269
255
237
217
198
185
185
195
241
318
409
433
588
658
706
730
738
750
744
736
734
722
714
702
696
682
662
654
630
614
603
595
594
594
594
598
591
586
570
552
531
509
493
469
437
415
391
365
355
322
301
275
254
249
211
190
168
158
136
100
75
59
56
76
140
237
330
416
489
514
578
598
606
603
602
587
576
562
547
542
514
492
476
465
461
461
465
477
493
505
509
518
518
514
503
497
475
461
445
433
425
409
399
391
381
373
365
357
345
331
321
313
289
285
306
363
381
542
638
722
792
818
871
889
897
899
895
889
883
881
879
875
871
855
834
817
798
794
766
753
746
741
738
730
718
702
686
670
646
618
591
567
550
540
514
497
483
469
465
441
425
409
393
385
369
371
400
409
476
554
698
765
816
850
860
884
887
883
880
879
875
875
871
869
867
846
825
806
802
778
762
742
733
728
718
714
701
686
664
643
638
591
567
542
530
505
473
456
437
421
413
400
381
369
351
333
326
307
317
353
415
433
583
663
730
780
798
826
834
832
826
818
813
806
805
800
790
784
762
742
726
700
686
659
648
638
631
626
610
599
586
570
558
536
514
492
471
453
444
415
393
376
357
353
321
307
293
277
269
245
233
217
201
201
227
277
363
405
542
576
672
714
733
741
742
736
725
718
717
714
706
700
686
670
654
632
610
599
594
590
590
590
590
587
576
574
548
527
505
484
473
437
412
391
385
349
327
297
275
254
233
222
190
168
151
130
124
102
107
144
213
253
385
463
527
578
602
615
626
619
608
594
587
568
554
536
515
509
468
455
449
451
453
473
491
507
518
522
519
514
501
483
469
463
444
433
419
411
409
395
387
381
379
373
357
341
325
313
309
327
373
449
532
618
651
745
786
810
824
830
838
838
834
834
834
830
828
817
802
786
765
754
718
700
690
688
679
674
663
650
646
623
607
590
570
562
538
520
501
497
473
460
441
425
417
393
384
357
345
345
380
397
523
566
690
724
790
850
869
877
879
883
880
875
873
871
871
868
860
846
825
804
798
762
749
730
726
718
710
700
686
682
654
643
598
571
558
522
511
481
461
445
429
425
403
389
369
361
345
329
330
360
369
469
552
654
717
746
798
805
821
822
818
816
814
810
810
810
806
798
774
764
734
730
702
686
670
664
654
642
635
614
594
582
563
554
516
495
473
453
445
417
396
377
361
349
333
313
297
289
265
255
237
209
201
203
205
299
383
473
518
606
698
730
746
754
766
761
758
745
742
738
736
728
718
702
680
670
639
634
630
630
630
630
630
627
626
610
596
574
552
542
509
499
469
449
444
415
405
373
365
341
333
317
293
279
261
257
233
217
209
182
177
177
199
282
369
437
523
566
672
708
726
729
734
722
717
704
702
690
682
678
652
642
606
598
576
574
562
559
558
563
566
570
566
558
534
512
491
485
449
425
413
367
353
317
306
274
253
237
215
205
173
154
136
127
108
76
51
32
28
24
67
140
185
273
401
432
518
550
562
567
570
559
548
538
531
518
489
484
447
433
409
404
405
420
425
445
451
467
469
465
457
453
435
424
413
408
397
381
373
363
357
341
330
317
307
305
293
286
267
257
249
254
257
353
447
550
598
694
810
860
892
899
919
921
919
917
915
907
907
907
903
895
879
871
855
838
810
805
794
782
776
768
766
750
734
710
689
678
642
628
588
566
546
527
518
491
477
461
453
437
417
400
381
377
365
384
425
493
534
654
689
758
798
850
864
871
879
879
875
872
867
867
864
856
855
834
816
794
786
770
754
741
730
722
718
705
698
674
652
622
610
586
546
519
495
489
473
455
437
416
397
381
361
345
321
309
290
281
253
245
237
251
281
389
481
572
594
702
750
794
804
806
806
802
794
782
778
776
774
766
753
730
720
698
670
658
655
650
646
648
650
639
634
618
610
594
562
550
531
522
489
481
453
443
421
405
380
361
357
329
313
305
281
273
249
241
225
201
198
214
225
321
364
457
571
654
738
746
770
782
786
781
770
768
760
754
746
733
730
706
696
678
664
656
654
650
650
650
648
640
638
626
610
598
580
559
522
516
495
477
449
439
417
397
379
357
341
325
293
286
273
261
241
222
209
189
173
173
213
279
365
460
548
626
710
726
746
753
750
742
730
712
706
696
685
674
652
631
606
583
570
562
560
558
562
570
572
566
559
546
530
509
491
469
443
419
397
372
351
329
302
278
257
235
214
193
173
154
132
115
94
72
52
34
20
34
76
152
246
345
433
501
552
586
600
606
606
596
588
578
560
539
518
491
461
433
424
421
429
440
453
469
480
485
489
488
480
469
456
448
437
423
412
397
391
380
365
355
344
333
322
311
301
290
279
265
261
269
309
376
472
578
678
766
846
893
925
943
952
955
951
947
944
939
933
931
927
916
900
883
863
846
826
816
808
798
793
788
778
766
750
730
709
685
662
635
611
586
563
539
514
495
481
469
453
437
417
405
392
381
389
424
485
563
646
722
790
838
871
889
900
907
899
896
891
887
884
879
873
865
850
834
816
794
773
757
746
736
728
722
712
701
686
664
640
618
591
564
534
511
484
457
437
419
401
384
365
349
331
315
301
281
262
245
231
229
249
302
383
481
571
651
718
766
796
806
814
812
802
796
788
782
777
769
758
746
728
702
680
664
650
644
642
642
642
639
634
627
616
598
580
559
538
518
499
477
457
439
417
400
381
361
345
329
313
297
281
269
253
237
221
205
197
209
255
327
417
515
600
674
729
766
790
796
796
790
780
769
762
752
741
730
714
698
682
663
655
646
638
635
634
634
634
630
623
612
598
582
563
542
520
499
477
455
431
413
392
371
349
327
306
285
263
245
225
207
186
164
143
122
100
86
83
108
177
267
369
468
551
614
660
685
694
698
693
682
671
660
646
635
622
602
580
559
538
523
518
514
519
527
538
551
556
558
560
555
546
535
524
509
495
481
469
459
448
433
417
404
389
377
364
349
330
317
301
283
267
253
262
299
365
452
546
626
693
744
778
800
810
806
800
789
774
760
749
730
709
688
662
640
619
606
596
596
602
606
608
610
599
588
574
556
535
514
493
475
453
436
417
397
377
359
341
321
302
289
271
253
233
215
202
193
215
269
353
460
564
658
736
794
838
860
871
875
873
865
859
853
848
842
836
825
814
793
772
750
732
718
710
705
700
690
689
684
678
666
650
634
616
598
578
560
542
526
505
489
473
453
437
425
409
393
373
361
345
333
323
326
365
425
508
598
682
752
806
841
865
875
879
876
867
861
856
846
840
832
822
806
788
766
745
726
710
700
692
686
680
672
658
642
623
602
584
563
542
524
503
481
460
439
425
408
389
369
353
339
325
305
291
277
261
245
229
214
209
221
277
352
445
543
628
694
745
780
798
802
800
794
785
777
766
757
749
738
721
700
674
662
646
634
628
623
622
626
626
622
611
600
590
568
547
530
508
487
465
444
425
405
384
363
345
323
302
285
267
249
229
211
193
173
152
134
116
102
112
156
235
331
437
520
587
638
670
686
690
689
680
670
659
648
638
626
610
590
571
558
542
531
523
522
527
535
542
551
556
558
552
547
538
522
508
497
484
463
445
425
409
389
372
353
337
325
309
293
273
257
241
226
218
225
271
344
433
527
607
674
726
756
770
778
773
762
750
734
718
698
682
658
631
604
582
571
566
570
579
584
590
590
587
578
566
550
530
512
491
473
452
431
409
392
371
349
331
313
297
277
258
241
219
201
185
177
193
233
326
433
546
647
733
794
842
869
883
888
888
883
873
868
863
857
852
842
830
814
794
774
758
742
733
725
722
717
712
706
696
685
670
654
635
618
602
586
570
554
538
518
505
489
473
455
441
425
408
389
369
367
385
429
507
595
682
761
817
863
888
901
911
909
904
899
889
881
875
868
857
846
829
808
786
765
746
734
725
720
710
704
693
678
660
639
618
591
562
538
512
488
457
436
417
401
380
359
341
321
305
285
269
253
237
221
205
189
182
195
249
329
428
530
619
689
742
777
796
802
801
793
782
772
761
750
744
733
714
694
678
666
655
647
642
639
642
642
642
639
630
615
604
586
568
547
522
501
483
465
444
423
401
385
369
349
327
309
293
277
258
241
226
213
197
181
167
152
173
221
297
403
507
598
674
730
770
790
798
798
796
785
774
761
756
746
734
716
694
672
651
638
628
626
630
636
644
646
643
635
626
610
591
574
552
531
509
484
463
441
419
395
373
352
330
309
287
269
249
227
206
185
163
142
128
127
159
225
318
417
514
587
646
686
706
720
722
716
705
694
682
668
658
644
623
602
578
562
550
542
539
546
558
571
578
587
595
594
587
579
574
552
534
518
497
479
461
444
425
409
393
377
361
349
333
313
294
281
277
291
343
417
511
599
678
740
788
814
830
833
830
820
809
794
784
770
754
737
716
694
668
650
630
623
618
614
612
610
610
599
588
574
552
534
514
493
475
453
433
415
397
376
357
337
321
305
289
267
246
229
218
231
277
353
455
562
651
732
794
834
864
875
883
880
875
868
860
855
849
841
830
814
796
774
749
730
710
704
693
686
685
676
670
663
650
634
618
602
582
562
543
526
505
487
465
449
433
417
405
387
369
353
334
321
310
326
369
447
535
622
704
770
822
857
871
879
881
876
867
860
852
846
840
826
814
797
776
754
733
717
702
692
684
678
668
660
646
628
607
582
564
543
522
501
483
461
444
423
401
384
363
345
329
310
289
270
254
233
217
206
205
249
315
405
504
598
674
733
773
798
808
808
802
793
785
774
761
756
746
732
716
694
678
659
646
636
631
630
630
630
630
623
612
602
582
563
546
524
503
481
460
441
421
404
383
365
349
330
313
295
277
261
243
225
209
201
209
253
327
421
522
611
686
746
778
800
810
810
805
794
780
769
758
742
729
714
694
675
654
631
620
610
606
603
602
600
592
582
570
551
530
508
484
461
435
411
385
363
338
313
287
266
245
223
199
177
159
138
116
94
70
52
40
54
96
185
283
385
469
542
586
616
630
634
631
618
602
590
571
550
528
504
477
452
436
433
432
443
453
473
492
505
514
516
514
507
496
481
469
456
441
429
413
401
391
377
365
355
344
333
321
307
293
275
273
293
348
433
538
635
729
802
861
901
919
931
931
927
920
909
899
889
881
871
859
842
822
801
780
758
748
737
730
729
721
710
700
684
662
639
612
586
563
536
514
492
473
453
436
417
397
381
365
349
329
310
297
290
306
353
431
522
618
701
770
822
859
875
883
887
881
871
864
856
850
841
833
822
809
788
766
740
721
710
701
693
686
676
668
658
642
626
610
588
567
550
528
504
485
464
443
421
404
385
369
349
333
317
297
281
265
257
273
317
399
489
586
672
745
794
824
840
846
848
837
826
817
809
802
792
781
766
749
728
698
678
659
646
636
628
626
624
619
614
598
584
570
548
527
505
485
467
445
424
403
381
364
343
325
305
289
277
261
245
225
209
201
201
243
313
401
500
591
670
730
770
798
804
806
798
788
777
766
756
745
734
718
700
682
666
647
634
622
619
618
618
618
614
608
600
586
566
547
530
508
489
469
448
427
405
385
367
345
325
309
289
271
253
233
221
205
189
168
150
140
148
191
265
368
469
566
647
712
750
777
788
790
784
773
758
748
737
722
706
690
670
650
634
622
611
606
606
615
623
630
624
619
610
592
571
550
528
507
485
463
436
413
392
368
345
318
294
273
251
230
209
187
166
144
123
104
88
104
155
241
347
448
538
607
655
690
710
718
714
702
689
674
659
646
630
608
587
558
542
526
514
512
515
526
540
551
562
567
570
570
559
548
538
523
512
493
476
455
433
417
399
381
365
347
333
315
294
273
261
255
273
339
425
522
618
696
762
808
837
855
855
849
838
822
806
794
777
758
738
714
685
654
634
618
610
602
599
602
606
600
590
578
559
542
520
499
477
460
439
417
396
377
361
339
318
301
281
265
249
227
214
205
239
303
397
504
611
702
773
826
863
879
887
891
885
877
867
857
852
846
840
826
806
789
768
746
726
710
702
697
692
686
679
671
666
650
634
618
598
582
562
540
522
501
489
471
453
433
417
401
384
365
353
356
388
449
535
623
706
780
830
867
891
901
903
897
892
887
877
869
863
852
838
822
805
784
758
738
725
714
705
700
690
684
670
650
628
607
586
559
530
501
476
457
437
416
397
377
357
341
325
303
285
265
249
238
229
265
329
417
518
614
690
753
793
818
829
832
826
816
805
794
785
777
766
750
732
706
679
655
634
624
616
614
614
614
614
603
592
582
562
543
526
504
483
461
440
419
397
380
359
341
321
302
285
267
249
229
213
205
209
255
325
417
520
608
686
741
776
798
800
802
794
784
770
758
748
737
726
709
688
670
650
631
618
610
607
606
602
604
598
587
574
558
536
515
493
472
448
425
399
375
349
327
306
281
259
238
217
195
174
148
128
120
132
185
270
369
468
554
622
664
692
706
706
701
690
675
662
650
634
618
598
578
559
542
524
516
514
520
528
534
544
552
558
556
548
538
523
509
489
464
443
421
401
383
365
349
333
321
305
289
273
255
239
229
246
291
365
457
551
634
702
753
790
797
802
798
786
770
754
737
718
698
674
644
618
596
580
574
570
572
578
582
584
582
575
559
542
520
499
477
456
435
413
392
371
349
327
306
289
269
250
229
207
189
173
177
209
277
381
496
606
698
773
830
863
881
891
891
888
879
869
861
855
849
841
830
813
792
770
750
734
722
713
708
706
696
688
682
671
660
646
626
610
590
568
550
530
514
495
477
459
445
429
408
389
373
363
363
385
452
532
618
705
777
830
867
891
907
907
901
895
884
873
867
860
852
842
825
804
782
757
736
718
701
693
690
684
672
658
644
623
602
575
546
518
491
464
441
416
395
377
357
338
317
297
281
261
243
225
209
210
234
289
373
472
566
651
716
766
796
806
810
804
793
778
765
757
746
736
722
706
680
664
650
631
618
614
610
610
610
608
603
594
578
562
542
520
499
477
456
435
413
393
375
357
337
318
301
283
265
245
227
211
197
207
247
321
419
520
610
686
740
778
790
798
798
792
778
766
752
741
730
718
700
682
662
646
630
616
611
610
610
610
610
604
596
582
566
550
530
512
491
469
448
427
409
388
367
349
327
309
293
271
250
229
213
202
209
249
318
409
509
603
682
740
780
802
808
808
798
785
777
762
748
737
722
705
684
666
644
623
610
600
595
594
592
587
582
575
559
542
522
503
477
452
428
401
379
355
333
311
290
269
247
226
205
182
158
140
127
132
177
257
353
449
536
603
658
684
697
702
694
678
666
651
638
618
602
583
558
528
507
493
481
481
489
504
515
530
535
538
538
527
516
505
493
480
469
448
429
413
393
377
361
343
329
309
291
270
249
251
275
329
416
512
602
684
748
794
820
830
834
828
817
806
792
781
770
754
736
714
692
667
646
627
616
614
610
610
610
608
600
590
570
554
534
508
487
465
444
423
401
381
363
341
321
302
281
259
241
225
222
249
309
401
503
602
692
758
806
840
853
863
861
856
850
840
829
822
813
805
794
773
752
730
709
688
674
660
655
654
654
651
642
631
618
598
576
555
534
516
495
473
456
437
421
400
379
361
341
325
305
297
310
345
421
509
602
684
753
802
836
852
855
857
852
842
837
829
822
813
805
790
773
752
730
709
688
670
660
655
650
643
630
614
596
580
562
540
519
497
476
455
433
412
393
373
357
338
317
297
278
257
243
243
265
327
413
509
603
684
746
793
817
822
826
824
814
808
797
790
780
769
758
737
716
690
663
644
634
628
626
626
626
626
618
603
590
574
556
535
514
492
471
453
436
417
397
381
363
345
325
306
289
274
282
313
377
463
558
642
714
766
804
822
826
829
824
814
804
796
790
781
773
758
737
718
698
676
658
642
636
634
630
628
620
614
602
586
566
548
527
509
489
471
453
433
417
397
376
357
341
321
305
293
299
334
401
483
571
658
726
777
810
829
834
834
825
817
806
800
792
782
776
760
738
717
696
674
658
644
638
631
623
614
603
592
578
562
543
522
500
479
457
441
423
401
381
363
341
323
305
285
269
266
289
348
428
518
607
676
738
776
792
802
801
790
774
764
753
746
736
722
702
678
648
618
588
572
562
554
551
550
543
532
518
504
483
461
440
413
389
363
335
313
287
266
245
222
198
177
147
126
112
114
148
209
295
384
461
527
575
602
618
618
610
599
588
578
562
548
534
511
484
461
440
427
421
427
435
449
464
477
481
485
483
473
457
444
429
413
400
389
375
364
353
338
325
309
302
299
317
365
437
526
619
700
766
809
838
855
856
856
846
837
829
818
813
802
786
769
745
718
693
671
658
648
643
638
631
620
602
582
563
542
520
496
473
452
431
409
392
371
349
329
310
293
279
282
309
376
461
558
650
728
786
833
857
867
871
868
863
857
852
846
846
841
830
813
792
770
745
724
706
696
685
674
660
655
642
624
603
578
560
539
518
497
479
457
440
421
405
384
368
353
334
326
333
369
433
514
595
672
738
778
805
818
820
817
810
805
800
794
788
780
770
757
736
714
685
663
642
626
615
606
595
584
574
562
546
530
508
484
461
439
415
389
368
347
325
306
290
269
251
230
209
189
170
156
151
170
229
307
399
489
568
627
670
690
701
706
697
689
682
675
667
658
652
642
622
600
582
570
560
555
554
555
558
562
563
563
554
543
532
518
496
475
449
432
411
389
368
347
325
307
286
265
249
233
217
195
174
156
139
134
148
201
278
373
463
543
610
654
684
694
702
700
690
679
671
666
660
652
638
616
598
578
562
551
542
542
542
546
547
547
546
539
526
509
493
475
453
427
403
377
348
323
301
275
251
229
207
186
164
142
115
92
67
51
48
79
140
225
318
401
469
526
558
578
586
583
570
558
544
534
519
505
485
463
439
417
407
401
405
412
425
437
451
459
461
460
452
437
427
416
401
389
373
361
351
339
329
317
303
293
281
265
253
241
241
257
310
388
481
567
647
718
768
802
814
822
822
818
808
802
798
793
785
774
758
740
718
693
674
658
652
650
650
651
651
642
630
611
590
572
551
530
507
483
465
444
425
405
388
369
353
331
310
293
274
263
277
321
393
485
578
663
734
785
820
838
850
853
855
849
844
842
842
842
838
826
810
790
773
754
738
726
716
706
701
696
686
671
658
642
624
606
586
564
543
526
505
487
473
456
437
421
405
392
377
357
338
325
315
331
377
447
532
622
692
753
798
826
842
846
846
844
842
836
830
826
825
820
806
789
765
742
722
706
690
685
679
674
663
650
638
622
606
586
568
547
526
505
487
465
447
433
417
401
385
369
357
338
321
307
302
325
375
447
530
611
686
742
778
805
814
817
812
810
805
800
790
789
781
770
758
740
722
701
682
670
659
651
646
636
634
626
615
604
586
564
543
522
501
483
465
445
427
413
400
381
361
345
329
313
294
289
305
347
419
501
587
662
726
762
789
802
804
806
802
794
792
790
785
777
766
745
724
698
668
647
634
619
611
606
604
596
586
574
555
534
512
491
469
443
421
401
379
355
333
307
286
261
234
207
181
160
152
173
222
294
373
451
515
566
598
616
626
624
619
610
600
592
582
575
562
546
523
499
481
472
464
461
468
479
485
491
493
489
483
472
461
447
436
425
411
400
389
379
365
345
323
302
281
261
247
253
293
352
429
512
582
638
684
702
714
718
716
706
700
689
682
670
651
630
604
583
570
564
564
570
579
587
594
584
576
558
536
515
493
471
447
421
400
379
357
339
318
297
270
246
229
210
202
213
259
337
429
522
610
690
737
772
790
800
805
806
810
808
806
808
808
802
792
776
758
737
718
698
688
679
674
672
667
662
651
638
622
606
587
566
548
530
514
497
479
461
445
429
409
393
383
389
429
485
554
627
694
746
785
809
822
828
830
834
833
830
830
829
824
818
805
786
766
750
737
722
712
701
694
684
672
658
642
623
598
571
547
518
488
469
449
432
413
393
377
361
341
321
302
289
274
263
269
309
371
449
534
611
674
725
749
762
772
777
774
773
770
770
770
765
758
745
724
694
672
656
642
632
630
626
620
615
606
595
579
558
542
523
501
480
453
437
416
397
377
360
344
325
303
282
265
250
239
245
278
339
417
501
579
642
686
718
730
738
741
738
734
734
730
729
724
714
697
675
654
639
631
622
622
622
622
620
612
606
594
578
558
535
514
493
467
443
417
396
375
353
331
310
289
266
242
221
199
178
181
210
266
337
412
479
534
568
590
598
596
588
582
571
560
550
543
530
509
488
461
433
411
403
401
399
401
405
405
405
401
387
373
353
331
307
285
271
250
233
221
202
185
167
146
124
96
72
56
59
80
136
213
293
369
431
476
514
520
526
522
511
497
477
456
429
397
360
327
305
306
314
329
351
369
381
389
389
381
371
355
337
317
301
289
278
265
253
241
227
213
197
181
164
146
135
140
174
243
337
444
548
642
713
772
806
825
836
838
841
838
834
836
836
826
814
798
778
761
742
722
717
712
706
704
693
682
671
658
638
620
602
582
562
548
534
515
501
481
464
443
421
409
399
401
427
472
530
588
644
690
718
740
750
756
758
754
754
754
754
754
757
750
740
724
702
682
663
646
628
610
598
582
568
558
540
519
497
476
452
425
400
379
353
330
306
281
254
227
213
201
211
245
301
360
409
449
481
501
514
516
518
518
518
522
522
522
522
511
497
477
456
435
413
403
395
389
380
377
373
359
345
325
309
290
265
237
210
189
164
132
112
91
70
48
31
15
0
0
0
0
0
0
0
0
11
44
128
203
265
309
335
341
345
348
349
345
345
349
359
361
353
339
318
297
277
263
253
251
249
253
254
257
253
242
231
217
199
183
168
148
130
112
96
80
68
51
32
16
6
0
0
0
0
0
0
0
0
0
0
0
0
0
0
8
48
132
215
279
333
359
375
381
380
377
377
384
392
401
408
411
405
395
379
365
352
347
345
347
352
361
361
361
357
351
339
329
315
297
281
269
255
241
229
215
205
191
183
173
166
155
140
130
119
108
99
102
136
195
275
361
445
512
562
591
607
614
614
614
614
619
624
630
640
646
634
614
595
586
578
575
574
586
594
598
603
606
606
600
590
570
548
527
501
489
471
453
433
417
405
389
373
361
345
329
313
293
279
273
286
329
401
487
567
646
694
732
750
760
760
758
754
752
750
753
758
762
756
742
722
704
693
682
674
676
678
679
682
678
671
660
650
634
618
598
580
559
542
522
505
493
481
465
453
441
425
405
389
376
369
376
408
473
558
651
738
802
850
883
893
901
907
903
903
903
908
913
919
912
901
883
861
840
826
812
801
790
785
780
770
750
732
710
688
660
630
603
574
538
515
488
461
433
401
377
351
323
293
261
234
213
194
189
217
273
339
413
485
539
582
598
606
610
610
604
598
594
591
582
571
560
546
535
530
534
548
559
578
594
607
618
616
611
606
594
575
562
551
543
534
527
516
505
493
480
465
451
437
421
413
427
461
534
619
710
798
876
927
963
989
1003
1009
1017
1023
1023
1023
1023
1023
1023
1023
1023
1023
1023
1023
1023
1023
1023
1023
1023
1023
1023
1015
999
983
967
949
928
907
887
868
846
829
810
790
773
752
730
712
701
710
741
792
855
913
967
1007
1017
1023
1023
1023
1023
1023
1023
1023
1023
1023
1023
1023
1023
1023
1015
1004
991
979
972
964
959
953
945
935
920
904
883
861
837
810
789
768
742
721
700
682
660
636
614
592
571
554
544
547
578
628
690
754
812
857
895
911
919
923
917
912
911
909
904
903
900
889
875
859
842
826
812
798
790
785
777
766
760
746
730
709
688
666
640
616
594
567
540
514
491
467
445
420
401
385
371
357
341
329
313
297
278
265
261
269
309
369
447
530
606
667
716
742
760
765
766
766
769
766
768
770
774
773
765
754
737
718
702
696
690
686
680
678
682
672
664
654
636
618
598
576
555
538
516
495
477
460
441
425
408
392
377
357
341
325
310
294
273
257
243
229
238
273
333
415
503
582
647
698
738
753
758
762
757
754
758
758
761
762
756
745
730
714
696
682
676
674
678
682
685
682
675
667
658
642
623
602
580
559
538
520
499
477
461
443
425
405
387
373
356
337
321
305
289
273
257
241
225
207
189
185
206
257
333
425
516
598
667
718
746
761
769
770
765
760
754
753
750
746
737
729
710
693
676
662
662
664
670
671
674
670
664
656
646
628
612
598
578
559
542
522
505
485
469
453
437
425
409
393
377
359
345
330
317
301
285
271
257
247
250
281
335
416
501
582
654
714
745
764
774
774
774
770
765
760
758
753
748
738
721
700
686
672
664
662
662
662
662
662
659
654
643
630
610
592
574
554
536
515
497
480
459
441
421
405
385
369
353
333
321
305
289
269
253
237
225
227
245
306
384
473
558
632
690
736
757
770
774
772
762
757
752
746
745
737
726
709
690
678
671
663
654
654
654
658
658
655
650
639
626
606
592
571
550
530
511
497
476
457
437
420
401
385
369
353
337
322
309
289
273
257
241
245
274
333
415
505
594
674
733
774
800
810
814
809
806
802
793
788
786
780
766
750
733
712
694
679
666
658
654
656
658
655
647
642
626
610
594
574
555
534
518
499
477
465
447
429
409
393
377
363
349
333
315
299
285
270
270
301
356
433
518
602
674
734
765
786
798
798
796
790
781
776
774
768
760
746
725
704
682
662
646
638
634
634
642
636
634
630
618
602
590
568
550
530
508
489
473
453
435
417
399
385
365
349
333
317
305
286
269
255
247
261
297
367
449
538
620
690
740
772
790
798
798
794
789
784
774
773
765
754
742
724
706
685
668
658
652
650
654
654
654
646
635
624
610
592
571
550
534
515
493
472
451
433
416
397
377
360
341
325
309
293
277
258
245
225
214
211
225
286
364
453
547
632
694
738
768
782
786
784
778
777
769
758
749
744
734
717
698
678
666
658
654
652
652
654
654
651
646
635
624
610
594
575
558
536
518
501
480
461
445
429
411
393
373
357
345
327
309
297
281
265
249
238
233
249
290
365
453
543
626
702
745
777
794
796
796
790
784
776
770
765
757
746
729
708
690
675
662
654
650
650
650
650
650
650
639
628
614
598
579
558
540
522
501
481
463
445
425
407
385
369
353
333
321
307
293
277
258
245
229
215
213
247
306
389
484
575
654
721
761
786
796
801
798
792
784
778
769
761
754
741
720
698
686
672
658
648
646
650
650
650
650
648
638
622
610
591
570
548
527
509
492
473
453
432
413
397
380
359
341
326
313
297
279
261
245
229
213
201
207
239
305
395
493
586
664
726
770
790
801
806
801
796
786
777
769
758
752
736
718
697
670
658
648
643
642
642
642
646
644
639
630
615
604
586
568
550
530
509
491
473
453
437
421
404
385
365
349
335
321
305
289
273
258
245
229
222
243
289
371
461
554
636
706
754
788
804
810
812
804
798
793
785
774
765
757
742
721
700
678
667
659
654
654
656
658
658
655
654
642
628
614
594
575
558
536
518
497
480
461
441
425
407
389
373
355
341
325
309
297
281
267
253
246
262
313
388
481
578
656
724
778
805
824
830
829
821
814
808
800
794
782
769
758
737
713
686
663
650
646
646
646
646
647
647
638
627
614
598
580
562
542
520
501
485
465
447
429
408
389
373
356
337
321
309
290
273
257
241
229
221
234
273
355
445
542
626
701
758
798
814
822
826
821
810
800
789
782
772
758
746
725
704
678
658
647
642
642
642
646
646
643
634
627
614
598
582
563
546
526
507
489
472
451
429
412
396
381
361
343
329
314
301
289
274
261
245
241
254
297
372
468
562
644
714
770
802
824
834
833
825
814
805
797
786
772
758
738
717
696
670
651
640
638
634
636
638
642
639
634
627
616
602
582
563
542
520
499
477
456
435
417
397
379
361
345
329
317
301
287
273
257
243
245
270
329
409
505
599
686
740
782
810
828
830
826
816
805
794
784
773
762
750
732
710
689
670
650
635
627
630
635
638
638
635
622
610
596
578
558
536
515
493
472
451
429
409
393
373
356
337
321
305
286
269
254
243
257
301
373
465
558
643
714
764
796
814
822
822
814
808
797
786
780
769
754
738
720
694
664
643
622
616
614
614
615
618
618
608
600
586
568
550
530
512
491
465
445
427
405
388
369
353
335
317
301
281
262
249
246
275
333
412
503
598
676
738
778
806
822
826
820
809
798
788
777
766
756
742
722
696
666
642
623
615
610
611
614
614
612
604
594
582
566
550
532
511
493
472
451
429
409
393
373
357
341
321
305
286
269
250
239
257
301
373
465
562
647
718
764
796
814
822
822
814
800
792
782
772
761
746
725
704
678
648
630
618
612
610
614
614
614
610
599
586
574
556
535
514
491
467
449
428
404
385
368
349
329
311
295
281
261
245
229
210
199
205
238
305
397
493
584
666
725
768
790
802
802
798
788
777
766
756
745
734
717
696
670
651
640
630
624
622
622
622
619
618
615
604
590
572
556
538
516
495
473
452
431
409
388
369
349
333
314
297
277
258
241
226
215
213
238
294
377
481
578
662
730
776
802
816
821
814
804
793
782
772
758
746
733
712
690
664
643
626
616
614
610
610
612
614
611
600
586
574
555
538
516
495
473
456
437
417
396
377
361
341
322
305
286
273
253
235
222
217
251
310
397
493
590
666
730
773
802
812
812
806
796
785
774
760
749
738
717
696
674
651
627
610
600
598
598
594
596
598
586
575
566
550
531
514
492
473
453
432
413
393
372
351
333
313
294
277
259
241
221
205
191
181
206
254
333
429
526
614
682
736
774
786
794
790
780
769
758
746
730
718
702
680
654
634
620
610
602
604
606
606
608
610
608
600
590
578
559
542
520
501
481
464
443
421
401
383
365
344
325
309
291
273
253
241
222
209
213
237
301
387
488
586
670
734
782
806
817
822
812
801
790
774
758
742
736
720
698
675
646
626
611
600
598
595
598
602
600
598
586
571
558
542
524
503
481
461
443
421
400
379
361
339
321
301
285
269
253
233
214
197
185
190
225
295
392
497
588
671
734
778
805
810
813
805
794
782
769
758
742
726
706
685
660
638
623
612
602
600
598
602
603
603
598
587
576
562
544
526
509
489
471
453
435
421
401
384
365
349
329
310
293
271
250
229
207
191
189
219
283
377
484
586
674
746
792
818
830
830
822
812
798
782
766
750
738
722
704
682
655
636
622
616
614
614
618
620
622
616
608
594
582
563
546
524
503
481
460
441
421
404
385
369
353
337
321
306
293
273
255
242
233
253
301
377
473
572
654
724
772
806
821
826
826
820
809
794
780
766
754
737
716
694
667
640
618
608
600
598
602
604
606
604
596
586
574
558
538
518
501
481
460
441
421
404
383
365
345
329
313
295
277
257
239
226
217
239
293
377
477
571
658
725
773
810
822
830
822
812
798
786
774
758
746
730
712
686
659
635
618
604
599
598
598
595
594
587
574
554
532
508
481
453
424
393
361
331
305
278
254
229
203
182
160
139
118
96
75
54
36
30
43
96
178
279
377
457
522
566
584
595
598
587
574
554
532
511
489
467
435
397
363
335
321
314
322
337
359
380
397
407
409
413
412
407
405
400
395
389
384
379
373
363
349
337
325
309
289
273
262
257
283
343
437
544
648
738
810
864
903
915
923
927
919
903
891
875
859
842
825
804
778
748
724
702
685
676
674
670
670
662
651
638
618
595
566
542
515
488
465
444
425
405
385
367
349
327
306
285
263
247
233
249
297
373
476
586
682
762
824
871
901
917
923
917
912
903
889
884
875
868
857
842
825
804
778
753
732
718
709
704
698
688
676
666
648
627
606
586
567
546
524
505
485
469
451
433
413
395
377
356
339
329
337
375
441
528
619
702
776
826
863
883
893
895
889
881
871
860
849
842
832
818
802
780
753
722
701
682
670
660
655
650
639
626
610
592
571
546
524
503
481
456
432
409
387
363
341
321
302
281
261
245
225
203
185
164
154
159
197
278
383
489
587
667
734
780
804
818
818
816
806
792
781
770
760
746
730
717
696
670
646
632
630
627
632
634
634
631
626
615
604
586
566
547
526
504
483
461
444
423
401
380
359
337
319
301
281
263
247
233
217
198
185
174
185
229
305
407
514
603
684
746
785
809
814
818
813
802
790
777
762
750
737
718
697
675
654
639
626
610
608
606
610
610
610
606
595
582
566
548
527
505
485
467
445
424
403
381
360
338
317
301
282
265
245
226
209
193
179
177
207
271
365
471
570
654
722
770
798
813
821
814
804
793
778
764
750
738
717
696
674
648
632
622
611
606
606
610
612
614
612
604
594
580
559
542
520
499
481
460
439
417
400
379
361
341
322
305
286
270
249
233
222
213
242
301
389
493
592
678
748
796
830
845
850
846
836
825
810
796
782
766
749
728
698
666
639
618
608
603
602
606
608
610
607
596
586
570
551
534
514
495
473
456
437
417
397
379
361
341
322
305
287
269
249
233
227
245
303
389
489
591
676
746
797
832
855
855
852
842
832
818
806
790
774
758
734
702
670
643
619
606
598
600
602
606
606
602
595
584
570
554
535
514
492
473
453
436
417
401
381
363
345
323
305
289
271
253
237
246
283
349
447
548
638
714
773
818
838
846
850
840
826
810
796
785
770
754
736
710
678
648
622
603
590
586
586
588
590
591
583
574
558
542
522
497
479
457
436
417
397
377
359
341
321
302
285
263
245
225
209
201
213
262
345
445
544
635
706
761
796
818
818
816
806
796
782
770
754
738
722
700
675
650
630
611
602
594
594
594
594
596
594
588
578
562
546
527
509
492
471
449
432
413
397
377
361
345
323
305
289
267
251
237
246
283
353
449
548
638
718
774
814
836
846
842
832
821
806
792
778
762
746
728
702
679
650
622
603
590
586
586
588
590
591
583
578
562
546
526
505
487
465
448
427
405
389
371
353
333
314
301
283
265
245
234
234
261
330
421
522
619
700
766
810
834
850
849
841
826
810
794
782
766
750
730
708
680
650
624
603
590
582
584
586
590
590
586
575
562
546
524
503
481
460
439
417
400
381
365
344
322
305
285
269
249
231
215
205
225
273
353
455
556
642
713
764
798
813
818
814
804
790
774
714
546
509
509
509
509
509
509
509
509
509
509
509
509
509
509
509
509
509
509
509
509
509
509
509
509
509
509
509
509
509
509
509
509
509
509
509
509
509
509
509
509
509
509
509
509
509
509
509
509
509
509
509
509
509
509
509
509
509
509
509
509
509
509
509
509
509
509
509
509
509
509
509
509
509
509
509
509
509
509
509
509
509
509
509
509
509
509
509
509
509
509
509
509
509
509
509
509
509
509
509
509
509
509
509
509
509
509
509
509
509
509
509
509
509
509
509
509
509
509
509
509
509
509
509
509
509
509
509
509
509
509
509
509
509
509
509
509
509
509
509
509
509
509
523
603
666
686
689
686
675
662
646
634
618
602
584
563
546
524
500
477
457
447
441
441
441
441
440
435
425
409
393
373
352
330
305
283
259
241
219
201
181
159
138
116
98
92
112
166
251
349
444
530
606
652
685
698
704
704
694
684
672
662
651
640
630
612
591
566
542
526
509
500
495
493
493
493
489
483
469
457
436
415
393
372
351
325
303
282
265
245
226
205
183
162
140
131
139
177
251
348
445
535
612
670
708
729
738
737
729
718
708
697
686
671
658
642
622
603
586
567
556
554
551
556
562
568
574
574
571
560
546
524
503
481
460
436
409
388
367
349
327
306
289
271
253
233
215
199
193
219
273
357
459
558
646
714
765
802
813
818
814
804
790
778
768
757
746
730
712
690
670
651
634
620
615
614
614
616
618
612
604
590
578
559
538
516
495
473
452
431
409
388
367
345
325
309
289
271
253
233
217
201
189
197
237
317
416
518
614
693
752
794
813
818
822
812
801
786
772
758
742
730
712
690
667
643
626
611
603
602
602
602
602
600
595
586
570
551
530
508
487
465
444
423
401
380
359
337
319
298
277
259
241
221
201
185
173
163
185
241
330
435
542
627
702
754
786
802
806
804
793
774
762
749
734
721
700
678
652
631
614
603
595
594
594
594
598
598
592
586
574
558
538
516
495
473
452
431
409
388
367
345
323
305
285
267
246
229
209
190
177
164
178
217
305
409
518
611
692
750
796
817
822
824
813
802
790
774
758
742
724
702
679
652
626
610
599
594
594
594
598
602
599
594
583
570
554
536
515
497
476
455
437
420
399
377
360
341
325
305
286
269
249
233
213
195
182
189
245
325
429
534
632
710
765
802
826
830
828
822
810
797
782
768
754
738
717
693
662
650
631
618
612
610
610
614
616
618
607
596
586
568
547
530
508
487
465
444
425
405
388
367
345
325
306
289
273
257
237
219
203
189
191
213
273
364
471
578
666
736
794
821
840
846
840
826
814
801
782
766
750
732
710
684
656
634
615
604
602
598
600
606
606
603
598
586
570
554
536
515
493
476
455
433
413
395
373
352
333
313
297
281
261
245
226
209
203
222
281
363
464
570
655
728
782
812
830
838
832
821
806
792
778
762
746
728
706
682
647
626
610
596
594
591
594
598
598
598
590
579
566
546
530
511
489
473
457
437
417
399
385
364
345
325
309
293
277
261
245
237
251
299
377
472
574
670
738
792
830
848
856
855
849
841
830
814
798
782
761
740
714
686
654
626
604
588
578
578
578
582
580
572
562
550
531
509
492
471
449
429
411
389
369
351
329
311
293
273
257
238
221
206
195
213
265
351
449
547
635
706
756
788
802
805
800
786
770
754
738
726
710
690
668
644
618
598
584
578
572
570
574
575
578
574
563
552
538
516
497
477
460
439
421
401
383
361
344
325
305
287
269
249
229
213
205
213
255
333
432
534
634
704
760
798
817
825
822
816
802
786
769
753
738
721
700
674
643
619
602
591
583
582
583
586
590
588
580
570
556
538
518
500
481
461
441
423
401
381
365
345
327
309
289
273
254
237
223
218
241
294
383
485
583
668
738
784
816
830
833
828
818
802
786
770
758
742
722
700
670
638
608
590
578
571
566
566
564
559
546
530
511
489
468
444
417
391
364
337
310
283
261
235
211
189
162
135
108
87
66
44
30
40
84
168
270
377
456
523
574
602
615
618
614
595
574
558
539
518
487
460
425
391
367
353
347
357
377
397
416
433
443
448
449
443
429
417
401
388
373
361
348
337
322
309
297
285
271
257
251
259
297
379
483
594
697
782
850
893
920
935
936
936
927
912
899
883
868
855
834
812
785
758
728
704
690
676
671
670
663
655
642
620
599
574
547
520
497
471
447
425
405
387
369
348
326
305
283
265
253
255
287
349
447
548
646
734
798
846
872
885
895
889
881
875
864
850
842
832
818
798
777
753
726
701
679
666
656
651
646
640
632
622
611
595
578
556
535
514
496
475
453
436
417
401
380
359
337
317
301
297
323
380
461
558
651
734
800
850
875
888
893
891
880
869
855
844
833
822
810
792
770
746
717
686
666
652
642
636
631
626
618
602
582
558
534
514
491
467
441
420
399
377
356
337
317
295
274
257
235
214
201
189
202
249
333
432
534
622
700
758
794
810
814
817
809
798
788
774
758
746
730
710
689
664
642
622
608
598
596
594
598
594
594
586
574
558
538
520
499
477
455
431
409
388
367
345
322
301
281
261
242
221
201
182
160
146
138
144
202
287
393
497
596
674
733
768
790
796
793
782
770
754
742
726
710
694
672
646
614
602
588
578
572
575
582
590
590
590
583
572
558
538
519
497
476
455
433
412
391
369
348
326
309
287
266
249
231
213
197
179
163
148
140
151
201
283
391
497
596
679
746
778
802
814
813
805
794
778
762
746
730
714
694
667
640
618
599
588
586
591
596
606
606
606
598
586
570
558
540
519
497
476
457
437
416
395
377
356
334
313
291
273
253
241
222
205
189
170
152
138
132
148
211
302
413
523
619
698
756
790
810
818
818
810
798
782
766
750
732
710
689
664
638
616
603
594
594
599
606
614
616
618
611
600
586
570
551
534
516
495
473
457
439
417
396
377
361
341
322
305
286
273
253
237
223
213
229
277
357
464
571
662
733
786
826
846
855
855
844
830
814
800
786
766
749
728
702
674
642
614
596
591
590
591
596
598
599
591
586
574
555
534
515
501
481
460
441
421
404
383
365
345
326
309
291
273
253
235
225
233
281
356
457
562
655
734
789
826
850
856
856
846
836
822
806
790
774
754
732
708
682
650
623
602
584
579
578
583
588
586
580
572
558
538
522
501
484
465
445
424
405
385
365
349
329
310
297
277
255
239
225
238
275
345
443
547
638
714
770
814
836
846
846
836
825
810
792
778
762
741
720
690
662
627
594
574
558
550
546
546
546
535
524
509
488
467
445
419
392
369
344
319
293
270
246
221
198
171
148
123
99
76
55
50
72
140
231
333
429
507
566
602
623
634
632
624
610
594
575
554
532
508
477
449
420
397
392
392
405
425
441
457
465
468
469
459
445
429
413
395
381
365
349
333
321
310
301
285
269
257
251
267
321
412
522
634
729
812
879
923
949
959
965
960
951
935
924
915
899
883
867
845
821
790
765
744
726
716
708
702
700
689
678
664
643
622
599
572
542
511
484
457
433
417
397
376
355
333
313
299
301
337
407
497
594
685
762
820
860
883
892
892
887
876
865
855
844
833
818
806
788
766
744
714
690
675
664
658
651
643
638
626
607
586
566
550
530
508
484
461
441
423
401
380
359
337
319
298
277
265
267
297
375
465
562
656
732
790
830
855
871
869
861
850
840
826
814
804
790
774
750
721
690
659
635
618
604
599
594
590
587
578
567
551
534
514
495
473
448
427
405
384
363
341
319
298
277
257
241
221
199
178
156
159
186
249
339
449
550
640
708
758
789
805
810
805
797
782
764
753
742
725
704
682
655
631
614
604
596
594
598
598
598
600
595
590
574
558
542
520
496
473
452
431
409
388
367
345
323
302
285
267
246
225
207
191
177
175
202
269
364
471
574
662
732
786
808
824
830
824
813
798
782
766
746
730
712
690
659
635
618
603
590
586
586
586
590
590
584
574
562
546
530
508
487
465
444
423
401
380
359
337
315
297
277
259
241
221
199
178
164
158
171
229
315
423
530
624
702
758
793
812
818
817
809
794
778
762
742
729
708
686
658
623
598
583
575
574
575
580
586
586
583
574
563
550
530
512
491
469
448
427
409
388
364
345
323
302
281
263
245
229
207
186
173
164
189
245
335
443
554
638
710
762
790
806
810
808
797
786
769
750
734
717
696
674
648
630
610
599
591
586
587
592
598
599
596
590
578
562
546
524
505
485
465
447
425
405
387
365
348
329
309
293
274
253
233
217
213
231
285
369
476
578
670
741
794
830
848
853
850
840
826
810
794
778
758
737
713
686
654
622
598
586
578
578
579
582
586
580
575
566
548
530
514
492
471
453
432
411
393
372
353
333
315
297
281
261
242
225
209
214
249
323
423
530
620
704
766
810
837
842
845
837
826
810
797
782
762
746
726
696
668
638
611
590
578
578
578
582
582
582
574
563
550
534
516
495
473
453
435
413
395
379
357
341
325
309
291
270
253
234
223
237
277
352
449
551
642
718
774
814
834
846
844
834
824
810
790
778
760
738
716
686
654
623
599
586
579
574
578
579
582
582
575
564
550
532
514
493
472
451
429
408
387
369
352
330
309
291
273
257
237
221
217
238
299
389
488
587
678
736
781
810
824
824
818
806
790
774
758
745
726
705
684
658
628
607
590
580
575
578
578
578
582
579
566
554
536
515
493
472
453
433
413
395
377
357
341
321
303
282
261
245
237
245
286
361
453
554
644
722
774
809
830
836
833
818
804
788
766
749
728
706
679
647
610
570
538
522
509
509
509
508
505
505
495
481
465
444
420
393
368
344
313
290
263
237
215
191
168
143
119
92
71
60
72
131
217
317
419
501
562
602
626
642
640
632
618
596
575
554
532
508
477
444
412
389
380
380
393
411
432
453
464
472
477
471
460
445
433
417
405
389
373
361
345
331
321
305
286
273
270
299
361
452
559
666
752
826
879
916
937
943
940
932
923
907
893
883
867
848
826
801
777
746
721
705
690
685
679
674
670
654
642
620
596
574
546
516
489
463
439
421
400
379
357
335
314
293
293
309
361
441
540
634
717
784
834
867
885
891
889
881
871
856
845
834
824
810
794
777
756
730
704
679
670
659
651
646
639
628
614
592
571
550
528
507
485
464
443
421
404
383
361
339
318
297
285
293
325
397
485
582
666
738
794
832
850
855
857
846
830
820
809
798
782
766
750
729
705
682
655
631
614
603
598
590
580
572
558
542
523
501
480
459
437
415
385
361
338
311
289
266
245
225
203
182
160
140
124
112
111
143
209
311
421
526
616
692
738
766
780
782
776
765
754
742
724
706
692
675
654
628
607
586
575
570
566
571
579
586
590
590
582
566
550
530
508
487
465
444
423
401
380
361
341
319
298
281
259
238
221
203
185
173
182
227
305
407
511
606
688
741
778
802
813
810
800
786
770
754
738
726
709
688
662
635
616
602
592
587
582
582
584
586
584
576
562
550
531
509
488
467
445
424
403
381
360
341
321
301
282
265
245
229
209
191
175
164
194
250
337
443
547
638
709
762
798
813
816
810
798
785
766
748
734
718
697
670
638
618
602
590
580
575
574
578
580
582
579
568
558
538
519
497
477
459
437
416
395
373
356
334
313
293
277
257
239
221
201
185
179
197
265
356
461
564
652
722
772
801
822
821
813
802
786
768
754
737
718
698
674
647
622
602
586
574
566
566
566
570
572
566
559
546
530
512
491
473
452
431
409
392
373
353
333
314
293
273
254
233
217
201
185
201
249
329
431
535
630
710
766
802
822
830
830
820
806
790
774
758
738
717
693
662
639
615
594
580
572
570
574
576
578
575
567
558
542
523
505
485
467
445
428
407
385
365
347
329
309
290
273
255
237
221
217
235
285
373
475
574
667
737
790
824
840
846
840
829
814
794
778
762
741
720
690
656
624
598
578
564
558
562
564
566
566
563
554
542
526
505
484
460
437
412
388
361
333
303
277
246
219
193
162
135
108
94
96
124
207
306
413
514
591
642
679
696
702
700
689
674
658
639
622
600
579
550
524
503
481
469
461
461
472
483
493
501
501
501
495
484
469
449
433
417
401
383
361
339
318
297
279
258
241
222
211
225
267
351
449
546
631
706
752
786
806
814
812
798
781
762
742
716
689
658
622
590
562
539
531
530
532
540
546
546
543
530
515
501
481
464
443
417
400
379
361
339
318
297
275
254
233
215
202
201
249
326
429
544
651
742
809
857
895
905
911
915
904
893
887
876
863
850
833
812
790
764
737
710
692
678
666
662
659
650
643
632
622
606
590
574
552
534
514
496
480
461
441
423
401
383
369
365
396
452
530
619
705
778
837
880
899
908
913
907
896
885
875
863
849
834
818
800
778
753
729
702
686
672
666
656
648
642
634
615
594
568
544
518
491
461
433
407
383
361
339
318
297
275
254
241
246
278
353
444
546
638
717
776
814
833
838
842
832
821
806
792
781
766
753
732
710
682
647
622
602
588
582
579
582
578
576
568
554
538
519
497
476
455
433
411
387
365
344
322
301
279
258
237
215
199
185
197
239
317
420
524
622
698
754
798
810
818
818
806
790
778
764
750
734
717
696
674
652
628
606
588
580
578
574
576
578
572
564
550
534
515
493
472
451
429
403
381
361
339
318
297
275
254
233
215
197
177
173
189
241
330
435
538
631
709
766
797
813
822
812
801
786
772
758
742
725
704
682
655
628
606
592
584
582
578
578
578
576
571
562
550
534
514
493
475
453
432
408
385
364
343
321
301
285
265
247
229
209
191
181
185
233
307
405
509
603
682
741
778
802
808
805
794
778
762
742
725
704
682
654
627
606
586
572
562
554
556
566
571
576
578
576
566
550
530
511
489
468
444
417
389
360
329
306
282
257
237
221
205
190
182
181
210
266
353
459
560
646
717
768
802
817
820
810
798
782
762
741
717
694
668
647
618
596
572
550
536
531
530
535
540
542
540
532
522
504
483
461
436
412
381
353
321
289
261
229
193
160
128
100
71
47
20
6
0
8
64
158
273
385
481
558
612
644
666
666
660
650
634
615
594
572
546
514
475
432
393
373
360
353
364
375
389
400
408
417
412
409
401
391
377
365
351
339
329
318
310
301
295
290
285
275
267
265
290
344
425
518
614
698
768
821
855
872
877
879
863
849
830
809
788
766
740
713
682
650
623
602
591
586
582
583
586
586
578
559
538
515
491
469
448
427
405
384
363
341
319
298
273
250
226
205
187
190
237
319
429
546
651
740
810
856
888
907
915
912
903
887
873
859
846
833
818
801
780
758
733
712
690
679
671
666
660
655
650
640
632
614
596
575
550
528
507
485
465
449
437
420
401
385
369
364
377
424
493
578
664
740
802
848
877
899
899
896
891
880
867
855
844
833
818
797
776
750
728
701
674
656
651
646
640
632
622
608
587
570
548
522
493
467
440
413
388
367
341
319
298
273
251
233
229
247
306
389
491
590
674
744
794
822
838
841
838
822
809
798
786
770
754
737
716
694
666
636
614
602
594
590
590
592
594
586
570
558
536
515
489
468
447
421
400
379
357
339
318
297
279
258
241
222
211
221
262
339
437
540
636
714
770
810
830
838
836
826
813
797
782
772
758
742
720
690
662
632
614
598
592
590
590
590
590
590
579
568
554
532
511
489
467
443
417
396
375
353
331
310
289
266
245
225
206
198
209
251
331
433
535
628
714
762
797
814
824
821
810
797
778
766
750
737
718
696
668
638
611
598
586
576
571
570
571
574
570
558
542
526
504
483
461
439
415
393
371
347
325
303
282
261
243
222
201
185
166
152
163
211
293
396
503
602
676
736
774
793
798
798
788
777
758
742
726
710
689
664
638
608
587
574
566
563
566
572
578
578
572
564
550
534
515
493
472
451
429
409
391
369
348
326
305
287
269
249
231
210
193
186
199
249
334
436
538
627
702
762
789
808
814
812
798
786
769
750
730
713
692
666
635
611
590
571
558
550
546
543
542
540
532
518
500
479
457
432
408
381
353
323
293
266
239
213
190
163
140
115
91
64
43
27
24
56
128
229
339
439
522
575
612
634
643
640
626
610
591
570
548
524
497
465
436
409
389
373
369
372
385
401
417
428
433
433
428
417
403
392
381
369
359
349
338
327
317
306
293
281
269
253
241
237
253
301
389
491
590
679
749
798
832
848
859
852
841
822
801
780
758
736
706
670
632
600
574
555
547
542
547
555
558
555
544
530
514
495
473
452
431
409
388
367
345
323
305
285
263
242
221
199
181
173
189
242
333
447
559
662
744
810
855
881
892
895
892
884
875
863
846
834
824
808
786
761
737
706
685
666
654
648
646
646
644
639
630
618
602
582
562
543
522
501
483
461
444
425
405
384
363
345
325
309
313
348
415
501
598
686
762
818
859
883
895
895
887
876
865
850
840
829
814
798
780
758
730
701
678
660
647
642
636
631
622
606
590
570
548
524
501
479
455
433
411
387
365
344
322
301
279
261
241
221
202
185
170
183
233
318
423
534
624
702
762
800
821
826
824
813
802
786
773
758
742
724
702
674
658
638
620
604
594
594
594
594
594
588
582
570
554
534
512
491
469
448
427
405
380
359
337
315
294
273
253
237
217
197
178
160
144
131
132
183
261
365
480
584
670
737
777
802
812
814
806
796
782
766
750
734
714
693
668
642
610
588
574
572
572
578
587
592
594
591
578
562
550
531
509
489
471
449
428
407
385
364
343
321
301
282
261
241
225
209
191
173
152
148
162
209
290
397
505
607
685
746
784
808
818
817
809
794
778
762
746
729
708
682
655
631
610
591
578
578
582
582
582
586
583
578
567
554
538
516
495
473
456
435
413
396
375
349
329
310
289
271
253
233
215
197
181
166
163
197
265
367
477
578
663
738
778
805
818
822
817
806
793
774
754
737
716
694
663
639
614
591
578
566
562
559
562
560
555
550
538
519
497
476
455
433
408
387
361
334
310
285
259
235
213
187
166
144
122
98
76
54
30
24
50
116
213
326
431
522
583
631
658
674
674
666
650
634
618
595
571
546
512
475
445
416
400
393
391
399
413
432
443
449
457
455
445
439
428
417
411
403
397
387
373
365
356
348
337
321
305
289
269
255
257
289
359
457
559
652
738
792
834
863
876
879
871
859
842
822
800
776
750
718
686
654
623
599
582
574
571
570
570
564
558
550
534
518
500
481
461
440
421
401
381
363
341
319
301
281
259
241
221
201
187
189
231
311
421
539
648
742
814
863
899
917
923
927
920
909
899
883
869
855
841
820
798
772
748
726
706
693
682
675
670
666
655
642
630
615
602
582
560
542
522
505
487
469
449
431
413
396
377
357
341
338
357
420
503
598
690
768
830
876
903
919
920
920
915
904
891
879
867
850
838
817
796
770
738
712
690
671
660
658
652
644
630
618
599
578
551
524
501
473
444
421
404
383
365
345
326
305
283
265
245
234
237
265
343
439
542
635
718
774
818
842
850
855
849
838
822
809
798
782
766
746
722
688
650
624
603
590
584
579
578
580
575
570
558
542
526
504
483
461
440
419
397
380
359
337
321
302
285
263
242
225
209
195
197
249
329
425
530
620
698
758
790
810
818
816
802
792
778
762
746
728
706
685
660
638
611
592
578
568
566
566
574
574
570
563
550
534
516
495
473
453
435
413
392
373
353
335
314
293
271
250
233
214
201
205
245
319
417
519
612
694
753
793
810
822
822
814
798
785
770
750
734
714
692
662
638
612
591
574
568
566
562
567
567
562
555
544
530
508
487
465
444
423
401
380
359
337
311
290
269
246
222
197
175
154
144
148
191
269
372
473
566
636
690
726
744
749
746
734
718
698
680
659
638
615
586
554
524
505
485
479
473
477
487
495
501
501
499
489
476
455
429
407
383
357
334
307
285
263
239
217
191
170
144
122
98
88
87
124
201
303
408
505
579
635
674
693
704
702
696
682
662
640
616
586
552
515
485
459
445
441
440
451
465
476
484
489
488
480
469
457
444
433
417
404
393
381
363
345
323
305
285
263
245
229
237
271
345
453
568
670
761
830
887
919
937
947
945
940
931
916
905
895
880
867
846
824
800
774
748
724
714
705
700
694
688
676
666
644
623
598
572
551
530
508
489
473
457
439
421
400
379
357
343
334
345
396
468
558
647
730
798
849
876
895
903
903
895
888
877
867
855
838
826
809
788
758
726
700
678
663
655
650
640
635
622
600
579
558
531
507
481
460
436
413
392
371
349
331
310
293
271
250
229
209
193
189
219
281
373
479
578
666
736
786
814
832
837
834
824
813
802
786
770
754
738
720
690
664
643
622
610
602
598
599
602
602
595
584
570
552
531
509
488
467
445
424
403
381
360
338
317
295
274
257
235
214
193
175
159
152
179
243
337
448
552
642
718
766
798
810
813
810
800
789
774
758
742
726
705
684
658
624
600
586
584
582
586
594
596
598
591
580
566
552
531
514
492
471
449
428
409
389
367
343
321
299
278
261
239
221
205
183
164
148
132
119
108
124
178
269
379
491
590
670
732
770
790
798
802
792
781
762
746
730
714
697
675
650
618
586
570
562
559
562
572
580
586
587
590
582
567
554
538
516
495
473
460
439
421
400
379
357
335
317
297
279
261
245
225
206
189
177
177
209
278
375
485
582
667
734
782
812
822
830
825
814
802
786
770
753
732
710
684
656
634
612
596
582
580
578
582
583
583
578
571
558
542
524
505
489
469
451
429
408
389
369
348
329
309
293
274
257
237
218
205
190
182
189
245
330
437
542
632
710
766
798
822
830
828
818
806
790
774
757
736
714
690
660
630
604
583
566
555
550
546
546
546
538
527
514
493
476
455
433
412
388
365
339
315
293
267
246
221
198
174
152
131
107
84
67
51
36
62
118
209
314
419
501
566
608
634
643
646
642
626
607
586
564
540
509
476
441
409
388
372
365
373
392
413
431
447
457
461
459
453
443
432
421
408
400
389
375
364
349
338
327
313
301
285
273
262
257
273
335
427
538
647
744
822
885
923
947
955
957
951
944
931
915
903
887
871
849
825
802
774
748
726
716
705
698
697
692
682
670
651
630
608
584
558
535
505
485
464
445
425
408
389
373
353
334
313
294
281
285
322
392
485
591
688
770
836
887
915
928
933
935
928
917
907
895
881
867
852
836
814
786
754
722
701
682
666
656
651
646
639
626
606
584
563
546
534
515
497
476
457
437
416
397
377
360
338
317
297
278
265
259
283
341
429
526
626
708
774
822
857
871
875
876
865
850
838
822
806
794
776
754
728
698
666
638
614
598
587
579
570
562
559
550
536
518
501
484
463
441
420
399
381
360
338
317
295
274
253
231
210
193
171
152
132
123
126
152
239
341
449
551
636
698
746
773
786
789
784
774
758
742
726
708
692
670
646
616
590
578
564
558
558
563
570
575
580
582
578
564
550
530
511
489
465
447
425
408
387
361
339
318
301
281
262
245
227
209
189
171
155
148
175
234
329
444
551
646
722
773
810
822
830
830
818
802
786
769
750
734
713
689
662
631
607
594
582
582
582
582
582
586
584
576
566
554
535
522
504
485
465
444
425
405
384
363
341
319
301
281
263
245
225
209
190
173
166
177
229
315
425
538
632
710
770
809
830
838
841
833
818
802
786
766
745
724
702
675
648
622
596
580
570
564
562
562
562
559
550
535
522
501
480
459
433
411
387
365
343
315
293
266
239
217
195
174
148
127
106
80
56
40
32
51
110
201
317
424
518
587
638
666
679
685
678
666
647
626
604
583
554
522
487
457
432
413
397
399
407
421
437
453
461
469
469
469
463
455
449
439
428
417
408
400
389
383
372
357
341
322
301
281
262
257
271
325
409
519
626
718
789
845
883
908
916
919
912
899
879
867
848
826
805
778
750
718
686
658
636
623
618
616
614
610
599
586
566
550
534
514
493
475
453
433
415
393
376
355
333
311
293
273
251
230
217
214
243
313
413
526
638
724
798
850
888
907
915
917
912
903
891
877
867
856
840
822
801
777
754
728
704
682
675
670
666
659
648
638
626
610
594
578
559
538
518
499
481
460
441
421
404
383
361
341
322
305
297
302
345
417
514
614
704
778
834
873
897
907
909
904
895
884
871
855
842
826
806
785
758
730
704
679
658
647
639
634
631
620
610
594
575
554
527
503
481
460
439
417
396
375
353
331
310
289
267
249
233
211
190
173
156
156
189
258
357
473
574
664
738
788
822
834
842
837
826
814
798
782
766
750
730
704
676
646
624
608
598
591
586
586
587
590
586
579
566
550
534
515
497
477
459
437
417
399
377
356
337
317
297
278
261
241
222
205
189
175
168
190
251
341
453
563
654
728
778
810
829
837
834
824
813
798
778
762
746
725
701
674
647
623
602
591
580
574
578
580
582
580
572
558
547
534
514
493
475
453
436
415
393
372
351
333
311
290
273
253
237
217
199
181
160
156
167
209
290
397
509
611
692
758
800
824
834
834
829
814
798
782
766
745
724
698
671
647
622
600
579
570
566
563
562
567
570
566
555
542
526
508
489
473
452
431
409
392
371
345
323
299
281
259
235
213
195
174
152
134
126
136
181
266
377
484
580
662
709
744
762
764
761
750
738
720
698
680
659
634
603
574
542
508
489
477
469
475
485
492
503
509
509
507
501
488
467
445
428
409
389
368
347
329
307
286
265
243
225
205
185
168
156
155
177
241
335
443
550
634
698
746
774
788
794
786
768
746
725
698
662
628
588
550
515
488
477
471
476
485
496
504
509
508
500
489
475
461
445
428
409
393
377
359
341
323
302
289
271
250
229
211
193
177
175
202
273
380
503
622
721
804
875
907
931
943
948
945
935
920
907
895
879
865
850
829
808
778
749
728
710
700
692
682
680
672
662
651
638
626
612
594
574
556
538
522
505
487
469
449
433
413
396
377
357
360
387
441
524
618
706
782
844
891
916
929
935
932
921
911
896
885
875
859
842
822
800
773
746
721
700
686
676
671
670
659
648
634
612
591
570
540
516
489
463
436
405
380
359
337
317
298
277
255
234
213
197
191
209
273
364
469
576
664
738
789
824
846
846
846
838
818
802
790
777
758
738
714
685
654
631
607
594
586
583
582
582
582
578
571
558
542
526
507
485
464
443
421
404
383
361
341
322
301
279
261
241
219
201
185
186
210
269
364
473
574
664
734
786
817
833
838
832
821
806
792
778
758
737
716
690
658
631
610
591
578
574
570
570
570
572
567
558
546
527
509
488
467
445
424
405
385
363
338
321
299
278
257
239
218
197
179
163
152
168
217
301
409
519
614
690
746
790
802
810
810
802
784
770
754
736
714
693
668
642
620
599
582
568
563
562
558
558
558
552
544
530
518
499
477
456
435
413
388
367
341
318
291
265
239
215
193
167
143
116
96
83
80
114
191
297
408
509
598
655
696
718
728
728
714
700
686
666
648
627
602
574
542
509
488
467
457
455
463
473
485
496
501
503
500
489
479
468
457
443
432
417
401
383
365
349
333
317
299
281
265
249
238
233
265
326
417
518
614
698
764
806
838
849
852
842
830
812
790
769
745
718
686
654
622
586
559
538
526
523
526
530
532
534
527
514
497
481
463
445
424
405
385
364
345
325
305
286
269
249
230
209
191
178
173
218
290
393
509
622
714
789
842
879
900
911
907
900
889
875
860
846
830
813
792
770
744
717
690
668
650
642
634
631
630
628
623
614
602
583
566
548
527
505
488
469
449
433
417
401
380
359
345
327
311
305
325
379
461
558
654
738
806
852
887
901
909
907
900
889
875
860
846
834
817
796
774
746
717
686
666
652
642
632
627
622
610
594
574
552
531
505
484
463
445
424
403
381
364
348
329
307
286
269
247
229
209
199
205
233
315
415
518
615
698
754
794
818
826
829
821
810
794
778
762
748
732
710
688
660
630
608
592
582
576
574
574
578
575
566
550
536
518
496
475
457
436
417
397
376
355
333
310
286
269
249
230
209
193
177
156
151
170
225
318
423
530
623
693
746
780
796
806
800
786
770
758
740
726
705
684
662
628
599
582
567
559
554
559
567
570
570
567
558
546
527
509
488
467
445
424
403
381
359
337
317
294
270
253
231
210
189
167
146
124
114
116
152
