6.88
7.6
7.97
8.16
8.13
8.03
7.84
7.65
7.49
7.28
6.96
6.59
6.08
5.39
4.53
3.76
3.04
2.35
1.84
1.33
0.85
0.4
-0.08
-0.61
-1.12
-1.55
-1.97
-2.4
-2.91
-3.33
-3.76
-4.27
-4.69
-5.2
-5.23
-4.43
-2.56
0.03
2.69
4.64
6.08
6.93
7.44
7.57
7.63
7.52
7.33
7.17
6.96
6.75
6.64
6.16
5.71
5.07
4.32
3.65
2.91
2.24
1.63
1.09
0.64
0.13
-0.35
-0.88
-1.39
-1.81
-2.24
-2.69
-3.17
-3.68
-4.19
-4.61
-5.04
-5.55
-5.97
-6.4
-5.76
-4.16
-1.68
0.99
3.28
4.8
5.76
6.29
6.56
6.61
6.51
6.32
6.11
5.89
5.68
5.39
5.07
4.56
3.87
3.07
2.32
1.68
1.15
0.64
0.19
-0.29
-0.64
-1.07
-1.55
-2.08
-2.61
-3.15
-3.68
-4.21
-4.75
-5.28
-5.89
-6.43
-6.96
-7.49
-8.03
-8.48
-7.92
-6.37
-4.08
-1.41
0.83
2.32
3.28
3.81
4
4.03
3.81
3.52
3.12
2.75
2.32
1.89
1.41
0.72
-0.05
-0.85
-1.6
-2.13
-2.61
-3.04
-3.36
-3.68
-3.92
-4.16
-4.48
-4.88
-5.23
-5.6
-5.92
-6.35
-6.77
-7.12
-7.52
-7.84
-8.24
-8.43
-8.16
-7.12
-4.45
-1.73
0.8
2.67
3.95
4.56
4.91
5.01
4.88
4.53
4.16
3.76
3.33
2.85
2.24
1.57
0.83
0
-0.59
-1.07
-1.52
-1.73
-1.95
-2.24
-2.45
-2.72
-2.96
-3.28
-3.6
-3.92
-4.24
-4.56
-4.88
-5.23
-5.65
-5.84
-5.47
-3.81
-1.2
1.57
2.96
6
7.04
7.73
8.08
8.19
8.13
7.92
7.71
7.44
7.12
6.77
6.35
5.84
5.17
4.37
3.6
2.77
2.03
1.36
0.83
0.29
-0.24
-0.77
-1.25
-1.76
-2.37
-2.85
-3.28
-3.71
-4.19
-4.64
-5.07
-5.44
-5.68
-4.83
-2.91
-0.24
2.48
4.61
6.16
7.15
7.73
8.08
8.08
7.97
7.84
7.63
7.41
7.28
7.04
6.67
6.24
5.6
4.85
4.08
3.25
2.56
2
1.41
0.99
0.56
0.05
-0.37
-0.8
-1.23
-1.65
-2.08
-2.51
-2.99
-3.44
-3.87
-4.35
-4.8
-5.01
-4.48
-2.96
-0.37
2.29
4.48
6.16
7.12
7.68
7.87
7.97
7.92
7.81
7.65
7.52
7.31
7.09
6.8
6.35
5.76
4.96
4.11
3.36
2.64
2.11
1.57
1.04
0.53
0.05
-0.4
-0.93
-1.47
-1.92
-2.35
-2.77
-3.2
-3.65
-4.19
-4.64
-5.15
-5.52
-5.84
-5.31
-3.71
-1.2
1.39
3.57
5.12
6.13
6.61
6.8
6.88
6.77
6.56
6.35
6.13
5.92
5.68
5.31
4.8
4.16
3.47
2.72
1.97
1.33
0.72
0.32
-0.05
-0.4
-0.83
-1.25
-1.68
-2.11
-2.59
-3.12
-3.57
-3.84
-4.64
-5.09
-5.68
-6.16
-6.69
-7.23
-7.68
-7.49
-6.21
-4
-1.28
1.07
2.8
4
4.59
4.88
4.93
4.72
4.4
4.08
3.71
3.36
2.93
2.51
1.92
1.23
0.43
-0.4
-1.04
-1.57
-2
-2.4
-2.72
-3.04
-3.41
-3.68
-4
-4.43
-4.8
-5.2
-5.73
-6.21
-6.72
-7.17
-7.76
-8.32
-8.83
-9.25
-9.52
-8.99
-7.39
-4.88
-2.08
0.27
2
3.17
3.71
4
4.03
3.76
3.36
2.93
2.51
2.08
1.52
0.88
0.16
-0.59
-1.28
-1.84
-2.27
-2.59
-2.88
-3.09
-3.31
-3.52
-3.81
-4.03
-4.32
-4.64
-4.91
-5.2
-5.44
-5.81
-6.16
-6.45
-6.72
-6.4
-5.12
-2.67
0.32
3.07
5.2
6.72
7.49
7.97
8.16
8.05
7.89
7.6
7.28
6.96
6.56
6.13
5.6
4.96
4.21
3.41
2.64
1.92
1.28
0.64
0.11
-0.37
-0.88
-1.33
-1.81
-2.24
-2.67
-3.04
-3.44
-3.87
-4.29
-4.72
-5.15
-5.47
-5.28
-3.92
-1.52
1.2
3.73
5.6
6.96
7.68
8.05
8.24
8.21
8.05
7.84
7.65
7.49
7.28
6.93
6.51
5.92
5.25
4.45
3.68
2.88
2.56
1.6
1.09
0.61
0.16
-0.37
-0.91
-1.44
-1.87
-2.29
-2.72
-3.15
-3.57
-4
-4.51
-4.93
-5.44
-5.23
-4.11
-2
0.72
3.28
5.12
6.45
7.2
7.6
7.71
7.71
7.6
7.41
7.25
7.04
6.75
6.53
6.16
5.68
5.04
4.32
3.57
2.88
2.24
1.63
1.09
0.64
0.13
-0.35
-0.88
-1.39
-1.81
-2.24
-2.69
-3.17
-3.6
-4.11
-4.53
-4.96
-5.47
-5.84
-6.16
-5.49
-3.79
-1.28
1.36
3.55
5.04
6
6.48
6.64
6.69
6.59
6.4
6.19
5.97
5.76
5.47
5.15
4.72
4.08
3.44
2.72
2.05
1.41
0.96
0.56
0.19
-0.16
-0.59
-1.01
-1.44
-1.87
-2.29
-2.72
-3.17
-3.65
-4.08
-4.51
-4.99
-5.44
-5.95
-6.32
-6.64
-5.68
-3.76
-1.2
1.25
3.28
4.48
5.31
5.63
5.68
5.63
5.41
5.12
4.72
4.4
4.08
3.65
3.17
2.56
1.87
1.01
0.08
-0.48
-1.01
-1.52
-1.92
-2.24
-2.64
-3.07
-3.55
-4
-4.53
-5.07
-5.6
-6.13
-6.67
-7.2
-7.81
-8.35
-8.8
-9.31
-9.73
-10.16
-9.84
-8.56
-6.16
-3.28
-0.72
1.12
2.45
2.88
3.52
3.57
3.41
3.04
2.61
2.19
1.76
1.23
0.64
-0.08
-0.85
-1.65
-2.4
-2.8
-3.17
-3.52
-3.73
-3.95
-4.08
-4.29
-4.56
-4.8
-5.12
-5.44
-5.76
-6.08
-6.4
-6.72
-7.01
-7.28
-7.52
-7.33
-6.21
-4.08
-1.09
1.68
3.84
5.39
6.45
7.04
7.28
7.28
7.12
6.8
6.53
6.24
5.81
5.39
4.88
4.16
3.47
2.72
1.95
1.2
0.48
0.05
-0.37
-0.72
-1.12
-1.49
-1.92
-2.27
-2.64
-3.04
-3.47
-3.89
-4.32
-4.72
-5.09
-5.36
-5.25
-3.97
-1.68
1.09
3.6
5.76
6.99
7.84
8.24
8.43
8.43
8.32
8.19
8.03
7.84
7.63
7.41
7.04
6.48
5.84
5.12
4.37
3.63
2.96
2.35
1.81
1.28
0.83
0.35
-0.16
-0.69
-1.28
-1.76
-2.27
-2.69
-3.12
-3.55
-3.97
-4.48
-4.85
-4.91
-3.92
-1.97
0.69
3.28
5.23
6.61
7.68
8.08
8.24
8.32
8.19
7.97
7.76
7.55
7.33
7.12
6.77
6.29
5.76
5.09
4.29
3.6
2.91
2.32
1.84
1.33
0.91
0.4
-0.05
-0.59
-1.12
-1.65
-2.24
-2.72
-3.15
-3.57
-4
-4.51
-4.72
-5.36
-5.57
-5.2
-3.6
-1.17
1.39
3.52
5.04
6.05
6.72
6.85
6.91
6.8
6.59
6.37
6.24
6.03
5.81
5.52
5.07
4.48
3.84
3.09
2.29
1.6
1.01
0.64
0.24
-0.11
-0.53
-0.96
-1.39
-1.81
-2.24
-2.67
-3.15
-3.6
-4.03
-4.51
-4.96
-5.39
-5.81
-6.24
-6.56
-6.29
-4.8
-2.43
0.29
2.64
4.32
5.33
6.08
6.19
6.19
6
5.68
5.36
5.12
4.8
4.48
4.08
3.52
2.83
2.08
1.47
0.88
0.24
-0.37
-0.91
-1.36
-1.79
-2.21
-2.72
-3.17
-3.71
-4.24
-4.77
-5.36
-5.84
-6.37
-6.91
-7.44
-7.97
-8.45
-8.96
-9.36
-9.52
-8.72
-6.93
-4.21
-1.6
0.43
1.81
2.8
3.12
3.28
3.28
3.01
2.59
2.16
1.73
1.31
0.72
0.05
-0.64
-1.36
-2.16
-2.75
-3.2
-3.57
-3.84
-4.08
-4.37
-4.59
-4.8
-5.04
-5.36
-5.68
-6
-6.32
-6.64
-6.96
-7.28
-7.52
-7.84
-7.95
-7.6
-5.95
-3.39
-0.48
2.21
4.19
5.6
6.35
6.67
6.88
6.75
6.48
6.16
5.76
5.39
4.96
4.4
3.76
3.04
2.29
1.6
0.96
0.53
0.32
-0.24
-0.64
-0.96
-1.36
-1.71
-2.13
-2.56
-2.91
-3.33
-3.76
-4.19
-4.61
-4.96
-5.2
-4.93
-3.84
-1.39
1.33
3.92
5.76
7.09
7.92
8.43
8.53
8.56
8.35
8.13
7.92
7.71
7.44
7.04
6.61
6.08
5.36
4.61
3.87
3.12
2.45
1.87
1.36
0.91
0.43
-0.08
-0.61
-1.15
-1.68
-2.21
-2.75
-3.36
-3.79
-4.21
-4.64
-5.04
-5.31
-4.72
-3.12
-0.56
2.16
4.37
6.03
7.12
7.71
8.03
8.16
8.05
7.95
7.76
7.63
7.41
7.2
6.93
6.51
6
5.31
4.45
3.76
3.04
2.4
1.92
1.39
0.91
0.4
-0.05
-0.53
-1.04
-1.47
-1.89
-2.32
-2.75
-3.23
-3.76
-4.21
-4.69
-5.04
-4.83
-3.76
-1.52
1.04
3.39
5.2
6.35
7.09
7.44
7.47
7.47
7.28
7.09
6.93
6.72
6.51
6.24
5.84
5.31
4.67
3.92
3.17
2.43
1.84
1.25
0.77
0.32
-0.21
-0.75
-1.28
-1.71
-2.13
-2.64
-3.15
-3.57
-4
-4.43
-4.85
-5.28
-5.71
-6.13
-6.16
-5.2
-3.07
-0.4
2.13
4
5.36
6.08
6.45
6.64
6.53
6.37
6.16
5.87
5.76
5.36
4.93
4.51
3.92
3.17
2.37
1.6
0.88
0.24
-0.32
-0.83
-1.25
-1.68
-2.21
-2.69
-3.2
-3.73
-4.32
-4.88
-5.49
-6.03
-6.64
-7.17
-7.71
-8.32
-8.85
-9.33
-9.68
-9.17
-7.52
-4.88
-2.19
0.05
1.76
2.77
3.31
3.6
3.55
3.28
2.88
2.48
2.11
1.68
1.23
0.59
-0.16
-0.91
-1.6
-2.16
-2.69
-3.17
-3.44
-3.73
-4
-4.24
-4.48
-4.75
-5.04
-5.44
-5.76
-6.08
-6.45
-6.72
-7.12
-7.44
-7.76
-8.08
-7.84
-6.67
-4.56
-1.63
1.2
3.2
4.64
5.44
5.92
6
5.89
5.68
5.36
4.99
4.64
4.21
3.73
3.12
2.37
1.68
1.04
0.59
0.11
-0.24
-0.53
-0.8
-1.12
-1.55
-1.92
-2.32
-2.75
-3.17
-3.6
-4.03
-4.45
-4.88
-5.28
-5.55
-5.28
-3.79
-1.33
1.6
3.92
5.84
7.2
7.95
8.37
8.48
8.43
8.27
8.08
7.76
7.49
7.28
6.93
6.45
5.84
5.07
4.21
3.36
2.61
1.97
1.36
0.83
0.35
-0.16
-0.61
-1.2
-1.76
-2.19
-2.61
-3.04
-3.55
-3.97
-4.4
-4.83
-5.2
-5.04
-4
-1.71
1.04
3.49
4.56
6.88
7.52
7.95
8.16
8.16
8.05
7.92
7.71
7.55
7.36
7.04
6.67
6.24
5.55
4.69
3.92
3.12
2.48
1.92
1.41
0.93
0.4
-0.05
-0.59
-1.12
-1.55
-1.97
-2.4
-2.83
-3.25
-3.68
-4.19
-4.61
-5.04
-5.12
-4.43
-2.56
0
2.51
4.56
5.95
6.8
7.36
7.47
7.47
7.36
7.23
6.96
6.8
6.59
6.32
6
5.52
4.88
4.16
3.41
2.67
2
1.39
0.85
0.4
-0.05
-0.59
-1.12
-1.57
-2.05
-2.48
-2.93
-3.47
-3.92
-4.35
-4.83
-5.28
-5.73
-6.21
-6.56
-5.95
-4.35
-1.84
0.91
3.15
4.72
5.73
6.32
6.64
6.53
6.37
6.16
5.87
5.6
5.36
5.01
4.59
4.08
3.33
2.59
1.84
1.04
0.4
-0.16
-0.75
-1.23
-1.68
-2.19
-2.67
-3.2
-3.73
-4.27
-4.8
-5.41
-6
-6.56
-7.12
-7.71
-8.24
-8.8
-9.33
-9.76
-9.63
-8.67
-6.48
-3.68
-1.17
0.8
2.11
2.91
3.36
3.36
3.25
2.96
2.53
2.11
1.68
1.23
0.69
0.08
-0.69
-1.39
-2
-2.53
-3.01
-3.36
-3.73
-3.95
-4.16
-4.48
-4.8
-5.12
-5.36
-5.52
-6
-6.4
-6.72
-6.96
-7.31
-7.68
-8
-8.05
-7.36
-5.84
-3.04
-0.11
2.32
4.19
5.25
5.92
6.19
6.24
6.08
5.84
5.47
5.12
4.69
4.21
3.6
2.96
2.27
2.08
0.91
0.43
0.08
-0.32
-0.59
-0.96
-1.36
-1.68
-2.08
-2.51
-2.93
-3.36
-3.79
-4.21
-4.64
-5.04
-5.41
-5.44
-4.51
-2.43
0.4
3.07
5.25
6.88
7.79
8.37
8.56
8.61
8.51
8.32
8.11
7.89
7.6
7.25
6.83
6.24
5.57
4.83
4.16
3.41
2.67
2
1.47
0.99
0.48
0.03
-0.51
-1.04
-1.57
-2.11
-2.64
-3.17
-3.71
-4.16
-4.59
-5.01
-5.2
-4.61
-2.96
-0.4
2.29
4.53
6.32
7.33
7.92
8.24
8.27
8.27
8.16
7.97
7.81
7.6
7.39
7.07
6.64
6.08
5.39
4.64
3.84
3.15
2.56
1.97
1.49
1.04
0.51
0.03
-0.48
-1.01
-1.55
-2.08
-2.51
-2.99
-3.44
-3.87
-4.35
-4.88
-4.91
-4.16
-2.4
0.13
2.64
4.56
5.92
6.77
7.28
7.47
7.47
7.36
7.17
7.01
6.8
6.61
6.45
6.08
5.6
4.96
4.24
3.49
2.69
2
1.39
1.12
0.4
-0.13
-0.67
-1.2
-1.71
-2.13
-2.56
-3.01
-3.49
-4
-4.51
-4.99
-5.44
-5.95
-6.37
-6.72
-5.87
-4.05
-1.44
1.31
3.55
4.96
5.92
6.4
6.64
6.67
6.51
6.32
6.08
5.81
5.6
5.25
4.83
4.24
3.47
2.72
2
1.33
0.64
0.08
-0.45
-0.99
-1.44
-1.87
-2.35
-2.88
-3.44
-4.03
-4.64
-5.17
-5.76
-6.32
-6.93
-7.47
-8.08
-8.61
-9.09
-9.52
-8.75
-6.99
-4.48
-1.73
0.51
2
2.96
3.44
3.6
3.63
3.41
3.04
2.61
2.19
1.76
1.31
0.72
-0.08
-0.93
-1.73
-2.4
-2.91
-3.33
-3.68
-4.05
-4.32
-4.56
-4.85
-5.12
-5.52
-5.84
-6.16
-6.48
-6.88
-7.25
-7.6
-8
-8.32
-8.64
-8.64
-7.73
-5.84
-2.85
0.03
2.4
3.95
4.96
5.44
5.68
5.57
5.36
5.04
4.67
4.24
3.81
3.39
2.72
1.97
1.23
0.56
0.05
-0.37
-0.8
-1.04
-1.31
-1.6
-1.81
-2.08
-2.32
-2.64
-3.01
-3.44
-3.87
-4.29
-4.8
-5.2
-5.52
-5.28
-4.05
-1.6
1.28
3.87
5.89
7.44
8.08
8.51
8.72
8.67
8.45
8.24
8.03
7.92
7.52
7.17
6.69
6.08
5.33
4.53
3.76
2.96
2.32
1.76
1.25
0.77
0.24
-0.29
-0.83
-1.36
-1.81
-2.4
-2.96
-3.47
-3.95
-4.4
-4.75
-4.96
-4.72
-2.99
-0.53
2.16
4.51
6.16
7.28
7.95
8.27
8.4
8.29
8.19
8.08
7.87
7.6
7.44
7.17
6.75
6.24
5.49
4.75
4
3.36
2.77
2.24
1.73
1.25
0.8
0.35
-0.19
-0.8
-1.33
-1.92
-2.48
-2.93
-3.41
-3.84
-4.35
-4.72
-4.96
-4.11
-2.29
0.24
2.69
4.61
6
6.99
7.41
7.6
7.68
7.63
7.44
7.31
7.09
6.88
6.64
6.32
5.84
5.28
4.59
3.92
3.15
2.45
1.84
1.31
0.83
0.32
-0.29
-0.88
-1.44
-1.95
-2.43
-2.96
-3.41
-3.89
-4.4
-4.85
-5.39
-5.84
-6.21
-6.11
-5.04
-2.67
0
2.48
4.21
5.49
6.24
6.64
6.69
6.72
6.51
6.29
6.08
5.87
5.65
5.36
4.91
4.32
3.68
2.83
2.08
1.44
0.91
0.43
-0.08
-0.51
-0.93
-1.44
-1.97
-2.51
-3.04
-3.57
-4.16
-4.8
-5.33
-5.92
-6.48
-7.12
-7.76
-8.32
-8.59
-7.95
-6.32
-3.71
-2.32
1.04
2.45
3.47
4
4.24
4.19
4
3.68
3.36
2.96
2.61
2.19
1.6
0.93
0.13
-0.64
-1.36
-1.95
-2.4
-2.83
-3.15
-3.44
-3.84
-4.16
-4.48
-4.88
-5.2
-5.6
-6.03
-6.4
-6.8
-7.23
-7.65
-8
-8.4
-8.72
-8.32
-6.83
-4.27
-1.44
0.91
2.72
3.92
4.53
4.91
5.04
4.83
4.61
4.24
3.81
3.39
2.88
2.32
1.63
0.88
0.13
-0.61
-1.04
-1.36
-1.68
-1.92
-2.16
-2.43
-2.72
-3.04
-3.36
-3.68
-4
-4.32
-4.64
-4.99
-5.36
-5.68
-5.89
-5.63
-4.24
-1.79
1.09
3.52
5.49
6.77
7.6
7.92
8.08
8.08
7.95
7.73
7.44
7.15
6.83
6.4
5.92
5.23
4.48
3.73
2.93
2.24
1.6
0.96
0.48
-0.05
-0.59
-1.12
-1.63
-2.05
-2.48
-2.93
-3.41
-3.84
-4.35
-4.83
-5.28
-5.49
-5.28
-4.24
-1.65
1.07
3.52
5.39
6.67
7.36
7.81
8.03
8.08
7.95
7.79
7.6
7.39
7.17
6.88
6.43
5.89
5.2
4.35
3.55
2.8
2.16
1.57
1.04
0.51
-0.03
-0.56
-0.99
-1.41
-1.84
-2.35
-2.77
-3.28
-3.71
-3.92
-4.64
-5.07
-5.49
-5.76
-5.15
-3.44
-0.88
1.73
3.92
5.52
6.48
7.12
7.36
7.52
7.52
7.36
7.15
6.99
6.8
6.56
6.19
5.76
5.12
4.48
3.68
2.93
2.24
1.6
1.07
0.59
0.16
-0.27
-0.69
-1.12
-1.55
-2.03
-2.48
-2.99
-3.41
-3.92
-4.35
-4.77
-5.28
-5.71
-6.08
-6.16
-5.39
-3.47
-0.8
1.63
3.65
5.04
5.84
6.43
6.56
6.64
6.59
6.4
6.19
6.03
5.84
5.57
5.15
4.64
4
3.36
2.72
2.11
1.57
1.04
0.64
0.27
-0.16
-0.59
-1.01
-1.44
-1.95
-2.37
-2.8
-3.33
-3.81
-4.32
-4.77
-5.25
-5.68
-6.19
-6.56
-6.96
-6.8
-5.52
-3.28
-0.61
1.79
3.6
4.72
5.36
5.6
5.76
5.65
5.44
5.12
4.85
4.56
4.13
3.71
3.2
2.51
1.71
1.04
0.4
-0.19
-0.72
-1.04
-1.41
-1.84
-2.27
-2.75
-3.2
-3.71
-4.19
-4.72
-5.28
-5.87
-6.4
-6.85
-7.39
-7.92
-8.45
-8.99
-9.44
-9.87
-10.08
-9.84
-7.95
-5.39
-2.64
-0.35
1.36
2.4
2.99
3.31
3.36
3.23
2.96
2.56
2.13
1.71
1.2
0.56
0.24
-0.96
-1.6
-2.19
-2.64
-2.96
-3.23
-3.52
-3.73
-3.95
-4.16
-4.37
-4.64
-4.88
-5.2
-5.47
-5.76
-6
-6.32
-6.64
-6.93
-7.2
-7.12
-6.11
-4.13
-1.36
1.25
3.44
5.04
6.11
6.8
7.04
7.09
6.93
6.72
6.4
6.08
5.68
5.25
4.77
4.16
3.41
2.67
1.84
1.12
0.53
0.08
-0.24
-0.61
-0.96
-1.36
-1.73
-2.16
-2.59
-3.01
-3.44
-3.87
-4.29
-4.72
-5.12
-5.39
-5.04
-3.71
-1.2
1.52
3.97
5.79
7.12
7.76
8.19
8.4
8.4
8.29
8.16
7.95
7.73
7.52
7.2
6.77
6.24
5.57
4.83
4.08
3.36
2.72
2.16
1.65
1.23
0.72
0.19
-0.35
-0.88
-1.44
-2.08
-2.56
-2.99
-3.41
-3.84
-4.29
-4.77
-5.12
-5.09
-4.24
-2.24
0.43
2.99
5.04
6.43
7.28
7.92
8.03
8.08
8.08
7.95
7.73
7.6
7.39
7.17
6.8
6.35
5.76
5.04
4.21
3.52
2.96
2.37
1.89
1.44
1.01
0.53
0
-0.53
-1.01
-1.44
-1.87
-2.35
-2.8
-3.23
-3.71
-4.16
-4.67
-5.09
-5.52
-5.36
-4.35
-2.16
0.53
2.93
4.8
5.97
6.4
7.12
7.15
7.2
7.12
6.91
6.69
6.56
6.35
6.08
5.76
5.28
4.64
3.92
3.25
2.51
1.92
1.33
0.85
0.4
0.05
-0.32
-0.72
-1.15
-1.57
-2.08
-2.51
-2.99
-3.44
-3.95
-4.43
-4.88
-5.39
-5.81
-6.24
-6.45
-6.03
-4.4
-1.87
0.85
3.12
4.64
5.65
6.32
6.43
6.48
6.32
6.11
5.84
5.6
5.39
5.12
4.8
4.32
3.68
2.96
2.43
1.84
1.28
0.88
0.56
0.24
-0.11
-0.53
-0.96
-1.39
-1.81
-2.32
-2.77
-3.36
-3.92
-4.45
-4.99
-5.44
-6
-6.59
-7.12
-7.57
-8.05
-8.16
-7.36
-5.33
-2.72
-0.21
1.81
3.36
4
4.43
4.56
4.48
4.16
3.76
3.41
2.99
2.56
2.11
1.57
0.96
0.13
-0.61
-1.2
-1.79
-2.16
-2.56
-2.85
-3.07
-3.36
-3.57
-3.79
-4.08
-4.48
-4.8
-5.12
-5.44
-5.76
-6.16
-6.59
-7.01
-7.52
-7.92
-8.24
-8
-6.88
-4.53
-1.84
0.61
2.43
3.76
4.37
4.69
4.8
4.67
4.4
4.08
3.65
3.23
2.8
2.24
1.6
0.96
0.16
-0.37
-0.8
-1.17
-1.39
-1.6
-1.81
-2.03
-2.24
-2.45
-2.56
-2.96
-3.28
-3.6
-3.84
-4.08
-4.45
-4.88
-5.31
-5.47
-5.12
-3.36
-0.8
1.92
4.35
6
7.12
7.79
8.05
8.24
8.13
7.97
7.68
7.44
7.12
6.8
6.37
5.89
5.2
4.45
3.76
3.04
2.4
1.76
1.2
0.69
0.21
-0.24
-0.75
-1.23
-1.84
-2.37
-2.85
-3.28
-3.71
-4.13
-4.56
-4.99
-5.31
-5.36
-4.35
-2.21
0.56
3.04
5.07
6.48
7.47
7.89
8.08
8.16
8.05
7.84
7.63
7.41
7.28
7.04
6.67
6.16
5.6
4.91
4.08
3.33
2.69
2.08
1.63
1.15
0.72
0.29
-0.19
-0.72
-1.15
-1.57
-2.08
-2.51
-2.93
-3.36
-3.79
-4.27
-4.64
-4.83
-4.19
-2.56
0.05
2.61
4.8
6.19
7.15
7.68
7.92
7.97
7.92
7.79
7.57
7.36
7.23
7.01
6.72
6.27
5.68
5.04
4.37
3.63
2.96
2.4
1.87
1.36
0.93
0.51
0
-0.61
-1.15
-1.76
-2.27
-2.75
-3.28
-3.71
-4.13
-4.56
-5.01
-5.55
-5.68
-5.2
-3.6
-1.12
1.55
3.73
5.36
6.27
6.85
7.04
7.09
6.99
6.8
6.59
6.37
6.16
5.95
5.68
5.28
4.72
4.4
3.28
2.56
1.92
1.28
0.72
0.19
-0.24
-0.67
-1.09
-1.52
-2.03
-2.51
-2.96
-3.47
-3.95
-4.48
-4.93
-5.41
-5.84
-6.29
-6.77
-7.04
-6.91
-5.68
-3.44
-0.83
1.52
3.28
4.29
4.99
5.28
5.41
5.31
5.12
4.77
4.4
4.08
3.73
3.31
2.72
2.05
1.31
0.56
-0.13
-0.67
-1.12
-1.55
-1.87
-2.16
-2.48
-2.8
-3.2
-3.73
-4.27
-4.8
-5.31
-5.79
-6.4
-6.93
-7.47
-8
-8.53
-9.07
-9.28
-8.8
-7.15
-4.64
-1.87
0.43
2.16
3.15
3.73
3.92
3.87
3.6
3.2
2.77
2.29
1.84
1.31
0.72
0.08
-0.69
-1.28
-1.84
-2.27
-2.64
-2.96
-3.17
-3.39
-3.6
-3.81
-4.08
-4.32
-4.61
-4.88
-5.2
-5.55
-5.92
-6.24
-6.48
-6.75
-6.56
-5.41
-3.12
-0.32
2.32
4.35
5.92
6.75
7.23
7.44
7.41
7.25
6.96
6.59
6.32
5.92
5.47
4.88
4.16
3.41
2.67
1.92
1.2
0.51
0
-0.43
-0.85
-1.28
-1.63
-2.05
-2.48
-2.91
-3.33
-3.76
-4.19
-4.67
-5.12
-5.47
-5.63
-5.28
-3.31
-0.8
1.92
4.29
6.05
7.12
7.79
8
8.16
8.19
7.97
7.76
7.55
7.33
7.12
6.77
6.29
5.68
4.91
4.11
3.36
2.69
2
1.44
0.99
0.45
-0.08
-0.59
-1.07
-1.6
-2.11
-2.53
-2.96
-3.39
-3.81
-4.32
-4.75
-5.12
-5.28
-4.53
-2.67
0
2.53
4.67
6.16
7.12
7.71
7.84
7.92
7.87
7.68
7.47
7.31
7.12
6.88
6.56
6.08
5.44
4.8
4
3.25
2.56
1.92
1.47
0.99
0.48
0.03
-0.51
-1.04
-1.55
-1.97
-2.4
-2.85
-3.33
-3.76
-4.21
-4.69
-5.12
-5.47
-5.41
-4.4
-2.32
0.24
2.8
4.48
5.81
6.64
6.99
7.15
7.12
7.01
6.91
6.72
6.51
6.35
6.16
5.73
5.25
4.64
3.95
3.36
2.72
2.08
1.49
0.96
0.51
0.03
-0.32
-0.75
-1.17
-1.6
-2.11
-2.53
-2.96
-3.47
-3.89
-4.4
-4.83
-5.25
-5.76
-6.11
-6.05
-5.04
-2.83
-0.11
2.56
4.24
5.52
6.24
6.59
6.69
6.64
6.43
6.16
5.92
5.68
5.36
4.96
4.51
3.92
3.2
2.35
1.49
0.72
0.11
-0.43
-0.96
-1.41
-1.89
-2.32
-2.85
-3.39
-3.92
-4.53
-5.07
-5.6
-6.16
-6.48
-7.36
-7.89
-8.43
-8.96
-9.55
-9.92
-9.84
-8.56
-6.32
-3.52
-1.12
0.75
2.08
2.83
3.2
3.28
3.12
2.8
2.4
1.97
1.55
1.12
0.56
-0.13
-0.96
-1.73
-2.32
-2.88
-3.31
-3.68
-4
-4.21
-4.43
-4.72
-4.93
-5.2
-5.44
-5.76
-6.08
-6.48
-6.8
-7.12
-7.44
-7.76
-8.08
-8.08
-7.39
-5.47
-2.72
0.03
2.43
4.4
5.44
6.19
6.56
6.53
6.32
6.08
5.65
5.28
4.88
4.43
3.84
3.2
2.48
1.84
1.28
0.75
0.27
-0.16
-0.51
-0.93
-1.36
-1.68
-2.05
-2.48
-2.91
-3.33
-3.76
-4.19
-4.61
-5.04
-5.47
-5.57
-5.04
-3.17
-0.51
2.24
4.67
6.32
7.52
8.19
8.45
8.56
8.45
8.29
8.08
7.87
7.6
7.36
6.93
6.4
5.76
4.99
4.24
3.52
2.77
2.08
1.52
1.01
0.53
0.08
-0.45
-0.99
-1.52
-2.05
-2.59
-3.04
-3.47
-3.89
-4.32
-4.75
-5.01
-4.72
-3.09
-0.69
2
4.24
5.95
7.04
7.73
8
8.08
8.13
7.97
7.76
7.63
7.41
7.2
6.93
6.51
5.92
5.28
4.53
3.68
3.01
2.37
1.84
1.39
1.12
0.4
-0.11
-0.59
-1.12
-1.65
-2.19
-2.64
-3.07
-3.49
-4
-4.43
-4.91
-5.28
-5.28
-4.27
-2.32
0.37
2.77
4.64
5.81
6.56
6.96
7.2
7.15
6.96
6.83
6.61
6.4
6.27
6
5.6
5.12
4.48
3.84
3.15
2.35
1.68
1.12
0.59
0.16
-0.27
-0.69
-1.12
-1.55
-1.97
-2.4
-2.91
-3.33
-3.84
-4.29
-4.77
-5.2
-5.65
-6.13
-6.08
-5.04
-2.91
-0.16
2.37
4.29
5.6
6.29
6.72
6.88
6.75
6.53
6.32
6.03
5.81
5.52
5.17
4.69
4.08
3.31
2.4
1.52
0.72
0.13
-0.4
-0.93
-1.41
-1.92
-2.37
-2.85
-3.36
-3.89
-4.43
-4.96
-5.49
-6.03
-6.64
-7.17
-7.76
-8.32
-8.85
-9.33
-9.12
-8.03
-5.73
-3.04
-0.61
1.25
2.48
3.07
3.39
3.52
3.31
3.04
2.64
2.21
1.79
1.36
0.83
0.19
-0.64
-1.44
-2.08
-2.64
-3.15
-3.52
-3.84
-4.08
-4.35
-4.56
-4.8
-5.12
-5.44
-5.81
-6.08
-6.48
-6.83
-7.2
-7.52
-7.84
-8.11
-8
-6.96
-4.77
-1.92
0.77
2.96
4.48
5.39
5.81
6
5.87
5.65
5.36
4.96
4.8
4.16
3.71
3.07
2.32
1.65
1.01
0.48
0.05
-0.37
-0.64
-0.93
-1.2
-1.6
-2.03
-2.4
-2.8
-3.23
-3.65
-4.08
-4.51
-4.93
-5.36
-5.55
-5.23
-4.16
-1.49
1.28
3.84
5.81
7.2
7.92
8.35
8.45
8.48
8.24
7.97
7.76
7.52
7.25
6.88
6.43
5.84
5.12
4.37
3.63
2.88
2.24
1.65
1.12
0.59
0.05
-0.48
-0.99
-1.47
-2
-2.56
-3.09
-3.52
-3.95
-4.37
-4.8
-5.12
-4.96
-3.76
-1.55
1.17
3.84
5.6
6.88
7.68
8.05
8.21
8.16
8.05
7.95
7.76
7.52
7.25
7.04
6.61
6.13
5.44
4.67
3.87
3.12
2.48
1.89
1.28
0.83
0.35
-0.16
-0.61
-1.2
-1.76
-2.27
-2.69
-3.12
-3.57
-4.05
-4.48
-4.91
-5.28
-5.12
-4
-1.65
0.96
3.25
5.01
6.32
6.85
7.23
7.36
7.23
7.01
6.88
6.67
6.45
6.24
5.92
5.55
5.04
4.29
3.6
2.88
2.08
1.44
0.88
0.37
-0.11
-0.72
-1.07
-1.49
-1.92
-2.37
-2.85
-3.28
-3.79
-4.21
-4.64
-5.17
-5.65
-6.16
-6.53
-6.59
-5.52
-3.47
-0.75
1.84
3.76
4.56
6
6.24
6.4
6.4
6.19
5.92
5.68
5.47
5.2
4.8
4.35
3.76
3.12
2.45
1.71
1.04
0.43
-0.11
-0.56
-1.07
-1.55
-2
-2.53
-3.07
-3.6
-4.13
-4.72
-5.28
-5.81
-6.35
-6.88
-7.44
-8.03
-8.64
-9.12
-9.33
-8.8
-7.17
-4.51
-1.84
0.32
1.92
3.12
3.52
3.68
3.68
3.41
2.99
2.56
2.13
1.71
1.2
0.53
-0.21
-0.96
-1.6
-2.24
-2.8
-3.28
-3.6
-3.92
-4.24
-4.51
-4.8
-5.04
-5.36
-5.68
-6
-6.37
-6.64
-6.96
-7.28
-7.6
-7.92
-8.13
-8.08
-6.91
-4.72
-2
0.72
2.85
4.32
5.2
5.68
5.92
5.81
5.65
5.36
4.96
4.59
4.16
3.68
3.04
2.32
1.47
0.77
0.24
-0.16
-0.48
-0.8
-1.09
-1.36
-1.6
-1.92
-2.29
-2.72
-3.12
-3.49
-3.92
-4.35
-4.83
-5.28
-5.55
-5.39
-4.32
-1.87
0.91
3.52
5.52
6.96
7.76
8.27
8.43
8.4
8.27
8.05
7.76
7.52
7.2
6.8
6.32
5.68
4.96
4.19
3.39
2.56
1.89
1.25
0.64
0.19
-0.29
-0.8
-1.31
-1.79
-2.32
-2.75
-3.17
-3.6
-4.03
-4.24
-4.8
-5.12
-4.96
-3.52
-1.2
1.57
4.08
5.84
7.07
7.76
7.97
8.08
8.16
7.97
7.81
7.6
7.47
7.2
6.88
6.43
5.84
5.12
4.45
3.71
3.04
2.43
1.89
1.44
0.91
0.43
-0.08
-0.53
-1.07
-1.6
-2.19
-2.67
-3.12
-3.47
-3.89
-4.32
-4.72
-5.04
-5.04
-3.92
-1.79
0.72
2.96
4.72
6.08
6.69
7.01
7.2
7.09
6.93
6.72
6.53
6.43
6.24
6
5.63
5.12
4.45
3.76
3.04
2.24
1.55
0.96
0.45
-0.03
-0.56
-1.07
-1.49
-1.84
-2.24
-2.61
-3.04
-3.47
-3.95
-4.4
-4.91
-5.39
-5.92
-6.08
-5.55
-3.92
-1.36
1.2
3.2
4.67
5.57
6.08
6.27
6.27
6.16
5.92
5.65
5.44
5.15
4.88
4.48
4
3.31
2.56
1.92
1.28
0.72
0.32
-0.05
-0.4
-0.83
-1.25
-1.68
-2.16
-2.69
-3.2
-3.73
-4.27
-4.8
-5.41
-5.95
-6.4
-6.93
-7.47
-8.08
-8.37
-8.27
-7.2
-4.96
-2.29
-0.08
1.68
2.75
3.36
3.57
3.63
3.52
3.2
2.88
2.56
2.16
1.79
1.36
0.72
0.03
-0.72
-1.47
-2.11
-2.64
-3.07
-3.28
-3.76
-4.08
-4.4
-4.72
-5.04
-5.36
-5.68
-6.08
-6.45
-6.8
-7.23
-7.6
-8
-8.35
-8.61
-8.8
-7.63
-5.6
-3.04
-0.51
1.57
2.88
3.71
4.08
4.32
4.27
4.05
3.68
3.25
2.83
2.4
1.76
1.12
0.32
-0.29
-0.83
-1.36
-1.6
-1.92
-2.16
-2.37
-2.64
-2.8
-3.04
-3.36
-3.6
-3.92
-4.19
-4.4
-4.8
-5.12
-5.36
-5.6
-5.39
-4
-1.6
1.17
3.84
5.49
6.77
7.6
7.97
8.13
8.08
7.95
7.68
7.44
7.12
6.85
6.48
5.95
5.36
4.64
3.84
3.15
2.48
1.84
1.25
0.72
0.27
-0.21
-0.72
-1.17
-1.71
-2.24
-2.75
-3.17
-3.6
-4.03
-4.45
-4.8
-4.88
-4.19
-2.24
0.32
2.77
4.72
6.11
6.96
7.6
7.71
7.76
7.68
7.55
7.33
7.12
6.91
6.69
6.32
5.84
5.2
4.56
3.73
2.99
2.4
1.81
1.33
0.88
0.37
-0.05
-0.56
-1.01
-1.49
-1.92
-2.35
-2.77
-3.2
-3.63
-4.11
-4.56
-4.8
-4.48
-3.2
-0.88
1.36
3.28
4.69
5.44
5.92
6.11
6.21
6.08
5.95
5.79
5.6
5.39
5.17
4.96
4.53
4.32
3.44
2.8
2.16
1.52
0.91
0.43
0
-0.32
-0.69
-1.12
-1.55
-1.97
-2.4
-2.85
-3.33
-3.76
-4.19
-4.67
-5.12
-5.63
-5.95
-6.16
-5.28
-3.47
-1.04
1.09
2.69
3.76
4.48
4.8
4.88
4.85
4.69
4.48
4.35
4.13
3.92
3.68
3.36
2.88
2.32
1.63
0.96
0.45
0.13
-0.16
-0.37
-0.59
-0.8
-1.07
-1.44
-1.84
-2.27
-2.75
-3.28
-3.73
-4.21
-4.72
-5.25
-5.84
-6.4
-6.91
-7.17
-6.88
-5.17
-2.99
-0.64
0.96
2.13
2.88
3.23
3.33
3.28
3.07
2.8
2.48
2.27
2
1.6
1.17
0.64
0
-0.69
-1.44
-2
-2.51
-2.88
-3.2
-3.44
-3.71
-4
-4.29
-4.56
-4.96
-5.31
-5.68
-6.08
-6.51
-6.93
-7.36
-7.79
-8.32
-8.72
-8.72
-7.65
-5.52
-2.96
-0.77
0.88
1.79
2.37
2.64
2.77
2.67
2.4
2.08
1.76
1.36
0.93
0.51
-0.08
-0.75
-1.49
-2
-2.35
-2.67
-2.88
-3.09
-3.25
-3.36
-3.55
-3.71
-3.92
-4.21
-4.43
-4.72
-5.04
-5.36
-5.68
-6
-6.27
-6.08
-4.91
-2.61
0
2.4
4.11
5.44
6.19
6.56
6.8
6.8
6.69
6.48
6.29
6.13
5.92
5.65
5.23
4.72
4.16
3.47
2.72
2.11
1.52
1.04
0.53
0.16
-0.16
-0.48
-0.8
-1.12
-1.55
-1.97
-2.32
-2.75
-3.17
-3.6
-4.11
-4.32
-4.08
-2.21
0.08
2.48
4.45
5.84
6.64
7.23
7.55
7.6
7.65
7.55
7.44
7.33
7.23
7.04
6.83
6.51
6
5.36
4.67
3.92
3.36
2.83
2.32
1.89
1.47
1.04
0.53
0.05
-0.4
-0.96
-1.49
-1.92
-2.37
-2.85
-3.28
-3.79
-4.16
-4.24
-3.23
-1.31
1.28
3.47
5.23
6.56
7.33
7.81
8
8.16
8.16
8.16
8.05
7.95
7.84
7.71
7.49
7.12
6.59
6
5.36
4.64
4.05
3.44
3.01
2.59
2.16
1.73
1.25
0.8
0.29
-0.19
-0.72
-1.28
-1.87
-2.48
-3.01
-3.49
-4
-4.4
-4.19
-2.96
-0.72
1.73
4
5.36
6.43
7.04
7.39
7.44
7.44
7.31
7.15
6.96
6.83
6.67
6.48
6.13
5.6
4.96
4.21
3.47
2.8
2.21
1.73
1.2
0.77
0.35
-0.08
-0.61
-1.15
-1.68
-2.19
-2.61
-3.04
-3.47
-3.89
-4.4
-4.83
-5.04
-5.68
-5.71
-4.69
-2.56
0
2.24
4.16
5.12
5.81
6.08
6.11
6.05
5.84
5.6
5.28
5.04
4.72
4.4
4
3.36
2.61
1.84
1.12
0.43
-0.16
-0.67
-1.15
-1.68
-2.11
-2.53
-2.96
-3.41
-4
-4.48
-5.01
-5.55
-6.08
-6.61
-7.09
-7.6
-8.05
-8.53
-8.96
-9.17
-8.48
-6.64
-4
-1.39
0.96
2.21
3.17
3.76
4.03
3.97
3.76
3.41
2.99
2.56
2.03
1.49
0.88
0.11
-0.75
-1.44
-2.08
-2.4
-2.72
-2.93
-3.09
-3.28
-3.41
-3.63
-3.92
-4.16
-4.48
-4.72
-5.04
-5.36
-5.6
-5.92
-6.19
-6.4
-6.48
-5.89
-4.24
-1.73
0.88
3.12
4.64
5.65
6.4
6.51
6.56
6.4
6.16
5.84
5.6
5.28
4.91
4.48
3.84
3.2
2.48
1.81
1.07
0.48
-0.11
-0.48
-0.88
-1.2
-1.52
-1.92
-2.24
-2.61
-3.04
-3.47
-3.89
-4.32
-4.83
-5.25
-5.6
-5.07
-3.47
-0.96
1.73
4.03
5.68
6.8
7.44
7.76
7.92
7.97
7.84
7.73
7.57
7.44
7.2
6.88
6.4
5.73
4.99
4.16
3.41
2.72
2.08
1.55
1.07
0.64
0.21
0
-0.8
-1.33
-1.87
-2.32
-2.75
-3.17
-3.6
-4.05
-4.59
-4.96
-5.09
-4.29
-2.4
0.24
2.8
4.88
6.19
7.09
7.6
7.84
7.79
7.68
7.55
7.33
7.12
7.01
6.85
6.56
6.11
5.52
4.88
4.11
3.31
2.56
2
1.47
0.96
0.53
0.11
-0.32
-0.93
-1.52
-2
-2.43
-2.91
-3.36
-3.79
-4.21
-4.72
-5.12
-5.49
-5.36
-4.29
-2.05
0.64
2.99
4.8
6
6.69
7.07
7.2
7.17
7.07
6.88
6.75
6.53
6.32
6.05
5.63
5.04
4.35
3.49
2.72
2
1.41
0.88
0.37
0
-0.4
-0.8
-1.17
-1.6
-2.03
-2.45
-2.88
-3.31
-3.73
-4.24
-4.67
-5.09
-5.52
-5.95
-6.32
-5.92
-4.45
-1.95
0.8
2.99
4.59
5.68
6.16
6.43
6.56
6.37
6.21
6
5.79
5.57
5.28
4.93
4.45
3.84
3.09
2.35
1.68
1.09
0.67
0.24
-0.19
-0.51
-0.88
-1.28
-1.65
-2.08
-2.51
-2.99
-3.44
-3.89
-4.43
-4.96
-5.41
-5.95
-6.48
-7.01
-7.55
-8
-8.05
-7.15
-5.12
-2.32
0.19
2.16
3.36
4.16
4.48
4.64
4.59
4.32
3.97
3.76
3.2
2.77
2.35
1.84
1.15
0.29
-0.4
-1.04
-1.63
-2.08
-2.43
-2.75
-2.96
-3.28
-3.55
-3.84
-4.16
-4.48
-4.88
-5.23
-5.6
-6
-6.45
-6.93
-7.44
-7.89
-8.43
-8.88
-9.12
-8.85
-7.68
-5.15
-2.43
0.16
1.87
3.09
3.84
4.16
4.21
4.08
3.73
3.31
2.88
2.43
1.95
1.36
0.69
0.32
-0.72
-1.23
-1.65
-2.08
-2.32
-2.53
-2.72
-2.93
-3.15
-3.36
-3.65
-3.87
-4.16
-4.48
-4.75
-5.04
-5.28
-5.6
-5.92
-6.03
-5.71
-4.24
-1.97
0.91
3.52
5.39
6.67
7.44
7.81
7.92
7.92
7.71
7.44
7.12
6.8
6.43
6
5.47
4.83
4.08
3.25
2.45
1.76
1.15
0.61
0.08
-0.45
-0.93
-1.36
-1.79
-2.21
-2.56
-2.99
-3.41
-3.84
-4.27
-4.69
-5.12
-5.44
-5.49
-4.64
-2.61
0.16
2.8
4.99
6.48
7.44
7.95
8.16
8.24
8.13
7.97
7.76
7.47
7.25
6.96
6.53
6.05
5.36
4.69
3.89
3.12
2.4
1.76
1.28
0.77
0.29
-0.16
-0.69
-1.23
-1.68
-2.11
-2.53
-2.96
-3.39
-3.81
-4.24
-4.67
-5.15
-5.6
-5.55
-5.44
-3.04
-0.27
2.51
4.56
6.13
7.15
7.68
7.89
8
8
7.81
7.71
7.52
7.23
7.01
6.64
6.21
5.63
4.8
4.05
3.31
2.56
1.95
1.36
0.88
0.35
-0.13
-0.56
-0.99
-1.41
-1.92
-2.35
-2.77
-3.2
-3.71
-4.13
-4.56
-4.99
-5.36
-5.76
-5.84
-5.31
-3.6
-1.01
1.71
3.76
5.33
6.35
6.88
7.09
7.2
7.12
6.91
6.69
6.48
6.19
5.97
5.6
5.15
4.56
3.84
3.01
2.27
1.6
0.99
0.51
0.16
-0.19
-0.56
-0.96
-1.39
-1.81
-2.24
-2.69
-3.17
-3.6
-4.11
-4.53
-4.96
-5.47
-5.89
-6.32
-6.72
-6.72
-5.76
-3.65
-0.83
1.68
3.73
5.12
6.08
6.48
6.64
6.64
6.43
6.21
6
5.71
5.44
5.12
4.69
4.16
3.44
2.88
2.24
1.6
1.07
0.59
0.16
-0.27
-0.69
-1.12
-1.55
-1.97
-2.48
-3.01
-3.55
-4.08
-4.69
-5.23
-5.76
-6.27
-6.75
-7.36
-7.81
-8.35
-8.8
-8.96
-8.48
-6.64
-4.08
-1.36
0.88
2.4
3.36
3.92
4.03
4.03
3.76
3.44
3.07
2.64
2.21
1.79
1.2
0.64
-0.11
-0.88
-1.65
-1.92
-2.64
-2.96
-3.28
-3.6
-3.84
-4.11
-4.32
-4.64
-5.01
-5.36
-5.68
-6
-6.32
-6.67
-7.04
-7.36
-7.68
-8
-8.24
-8.03
-6.96
-4.64
-1.95
0.67
2.8
4.16
5.07
5.52
5.63
5.57
5.28
4.88
4.51
4.08
3.57
3.04
2.4
1.73
1.09
0.56
0.13
-0.29
-0.56
-0.85
-1.12
-1.36
-1.6
-1.87
-2.16
-2.59
-3.01
-3.44
-3.87
-4.24
-4.64
-5.07
-5.44
-5.84
-5.33
-3.89
-1.44
1.47
4.08
6
7.33
8.08
8.56
8.64
8.59
8.48
8.16
7.84
7.52
7.17
6.75
6.24
5.57
4.83
4.08
3.25
2.56
1.92
1.39
0.85
0.4
-0.11
-0.59
-1.04
-1.57
-2.05
-2.48
-2.91
-3.33
-3.76
-4.27
-4.64
-5.04
-5.07
-4.27
-2.56
0.21
2.88
5.04
6.59
7.55
8.08
8.32
8.37
8.32
8.11
7.95
7.76
7.52
7.25
6.88
6.43
5.84
5.04
4.19
3.44
2.72
2.19
1.71
1.28
0.83
0.29
-0.24
-0.77
-1.31
-1.84
-2.35
-2.77
-3.2
-3.63
-4.05
-4.48
-4.88
-5.2
-5.12
-3.87
-1.73
0.96
3.17
4.99
6.16
6.83
7.2
7.28
7.25
7.2
6.96
6.75
6.59
6.4
6.16
5.79
5.36
4.72
4.08
3.44
2.69
2.05
1.44
0.91
0.43
0
-0.43
-0.85
-1.28
-1.71
-2.13
-2.56
-3.07
-3.49
-4
-4.43
-4.85
-5.36
-5.79
-6.16
-6.08
-4.72
-2.48
0.32
2.53
4.29
5.44
6.16
6.48
6.56
6.43
6.21
6
5.79
5.57
5.36
5.01
4.59
4.08
3.41
2.67
2
1.49
1.01
0.56
0.24
-0.08
-0.4
-0.8
-1.17
-1.6
-2.03
-2.51
-2.96
-3.39
-3.81
-4.32
-4.72
-5.09
-5.52
-6.03
-6.4
-6.8
-6.69
-5.68
-3.76
-1.12
1.23
2.96
4.11
4.8
5.04
5.09
4.93
4.72
4.37
4.05
3.76
3.33
2.91
2.48
1.84
1.15
0.96
-0.24
-0.83
-1.36
-1.68
-2.05
-2.4
-2.72
-3.04
-3.44
-3.95
-4.43
-4.88
-5.44
-6.03
-6.56
-7.09
-7.57
-8.08
-8.61
-9.15
-9.6
-9.79
-9.41
-8.24
-5.55
-2.77
-0.32
1.44
2.67
3.28
3.6
3.6
3.44
3.01
2.59
2.16
1.71
1.17
0.56
-0.16
-0.85
-1.68
-2.27
-2.64
-3.04
-3.17
-3.39
-3.52
-3.65
-3.87
-4.08
-4.32
-4.64
-4.88
-5.2
-5.36
-5.76
-6.08
-6.4
-6.64
-6.85
-6.59
-5.28
-2.85
0.03
2.88
4.75
6.24
7.2
7.6
7.87
7.84
7.71
7.44
7.12
6.8
6.48
6.08
5.52
4.83
4.08
3.28
2.59
1.92
1.31
0.77
0.24
-0.19
-0.61
-1.04
-1.47
-1.89
-2.32
-2.67
-3.09
-3.52
-3.87
-4.29
-4.72
-5.07
-5.01
-3.92
-1.81
0.85
3.36
5.31
6.69
7.68
8.08
8.24
8.32
8.27
8.05
7.84
7.63
7.41
7.12
6.69
6.21
5.6
4.83
3.97
3.28
2.59
2
1.52
1.01
0.53
0.08
-0.37
-0.91
-1.44
-1.89
-2.37
-2.8
-3.23
-3.65
-4.08
-4.53
-5.01
-5.36
-4.93
-3.49
-1.12
1.63
3.87
5.52
6.69
7.33
7.76
7.79
7.79
7.68
7.57
7.41
7.28
7.07
6.75
6.32
5.84
5.15
4.4
3.57
2.88
2.32
1.73
1.25
0.8
0.37
-0.11
-0.64
-1.07
-1.49
-1.92
-2.35
-2.77
-3.2
-3.63
-4.05
-4.48
-4.99
-5.31
-5.44
-4.48
-2.51
0
2.56
4.43
5.84
6.61
7.04
7.28
7.17
7.01
6.8
6.59
6.37
6.16
5.92
5.55
5.12
4.48
4.16
3.2
2.48
2.16
1.28
0.77
0.29
-0.16
-0.67
-1.09
-1.52
-1.95
-2.37
-2.8
-3.25
-3.79
-4.24
-4.67
-5.09
-5.52
-6.05
-6.43
-6.56
-5.6
-3.57
-0.96
1.71
3.63
5.04
5.84
6.27
6.48
6.37
6.21
5.92
5.6
5.28
5.04
4.61
4.19
3.6
2.83
2.08
1.44
0.8
0.16
-0.4
-0.99
-1.41
-1.84
-2.27
-2.75
-3.28
-3.81
-4.29
-4.8
-5.36
-6
-6.56
-7.07
-7.55
-8.08
-8.64
-9.17
-9.6
-9.71
-9.12
-7.28
-4.67
-2
0.24
1.73
2.64
3.28
3.39
3.33
3.04
2.61
2.19
1.76
1.25
0.77
0.16
-0.69
-1.44
-2.08
-2.61
-3.09
-3.52
-3.81
-4.08
-4.32
-4.53
-4.75
-5.04
-5.25
-5.52
-5.84
-6.08
-6.4
-6.64
-6.88
-7.2
-7.52
-7.63
-7.25
-6
-3.39
-0.51
2.08
4.19
5.52
6.32
6.69
6.85
6.72
6.48
6.11
5.76
5.33
4.91
4.4
3.81
3.07
2.32
1.55
0.91
0.4
-0.03
-0.45
-0.8
-1.2
-1.57
-2
-2.35
-2.72
-3.12
-3.52
-3.89
-4.32
-4.75
-5.17
-5.44
-5.49
-4.59
-2.64
0.11
2.77
4.96
6.45
7.47
8
8.32
8.32
8.24
8.03
7.81
7.52
7.31
7.04
6.64
6.13
5.39
4.72
4.16
3.41
2.48
1.92
1.33
0.8
0.35
-0.13
-0.64
-1.15
-1.63
-2.16
-2.67
-3.04
-3.44
-3.87
-4.29
-4.64
-4.99
-4.99
-3.84
-1.71
1.01
3.6
5.47
6.8
7.6
7.97
8.08
8.16
7.97
7.87
7.68
7.55
7.33
7.04
6.69
6.21
5.6
4.93
4.13
3.44
2.8
2.21
1.76
1.23
0.75
0.24
-0.29
-0.77
-1.28
-1.87
-2.29
-2.72
-3.23
-3.65
-4.08
-4.51
-4.93
-5.28
-5.17
-4.16
-1.92
0.72
3.07
4.88
6.03
6.77
7.12
7.15
7.2
7.04
6.85
6.69
6.48
6.27
6
5.6
5.07
4.48
3.76
3.01
2.27
1.68
1.09
0.61
0.16
-0.35
-0.72
-1.12
-1.57
-2.05
-2.48
-2.99
-3.47
-3.92
-4.35
-4.77
-5.2
-5.65
-6.13
-6.4
-6.08
-4.64
-2.16
0.56
2.85
4.64
5.68
6.32
6.64
6.61
6.45
6.24
5.95
5.68
5.44
5.09
4.67
4.16
3.41
2.67
1.92
1.12
0.43
-0.08
-0.59
-1.07
-1.52
-1.95
-2.37
-2.88
-3.33
-3.87
-4.4
-5.01
-5.55
-6.16
-6.69
-6.96
-7.76
-8.29
-8.83
-9.36
-9.68
-9.52
-8
-5.68
-2.91
-0.4
1.36
2.53
3.2
3.41
3.52
3.28
2.93
2.51
2.08
1.57
1.09
0.48
-0.19
-0.99
-1.76
-2.37
-2.96
-3.44
-3.76
-4.08
-4.4
-4.64
-4.91
-5.12
-5.44
-5.76
-6.08
-6.45
-6.72
-7.04
-7.39
-7.76
-8.08
-8.32
-8.48
-8.08
-6.53
-3.97
-1.12
1.49
3.41
4.8
5.44
5.81
5.92
5.79
5.52
5.2
4.77
4.35
3.92
3.36
2.72
2
1.17
0.53
0
-0.4
-0.77
-1.04
-1.25
-1.52
-1.76
-2.08
-2.45
-2.88
-3.28
-3.65
-4.08
-4.59
-4.96
-5.36
-5.52
-5.09
-3.76
-0.99
1.79
4.32
6.19
7.52
8.24
8.61
8.77
8.72
8.51
8.29
8.08
7.76
7.44
7.04
6.56
5.92
5.12
4.35
3.55
2.72
2.16
1.52
0.96
0.51
-0.03
-0.48
-1.01
-1.55
-2.08
-2.64
-3.23
-3.68
-4.11
-4.53
-4.96
-5.39
-5.39
-4.56
-2.48
0.19
2.96
4.85
6.35
7.28
7.84
8.11
8.16
8.03
7.87
7.68
7.44
7.23
7.04
6.61
6.19
5.52
4.67
3.87
3.12
2.4
1.81
1.28
0.83
0.56
-0.16
-0.59
-1.01
-1.44
-1.87
-2.29
-2.72
-3.17
-3.65
-4.08
-4.51
-4.93
-5.2
-4.75
-3.04
-0.56
1.97
4.11
5.76
6.59
7.17
7.44
7.47
7.41
7.28
7.07
6.85
6.64
6.4
6.08
5.68
5.04
4.4
3.68
2.96
2.27
1.6
1.07
0.53
0
-0.53
-1.07
-1.6
-2.03
-2.45
-2.88
-3.39
-3.81
-4.24
-4.75
-5.17
-5.68
-6.05
-6.21
-5.6
-3.97
-1.31
1.36
3.49
5.04
6.16
6.56
6.72
6.8
6.67
6.4
6.16
5.95
5.68
5.44
5.01
4.53
3.92
3.07
2.21
1.52
0.83
0.29
-0.16
-0.67
-1.09
-1.6
-2.05
-2.53
-3.04
-3.57
-4.16
-4.72
-5.25
-5.79
-6.32
-6.88
-7.47
-8.08
-8.59
-8.96
-8.72
-7.49
-5.04
-2.32
0.05
1.81
3.12
3.65
3.92
4
3.84
3.47
3.12
2.69
2.27
1.84
1.28
0.64
-0.08
-0.88
-1.52
-2.08
-2.64
-2.96
-3.36
-3.65
-3.92
-4.24
-4.45
-4.77
-5.12
-5.44
-5.81
-6.16
-6.51
-6.88
-7.28
-7.63
-7.95
-8.24
-8.05
-7.04
-4.96
-2.21
0.4
2.48
3.87
4.72
5.2
5.31
5.25
4.96
4.61
4.4
3.76
3.33
2.8
2.16
1.41
0.77
0.24
-0.19
-0.61
-0.96
-1.23
-1.39
-1.6
-1.73
-1.95
-2.24
-2.45
-2.77
-3.12
-3.47
-3.89
-4.24
-4.59
-4.91
-4.88
-3.41
-1.17
1.68
4.16
6.13
7.44
8.35
8.77
8.88
8.93
8.77
8.56
8.35
8.08
7.76
7.33
6.85
6.24
5.49
4.75
3.92
3.15
2.45
1.84
1.23
0.75
0.24
-0.35
-0.83
-1.36
-1.89
-2.43
-3.04
-3.49
-4.03
-4.56
-5.15
-5.52
-5.2
-3.95
-1.6
1.2
3.63
5.49
6.8
7.57
8
8.16
8.13
8.03
7.84
7.63
7.41
7.12
6.85
6.43
5.84
5.15
4.24
3.44
2.72
2.08
1.44
0.91
0.43
-0.08
-0.51
-0.93
-1.36
-1.79
-2.21
-2.64
-3.07
-3.49
-4
-4.43
-4.85
-5.12
-4.88
-3.65
-1.28
1.36
3.71
5.52
6.67
7.41
7.76
7.79
7.79
7.6
7.41
7.25
7.04
6.83
6.51
6.08
5.52
4.88
4.16
3.41
2.67
2.08
1.47
0.93
0.4
-0.16
-0.75
-1.28
-1.81
-2.29
-2.72
-3.15
-3.57
-4
-4.43
-4.91
-5.36
-5.79
-5.95
-5.2
-3.31
-0.64
1.84
3.92
4.72
6.32
6.72
6.88
6.96
6.77
6.61
6.4
6.11
5.89
5.6
5.17
4.64
3.92
3.09
2.29
1.52
0.83
0.35
-0.08
-0.43
-0.8
-1.2
-1.63
-2.05
-2.48
-2.93
-3.41
-3.84
-4.35
-4.83
-5.28
-5.79
-6.27
-6.8
-6.96
-6.43
-4.88
-2.32
0.29
2.32
3.79
4.69
5.2
5.36
5.31
5.12
4.72
4.35
4
3.6
3.23
2.72
2.05
1.31
0.48
-0.16
-0.8
-1.36
-1.81
-2.29
-2.64
-2.99
-3.41
-3.84
-4.29
-4.83
-5.36
-5.89
-6.37
-6.88
-7.49
-8.03
-8.48
-9.01
-9.44
-9.68
-8.51
-6.48
-3.84
-1.12
1.01
2.32
3.23
3.6
3.76
3.68
3.36
2.96
2.53
2.11
1.6
0.96
0.27
-0.56
-1.28
-1.87
-2.48
-2.88
-3.2
-3.52
-3.73
-3.95
-4.16
-4.37
-4.64
-4.88
-5.2
-5.47
-5.76
-6.08
-6.4
-6.72
-6.99
-6.99
-6.24
-4.24
-1.47
1.6
3.92
5.73
6.88
7.52
7.79
7.84
7.68
7.36
7.04
6.69
6.27
5.84
5.28
4.64
3.84
3.01
2.27
1.44
0.72
0.13
-0.48
-0.93
-1.41
-1.76
-2.19
-2.61
-3.04
-3.47
-3.89
-4.32
-4.75
-4.96
-5.6
-5.71
-5.17
-3.44
-0.83
1.95
4.24
5.92
6.93
7.6
7.81
7.92
7.84
7.63
7.41
7.2
6.96
6.64
6.24
5.68
4.99
4.16
3.31
2.45
1.76
1.07
0.48
-0.08
-0.51
-0.88
-1.28
-1.71
-2.13
-2.48
-2.88
-3.25
-3.6
-4.03
-4.45
-4.88
-5.31
-5.25
-4.32
-1.89
0.88
3.36
5.44
6.67
7.44
7.89
8.05
8.08
7.95
7.73
7.52
7.31
7.04
6.8
6.37
5.89
5.76
4.27
3.47
2.72
2.08
1.49
0.96
0.43
-0.11
-0.56
-1.07
-1.49
-1.92
-2.35
-2.77
-3.28
-3.71
-4.19
-4.64
-5.15
-5.47
-5.6
-4.72
-2.8
-0.16
2.32
4.29
5.68
6.59
7.01
7.2
7.25
7.09
6.8
6.59
6.37
6.16
5.89
5.47
4.96
4.27
3.47
2.64
1.89
1.25
0.64
0.21
-0.21
-0.64
-1.07
-1.49
-1.92
-2.43
-2.91
-3.36
-3.81
-4.29
-4.8
-5.23
-5.71
-6.16
-6.51
-6.35
-5.28
-2.83
-0.11
2.4
4.11
5.28
6
6.32
6.37
6.24
5.97
5.6
5.2
4.88
4.51
4.08
3.52
2.83
2.16
1.47
0.67
0
-0.56
-1.15
-1.68
-2.13
-2.4
-3.12
-3.65
-4.19
-4.72
-5.23
-5.76
-6.4
-6.93
-7.47
-8
-8.53
-9.12
-9.6
-9.92
-9.65
-8.48
-5.92
-3.15
-0.64
1.07
2.24
2.96
3.28
3.28
3.12
2.69
2.27
1.84
1.39
0.91
0.32
-0.45
-0.88
-2
-2.64
-3.23
-3.68
-4
-4.27
-4.48
-4.72
-4.99
-5.28
-5.57
-5.79
-6.08
-6.4
-6.72
-7.04
-7.28
-7.6
-7.92
-8.03
-7.71
-6.16
-3.73
-0.8
1.92
3.89
5.28
6.24
6.64
6.8
6.72
6.4
6.08
5.68
5.25
4.83
4.32
3.65
2.85
2.16
1.55
0.96
0.4
-0.11
-0.53
-0.96
-1.39
-1.76
-2.08
-2.51
-2.93
-3.36
-3.79
-4.21
-4.64
-5.07
-5.44
-5.84
-5.6
-4.43
-2.16
0.75
3.47
5.44
6.88
7.73
8.24
8.35
8.35
8.24
8
7.73
7.52
7.2
6.83
6.4
5.81
5.07
4.24
3.57
2.83
2.08
1.47
0.88
0.4
-0.11
-0.59
-1.04
-1.6
-2.13
-2.64
-3.07
-3.49
-3.92
-4.35
-4.72
-5.12
-5.23
-4.43
-2.72
0.05
2.72
4.88
6.35
7.36
7.76
8
8.05
8
7.87
7.71
7.52
7.28
7.01
6.64
6.19
5.92
4.8
3.95
3.15
2.4
1.84
1.31
0.8
0.35
-0.13
-0.56
-1.09
-1.63
-2.08
-2.51
-2.93
-3.36
-3.79
-4.21
-4.72
-5.17
-5.39
-5.04
-3.44
-0.99
1.76
3.84
5.44
6.48
7.04
7.31
7.36
7.23
6.96
6.72
6.51
6.35
6.16
5.81
5.33
4.72
3.97
3.23
2.4
1.68
1.09
0.56
0.13
-0.29
-0.72
-1.15
-1.57
-2
-2.51
-2.93
-3.36
-3.81
-4.29
-4.72
-5.15
-5.57
-6
-6.24
-5.71
-4
-1.44
1.17
3.52
4.85
5.81
6.4
6.67
6.67
6.48
6.27
6
5.68
5.36
5.04
4.64
4.08
3.33
2.56
1.76
1.07
0.4
-0.13
-0.67
-1.12
-1.57
-2.05
-2.48
-2.93
-3.52
-4
-4.53
-5.07
-5.6
-6.16
-6.75
-7.28
-7.89
-8.43
-8.96
-9.2
-8.67
-6.88
-4.32
-1.71
0.64
2
3.01
3.52
3.71
3.71
3.52
3.09
2.67
2.24
1.79
1.25
0.64
-0.13
-0.99
-1.68
-2.29
-2.83
-3.28
-3.6
-3.87
-4.16
-4.37
-4.59
-4.88
-5.2
-5.52
-5.84
-6.19
-6.56
-6.96
-7.28
-7.6
-7.92
-8.21
-8.21
-7.2
-5.28
-2.4
0.4
2.51
3.36
5.12
5.52
5.68
5.68
5.44
5.07
4.72
4.37
3.95
3.44
2.8
2.05
1.28
0.67
0.19
-0.32
-0.69
-0.96
-1.2
-1.49
-1.71
-2
-2.24
-2.61
-3.04
-3.47
-3.89
-4.32
-4.75
-5.17
-5.6
-5.44
-4.32
-2.16
0.75
3.36
5.44
6.93
7.73
8.24
8.4
8.4
8.24
8.03
7.76
7.44
7.12
6.75
6.24
5.68
4.93
4.08
3.23
2.48
1.76
1.15
0.67
0.16
-0.43
-0.91
-1.36
-1.89
-2.37
-2.8
-3.23
-3.65
-4.08
-4.53
-5.01
-5.2
-4.93
-3.49
-1.12
1.6
4
5.84
6.93
7.68
8
8.16
8.11
7.92
7.71
7.49
7.28
7.07
6.75
6.32
5.73
4.99
4.16
3.41
2.67
2
1.47
0.99
0.48
0.03
-0.45
-0.96
-1.52
-1.89
-2.32
-2.75
-3.17
-3.68
-4.11
-4.53
-4.88
-5.15
-4.83
-3.12
-0.75
1.87
4.08
5.55
6.56
7.12
7.31
7.36
7.2
7.01
6.85
6.64
6.43
6.21
5.92
5.47
4.88
4.16
3.41
2.61
1.92
1.28
0.69
0.24
-0.29
-0.77
-1.2
-1.63
-2.05
-2.56
-3.07
-3.55
-4
-4.43
-4.91
-5.44
-5.87
-6.08
-6.4
-5.63
-3.65
-1.04
1.49
3.41
4.8
5.6
5.97
6.16
6.13
5.97
5.76
5.55
5.33
5.12
4.77
4.35
3.84
3.17
2.48
1.92
1.39
0.8
0.32
-0.11
-0.53
-0.96
-1.31
-1.73
-2.16
-2.59
-3.01
-3.52
-3.95
-4.43
-4.88
-5.31
-5.79
-6.4
-6.83
-7.2
-7.12
-5.95
-3.65
-1.12
1.15
2.69
3.76
4.35
4.56
4.64
4.4
4.08
3.76
3.36
3.04
2.64
2.21
1.63
0.88
0.05
-0.64
-1.28
-1.89
-2.43
-2.8
-3.15
-3.52
-3.84
-4.16
-4.48
-4.88
-5.28
-5.65
-6.08
-6.69
-7.23
-7.76
-8.29
-8.83
-9.44
-9.63
-9.25
-7.76
-5.15
-2.27
0.08
1.84
2.91
3.6
3.81
3.87
3.76
3.44
3.07
2.64
2.21
1.73
1.12
0.37
-0.32
-1.04
-1.65
-2.13
-2.48
-2.69
-2.91
-3.04
-3.17
-3.39
-3.6
-3.84
-4.11
-4.32
-4.64
-4.91
-5.2
-5.49
-5.76
-5.84
-5.17
-3.52
-0.96
1.89
4.35
6.16
7.36
8.21
8.48
8.61
8.45
8.24
8
7.73
7.44
7.01
6.59
6
5.33
4.59
4.4
3.09
2.4
1.76
1.2
0.67
0.16
-0.37
-0.64
-1.44
-2
-2.59
-3.12
-3.76
-4.4
-5.04
-5.49
-5.97
-5.84
-4.8
-2.45
0.24
2.69
4.51
5.92
6.53
6.91
7.04
7.01
6.85
6.64
6.43
6.16
5.84
5.49
5.07
4.56
3.71
2.85
2
1.23
0.64
0.16
-0.27
-0.64
-1.04
-1.39
-1.81
-2.16
-2.59
-3.01
-3.36
-3.71
-4.13
-4.56
-4.99
-5.31
-5.52
-4.69
-2.83
-0.16
2.53
4.61
6.16
7.12
7.6
7.92
7.89
7.79
7.6
7.39
7.17
7.04
6.8
6.43
6
5.44
4.75
4
3.17
2.48
1.92
1.33
0.85
0.4
-0.03
-0.51
-0.96
-1.31
-1.73
-2.16
-2.59
-3.01
-3.44
-3.95
-4.37
-4.8
-4.99
-4.4
-2.8
-0.27
2.24
4.32
5.81
6.56
7.04
7.2
7.2
7.04
6.91
6.69
6.56
6.35
6.08
5.84
5.39
4.8
4.16
3.52
2.88
2.16
1.55
1.07
0.56
0.11
-0.43
-0.88
-1.39
-1.81
-2.32
-2.75
-3.17
-3.6
-4.03
-4.45
-4.88
-5.31
-5.73
-6.08
-5.47
-3.81
-1.28
1.39
3.57
5.04
6.05
6.53
6.64
6.61
6.45
6.16
5.95
5.73
5.44
5.09
4.67
4.16
3.55
3.12
1.84
1.09
0.45
-0.16
-0.59
-1.01
-1.52
-1.95
-2.37
-2.8
-3.33
-3.87
-4.48
-5.01
-5.55
-6.08
-6.61
-7.2
-7.76
-8.29
-8.77
-9.12
-8.51
-6.85
-4.32
-1.73
0.4
1.92
2.91
3.33
3.52
3.47
3.15
2.72
2.29
1.87
1.44
1.01
0.48
-0.16
-0.88
-1.47
-2.08
-2.61
-3.04
-3.36
-3.6
-3.87
-4.08
-4.35
-4.51
-4.8
-5.12
-5.44
-5.76
-6
-6.37
-6.72
-7.04
-7.41
-7.6
-7.47
-6.24
-4
-1.2
1.31
3.36
4.56
5.36
5.76
5.92
5.87
5.68
5.33
4.91
4.48
4.05
3.63
3.04
2.37
1.63
1.12
0.61
0.24
-0.16
-0.4
-0.67
-0.88
-1.28
-1.65
-2.08
-2.51
-2.93
-3.36
-3.79
-4.21
-4.64
-5.04
-5.31
-5.12
-3.95
-1.6
1.12
3.57
5.49
6.88
7.6
8.03
8.24
8.24
8.13
7.92
7.71
7.49
7.2
6.85
6.43
5.84
5.17
4.43
3.68
2.96
2.32
1.76
1.25
0.83
0.4
-0.13
-0.61
-1.12
-1.65
-2.19
-2.64
-3.07
-3.49
-3.92
-4.35
-4.67
-4.88
-3.81
-1.84
0.72
3.25
5.28
6.56
7.41
7.84
8.08
8.13
8.08
7.92
7.73
7.57
7.36
7.07
6.75
6.32
5.65
4.91
4.08
3.44
2.8
2.24
1.81
1.39
0.96
0.53
0.05
-0.4
-0.93
-1.41
-1.76
-2.19
-2.61
-3.04
-3.55
-3.92
-4.32
-4.43
-3.63
-1.84
0.8
3.2
5.12
6.4
7.25
7.6
7.84
7.84
7.76
7.63
7.47
7.28
7.04
6.72
6.32
5.87
5.28
4.56
3.92
3.28
2.64
2.11
1.63
1.12
0.67
0.13
-0.4
-1.01
-1.55
-2.16
-2.8
-3.39
-4
-4.45
-4.93
-5.44
-5.95
-6.32
-6.16
-4.8
-2.56
0.16
2.27
3.97
5.12
5.68
5.95
6
5.87
5.6
5.36
5.12
4.85
4.64
4.29
3.81
3.12
2.43
1.84
1.28
0.75
0.21
-0.32
-0.72
-1.09
-1.52
-1.97
-2.51
-2.96
-3.47
-3.95
-4.48
-5.04
-5.57
-6.08
-6.53
-7.07
-7.6
-8.11
-8.53
-8.48
-7.28
-5.04
-2.24
-0.03
1.79
2.96
3.6
3.92
4
3.87
3.55
3.12
2.77
2.4
2
1.57
1.04
0.32
-0.03
-1.04
-1.6
-2.11
-2.48
-2.8
-3.04
-3.31
-3.52
-3.84
-4.16
-4.48
-4.83
-5.2
-5.6
-5.95
-6.32
-6.64
-7.04
-7.2
-7.68
-7.89
-7.31
-5.52
-2.99
-0.43
1.92
3.28
4.29
4.88
5.07
5.07
4.88
4.61
4.19
3.76
3.41
2.93
2.4
1.73
1.36
0.32
-0.24
-0.56
-0.88
-1.09
-1.31
-1.6
-1.73
-2
-2.32
-2.56
-2.88
-3.2
-3.63
-4.05
-4.48
-4.83
-5.15
-5.36
-4.32
-2.29
0.4
3.09
5.12
6.56
7.44
7.97
8.32
8.32
8.21
7.92
7.68
7.36
7.12
6.8
6.43
5.92
5.25
4.56
3.84
3.01
2.32
1.68
1.09
0.61
0.16
-0.35
-0.83
-1.44
-1.97
-2.51
-3.04
-3.47
-3.95
-4.4
-4.83
-5.15
-5.2
-3.84
-1.71
0.96
3.41
5.33
6.56
7.39
7.76
7.92
8
7.95
7.76
7.65
7.49
7.36
7.12
6.75
6.24
5.65
4.91
4.08
3.33
2.69
2.16
1.71
1.23
0.8
0.29
-0.19
-0.64
-1.15
-1.63
-2.16
-2.59
-3.01
-3.52
-3.95
-4.43
-4.72
-4.69
-3.57
-1.52
1.09
3.44
5.28
6.45
7.15
7.44
7.6
7.55
7.36
7.15
6.93
6.64
6.4
6.03
5.6
5.15
4.56
3.92
3.25
2.51
1.84
1.31
0.83
0.32
-0.11
-0.59
-1.12
-1.71
-1.92
-2.56
-2.99
-3.47
-4
-4.45
-4.93
-5.44
-5.89
-6.43
-6.56
-5.92
-4.05
-1.44
1.01
2.99
4.48
5.25
5.73
5.92
5.89
5.79
5.6
5.39
5.17
4.96
4.72
4.35
3.92
3.33
2.96
1.92
1.33
0.96
0.64
0.32
0.05
-0.24
-0.67
-1.09
-1.44
-1.87
-2.35
-2.8
-3.23
-3.71
-4.24
-4.67
-5.09
-5.52
-5.95
-6.43
-6.64
-6.37
-4.88
-2.48
0.16
2.35
4
4.88
5.41
5.6
5.49
5.33
5.04
4.75
4.53
4.24
3.97
3.55
3.12
2.45
1.65
0.88
0.19
-0.35
-0.8
-1.15
-1.52
-1.92
-2.35
-2.77
-3.28
-3.89
-4.43
-4.96
-5.49
-6.03
-6.64
-7.17
-7.65
-8.16
-8.61
-9.15
-9.52
-9.52
-8.45
-6.32
-3.52
-1.01
1.04
2.24
3.04
3.44
3.57
3.41
3.12
2.69
2.27
1.84
1.39
0.8
0.16
-0.61
-1.04
-2.16
-2.67
-3.09
-3.44
-3.76
-3.97
-4.16
-4.4
-4.67
-4.88
-5.17
-5.44
-5.76
-6.08
-6.4
-6.72
-6.96
-7.28
-7.52
-7.63
-7.2
-5.36
-2.75
0.19
2.8
4.67
5.89
6.56
6.85
6.96
6.88
6.59
6.37
6
5.65
5.44
4.8
4.16
3.41
2.64
1.84
1.15
0.64
0.21
-0.16
-0.56
-0.99
-1.36
-1.76
-2.16
-2.48
-2.8
-3.2
-3.52
-3.92
-4.35
-4.72
-5.12
-4.8
-3.57
-1.36
1.33
3.79
5.52
6.85
7.65
8.16
8.27
8.27
8.16
7.97
7.81
7.6
7.31
6.99
6.56
6
5.31
5.12
3.81
3.12
2.48
1.95
1.41
0.96
0.45
-0.03
-0.48
-1.04
-1.63
-2.16
-2.59
-3.01
-3.52
-4.03
-4.45
-4.88
-5.12
-4.69
-3.44
-0.77
1.84
4.08
5.68
6.85
7.44
7.71
7.81
7.76
7.55
7.39
7.2
7.07
6.85
6.56
6.19
5.65
4.96
4.11
3.36
2.64
2.11
1.63
1.12
0.69
0.27
-0.16
-0.59
-0.96
-1.36
-1.79
-2.21
-2.64
-3.07
-3.49
-3.92
-4.35
-4.72
-4.72
-3.65
-1.63
0.96
3.15
4.91
6.08
6.75
7.17
7.28
7.25
7.15
6.96
6.75
6.59
6.4
6.13
5.71
5.2
4.56
3.87
3.2
2.45
1.76
1.12
0.59
0.11
-0.4
-0.85
-1.44
-2
-2.59
-3.01
-3.44
-3.95
-4.37
-4.88
-5.31
-5.73
-6.24
-6.59
-6.59
-5.6
-3.41
-0.75
1.84
3.49
4.24
5.36
5.71
5.81
5.76
5.63
5.41
5.2
4.96
4.69
4.4
3.95
3.36
2.64
2.32
1.36
0.88
0.37
-0.05
-0.48
-0.91
-1.33
-1.76
-2.19
-2.72
-3.28
-3.81
-4.35
-4.96
-5.52
-6.11
-6.64
-7.25
-7.79
-8.32
-8.91
-9.28
-9.04
-7.63
-5.28
-2.48
-0.29
1.41
2.56
3.2
3.52
3.6
3.44
3.07
2.64
2.21
1.79
1.36
0.8
0.16
-0.56
-0.88
-1.84
-2.4
-2.91
-3.28
-3.6
-3.81
-4.03
-4.32
-4.64
-4.96
-5.2
-5.55
-5.92
-6.24
-6.59
-6.96
-7.28
-7.68
-8.05
-8.24
-8.16
-6.93
-4.64
-1.84
0.77
2.96
4.11
4.96
5.36
5.55
5.49
5.28
4.93
4.56
4.16
3.73
3.25
2.72
2.05
1.31
0.64
0.08
-0.24
-0.48
-0.69
-0.91
-1.2
-1.41
-1.63
-1.84
-2.08
-2.4
-2.72
-3.15
-3.57
-4
-4.43
-4.69
-4.64
-3.47
-1.28
1.28
3.84
5.71
7.12
7.92
8.4
8.64
8.61
8.45
8.16
7.95
7.68
7.36
7.01
6.59
6
5.44
4.64
3.6
2.77
2.08
1.52
0.93
0.45
0
-0.53
-1.07
-1.68
-2.21
-2.75
-3.28
-3.89
-4.16
-4.8
-5.31
-5.63
-5.76
-4.77
-2.75
-0.08
2.48
4.56
6
7.01
7.49
7.76
7.84
7.79
7.6
7.47
7.25
7.04
6.8
6.48
6
5.44
4.75
4
3.25
2.61
2
1.47
0.99
0.56
0.13
-0.35
-0.8
-1.15
-1.57
-2
-2.43
-2.85
-3.28
-3.71
-4.13
-4.48
-4.67
-4.08
-2.56
0.05
2.61
4.8
6.19
7.09
7.6
7.84
7.84
7.76
7.63
7.47
7.28
7.15
6.93
6.56
6.11
5.52
4.88
4.19
3.39
2.64
2
1.47
0.96
0.51
-0.03
-0.56
-1.09
-1.68
-2.24
-2.75
-3.23
-3.76
-4.19
-4.61
-5.12
-5.57
-6.11
-6.32
-6.03
-4.48
-2.08
0.69
3.04
4.8
5.81
6.45
6.72
6.88
6.83
6.64
6.43
6.21
5.92
5.68
5.31
4.88
4.29
3.92
2.72
2
1.41
0.96
0.53
0.16
-0.24
-0.67
-1.09
-1.52
-1.95
-2.43
-2.88
-3.39
-3.81
-4.32
-4.75
-5.17
-5.68
-6.13
-6.72
-7.2
-7.25
-6.4
-4.48
-1.68
0.88
2.96
4.24
5.04
5.36
5.49
5.39
5.12
4.77
4.4
4
3.68
3.31
2.88
2.21
1.84
0.72
0.08
-0.24
-1.04
-1.55
-1.87
-2.16
-2.51
-2.93
-3.36
-3.87
-4.35
-4.88
-5.41
-5.95
-6.56
-7.01
-7.55
-8.08
-8.61
-9.15
-9.6
-9.92
-9.55
-8.24
-5.68
-2.91
-0.32
1.39
2.61
3.28
3.6
3.6
3.44
3.09
2.67
2.16
1.71
1.17
0.56
-0.19
-0.56
-1.6
-2.11
-2.53
-2.96
-3.2
-3.41
-3.6
-3.81
-4.03
-4.24
-4.53
-4.75
-5.04
-5.36
-5.63
-5.92
-6.16
-6.48
-6.72
-6.83
-6.4
-4.64
-2.03
0.96
3.6
5.47
6.75
7.44
7.73
7.84
7.76
7.47
7.25
6.96
6.61
6.19
5.68
5.12
4.43
3.68
2.85
2.11
1.44
0.83
0.29
-0.24
-0.77
-1.2
-1.6
-2.03
-2.45
-2.88
-3.31
-3.79
-4.24
-4.67
-5.09
-5.52
-5.44
-4.53
-2.64
0.11
2.77
4.8
6.35
7.31
7.84
8.05
8.11
8
7.76
7.49
7.28
7.07
6.75
6.32
5.84
5.09
4.88
3.39
2.53
1.76
1.15
0.56
0.08
-0.43
-0.91
-1.44
-1.87
-2.29
-2.72
-3.12
-3.49
-3.92
-4.35
-4.77
-5.2
-5.39
-5.12
-4.08
-1.49
1.23
3.68
5.47
6.75
7.44
7.81
7.97
8
7.87
7.76
7.52
7.33
7.17
6.88
6.53
6.05
5.44
4.59
3.79
3.04
2.51
2.03
1.52
1.09
0.67
0.24
-0.27
-0.64
-1.04
-1.47
-1.89
-2.32
-2.75
-3.17
-3.68
-4.11
-4.53
-4.96
-4.69
-3.41
-1.2
1.41
3.71
5.44
6.59
7.33
7.6
7.76
7.76
7.6
7.39
7.23
7.04
6.83
6.61
6.24
5.68
5.04
4.24
3.47
2.72
2.08
1.55
1.07
0.56
0.11
-0.43
-0.96
-1.47
-1.95
-2.4
-2.96
-3.55
-4.16
-4.69
-5.23
-5.76
-6.27
-6.69
-6.96
-6.32
-4.51
-1.84
0.8
2.99
4.48
5.44
5.97
6.08
6.13
5.97
5.76
5.52
5.25
5.04
4.69
4.27
3.68
2.91
2.11
1.44
0.83
0.29
-0.24
-0.59
-1.01
-1.52
-1.97
-2.51
-3.04
-3.57
-4.11
-4.64
-5.2
-5.79
-6.4
-6.93
-7.47
-8
-8.61
-9.15
-9.6
-9.81
-9.07
-7.44
-4.59
-1.92
0.24
1.79
2.75
3.2
3.44
3.33
3.12
2.69
2.27
1.84
1.41
0.93
0.32
-0.35
-1.09
-1.76
-2.27
-2.75
-3.2
-3.44
-3.71
-3.92
-4.13
-4.4
-4.64
-4.88
-5.2
-5.6
-5.92
-6.24
-6.56
-6.88
-7.04
-7.52
-7.79
-7.79
-7.04
-5.12
-2.45
0.48
2.69
4.4
5.36
5.89
6.11
6.16
6
5.68
5.28
4.93
4.51
4.08
3.55
2.96
2.24
1.49
1.01
0.56
0.24
-0.03
-0.32
-0.56
-0.88
-1.2
-1.6
-1.97
-2.32
-2.67
-3.09
-3.52
-3.95
-4.37
-4.72
-4.61
-3.76
-1.76
0.83
3.39
5.44
6.75
7.6
8.16
8.29
8.35
8.24
8.11
7.89
7.76
7.55
7.23
6.8
6.21
5.52
4.72
3.89
3.15
2.48
1.87
1.33
0.88
0.37
-0.05
-0.56
-1.09
-1.63
-2.16
-2.77
-3.25
-3.68
-4.19
-4.67
-5.12
-4.96
-3.89
-1.84
0.91
3.41
5.28
6.61
7.36
7.76
7.92
7.97
7.92
7.81
7.65
7.52
7.31
7.04
6.64
6.16
5.47
4.64
3.76
2.91
2.16
1.55
1.07
0.56
0.13
-0.35
-0.8
-1.31
-1.73
-2.16
-2.59
-3.01
-3.44
-3.89
-4.48
-4.96
-5.31
-5.15
-4.16
-1.92
0.53
2.72
4.32
5.39
5.92
6.24
6.24
6.16
6.03
5.87
5.68
5.55
5.33
5.12
4.77
4.29
3.76
3.12
2.48
1.76
1.33
1.01
0.72
0.48
0.16
-0.16
-0.56
-0.72
-1.36
-1.87
-2.29
-2.8
-3.25
-3.79
-4.32
-4.77
-5.31
-5.44
-4.91
-3.15
-0.8
1.33
3.04
4.24
4.93
5.31
5.44
5.41
5.31
5.12
4.99
4.77
4.56
4.35
4.03
3.6
3.04
2.35
1.68
1.01
0.59
0.24
-0.11
-0.48
-0.8
-1.23
-1.65
-2.08
-2.51
-2.93
-3.44
-3.95
-4.43
-5.04
-5.57
-6.11
-6.64
-7.2
-7.47
-6.72
-4.99
-2.59
-0.4
1.09
2.16
2.72
2.93
3.04
2.96
2.67
2.45
2.24
2.11
1.89
1.6
1.25
0.72
0.08
-0.64
-1.28
-1.76
-2.19
-2.56
-2.96
-3.28
-3.55
-3.84
-4.24
-4.56
-4.88
-5.28
-5.6
-6
-6.43
-6.85
-7.28
-7.68
-8.05
-8.32
-8.19
-7.01
-4.72
-2.21
-0.13
1.44
2.35
2.83
3.12
3.09
2.93
2.64
2.24
1.92
1.52
1.17
0.75
0.16
-0.51
-1.09
-1.6
-2
-2.32
-2.48
-2.67
-2.77
-2.96
-3.17
-3.39
-3.6
-3.84
-4.21
-4.56
-4.99
-5.41
-5.84
-6.19
-6.45
-6.48
-4.88
-2.53
0.08
2.35
4
5.04
5.79
6.11
6.24
6.29
6.19
6.08
5.97
5.92
5.76
5.55
5.23
4.72
4.16
3.84
2.8
2.24
1.71
1.36
1.04
0.72
0.4
0.08
-0.24
-0.64
-1.07
-1.49
-1.92
-2.37
-2.85
-3.28
-3.68
-3.57
-2.48
-0.45
1.84
4.08
5.47
6.59
7.2
7.57
7.79
7.84
7.76
7.71
7.6
7.49
7.39
7.28
7.04
6.67
6.16
5.84
4.83
4.16
3.55
3.01
2.56
2.21
1.79
1.36
0.93
0.45
0
-0.53
-1.07
-1.6
-2.16
-2.69
-3.2
-3.6
-3.76
-2.8
-1.01
1.33
3.52
5.17
6.4
7.28
7.6
7.81
7.92
7.92
7.87
7.84
7.84
7.79
7.68
7.44
7.07
6.64
5.97
5.23
4.56
3.97
3.49
3.04
2.61
2.19
1.76
1.31
0.83
0.32
-0.21
-0.8
-1.36
-1.97
-2.51
-2.96
-3.52
-4.05
-4.32
-3.68
-2.03
0.24
2.53
4.24
5.52
6.29
6.72
7.04
7.04
7.04
6.96
6.93
6.83
6.72
6.59
6.32
5.92
5.36
4.72
4.08
3.36
2.72
2.16
1.65
1.23
0.8
0.37
-0.11
-0.56
-1.09
-1.57
-2.08
-2.72
-3.36
-3.92
-4.43
-4.91
-5.36
-5.87
-5.87
-5.2
-3.01
-0.56
1.76
3.6
4.77
5.52
5.97
6.13
6.16
6.03
5.92
5.68
5.55
5.28
5.04
4.61
4.08
3.92
2.61
1.87
1.12
0.51
0.03
-0.48
-0.91
-1.33
-1.76
-2.29
-2.83
-3.44
-4
-4.64
-5.28
-5.92
-6.61
-7.28
-7.92
-8.51
-9.12
-9.63
-9.68
-8.96
-6.64
-3.92
-1.44
0.56
1.79
2.56
2.93
3.09
2.96
2.72
2.35
1.92
1.52
1.15
0.72
0.13
-0.61
-1.44
-2.19
-2.77
-3.12
-3.44
-3.71
-3.92
-4.11
-4.27
-4.48
-4.72
-4.99
-5.28
-5.52
-5.84
-6.16
-6.48
-6.8
-7.04
-7.33
-7.33
-6.72
-4.69
-2.13
0.64
2.69
4.29
5.36
5.97
6.24
6.32
6.11
5.89
5.6
5.36
4.99
4.56
4.11
3.52
2.88
2.32
1.63
0.96
0.45
0.13
-0.16
-0.48
-0.75
-1.04
-1.44
-1.81
-2.24
-2.67
-3.09
-3.52
-3.97
-4.45
-4.88
-4.91
-4.21
-2.24
0.27
2.77
4.88
6.24
7.2
7.76
7.95
8
7.92
7.73
7.63
7.44
7.23
6.96
6.64
6.21
5.68
4.96
4.29
3.55
2.96
2.37
1.89
1.44
1.01
0.59
0.08
-0.45
-1.04
-1.68
-2.27
-2.75
-3.2
-3.71
-4.19
-4.72
-4.8
-4.16
-2.4
0.19
1.52
4.8
6.27
7.23
7.76
7.97
8.08
8.08
7.97
7.87
7.76
7.65
7.49
7.2
6.77
6.24
5.52
4.69
3.95
3.28
2.75
2.27
1.84
1.41
0.93
0.4
-0.16
-0.75
-1.28
-1.71
-2.13
-2.64
-3.15
-3.63
-4.08
-4.59
-4.91
-4.88
-3.12
-0.83
1.76
4.05
5.76
6.8
7.39
7.71
7.76
7.81
7.71
7.6
7.49
7.33
7.12
6.8
6.43
5.84
5.17
4.43
3.6
2.96
2.37
1.84
1.39
0.85
0.4
-0.16
-0.75
-1.36
-1.89
-2.37
-2.88
-3.33
-3.81
-4.32
-4.75
-5.23
-5.68
-6.08
-5.97
-5.12
-2.56
0
2.32
4.11
5.39
6
6.35
6.45
6.48
6.35
6.19
6.08
5.97
5.81
5.52
5.15
4.61
3.92
3.2
2.56
1.92
1.49
1.07
0.72
0.29
-0.13
-0.56
-1.09
-1.63
-2.24
-2.88
-3.47
-4.08
-4.69
-5.28
-5.92
-6.53
-7.12
-7.68
-8.11
-8.11
-7.36
-4.99
-2.37
0.16
1.95
3.23
3.92
4.27
4.37
4.32
4
3.68
3.36
3.04
2.67
2.24
1.68
0.99
0.16
-0.45
-0.99
-1.52
-1.76
-2.03
-2.24
-2.45
-2.67
-2.88
-3.12
-3.28
-3.76
-4.11
-4.53
-4.96
-5.39
-5.81
-6.24
-6.75
-7.12
-7.2
-6.24
-4.27
-1.6
0.72
2.64
4
4.72
5.04
5.12
4.99
4.72
4.48
4.16
3.79
3.36
2.88
2.24
1.52
1.17
0.27
-0.16
-0.45
-0.67
-0.96
-1.07
-1.23
-1.36
-1.6
-1.97
-2.32
-2.75
-3.17
-3.6
-4.05
-4.53
-4.96
-5.28
-5.07
-3.6
-1.23
1.55
3.92
5.6
6.72
7.52
7.76
7.92
7.92
7.79
7.57
7.36
7.15
6.88
6.48
6
5.36
4.72
4.32
3.2
2.56
1.95
1.41
0.96
0.51
-0.03
-0.64
-1.17
-1.65
-2.16
-2.61
-3.2
-3.68
-4.21
-4.75
-5.2
-5.01
-3.79
-1.6
1.12
3.57
5.44
6.72
7.36
7.76
7.92
7.92
7.76
7.65
7.55
7.44
7.23
6.96
6.64
6.16
5.47
4.8
4.03
3.28
2.64
2.19
1.71
1.28
0.77
0.29
-0.16
-0.69
-1.23
-1.68
-2.13
-2.61
-3.04
-3.49
-4.08
-4.48
-4.48
-3.41
-1.44
1.12
3.36
5.12
6.13
6.83
7.2
7.36
7.31
7.12
6.99
6.83
6.64
6.51
6.29
5.92
5.47
4.88
4.24
3.55
2.8
2.16
1.63
1.36
0.64
0.19
-0.35
-0.88
-1.47
-1.95
-2.4
-2.83
-3.31
-3.84
-4.37
-4.91
-5.44
-5.89
-5.89
-4.56
-2.37
0.19
2.48
4.05
5.12
5.76
5.97
6.08
6.08
5.89
5.73
5.6
5.49
5.33
5.04
4.61
4.08
3.44
2.72
2.03
1.52
1.01
0.64
0.24
-0.11
-0.53
-0.96
-1.41
-1.89
-2.4
-3.01
-3.6
-4.16
-4.72
-5.36
-6
-6.56
-7.2
-7.6
-7.28
-5.79
-3.44
-1.07
0.91
2.32
3.23
3.65
3.84
3.81
3.65
3.36
3.07
2.8
2.48
2.13
1.71
1.12
0.43
-0.43
-1.12
-1.73
-2.21
-2.56
-2.85
-3.12
-3.44
-3.76
-4.03
-4.32
-4.72
-5.09
-5.52
-6.03
-6.51
-6.96
-7.47
-7.95
-8.48
-8.37
-7.31
-5.2
-2.48
0.03
1.76
3.01
3.71
4.08
4.13
3.97
3.68
3.28
2.91
2.56
2.13
1.65
1.04
0.56
-0.13
-0.96
-1.36
-1.68
-1.92
-2.13
-2.35
-2.56
-2.77
-2.99
-3.2
-3.52
-3.79
-4.08
-4.48
-4.85
-5.28
-5.63
-5.73
-5.28
-3.47
-0.91
1.92
4.03
5.68
6.8
7.36
7.63
7.68
7.63
7.47
7.28
7.07
6.85
6.56
6.13
5.92
4.88
4.16
3.52
2.88
2.24
1.65
1.12
0.69
0.27
-0.24
-0.67
-1.09
-1.52
-1.87
-2.29
-2.72
-3.23
-3.65
-4
-4.29
-3.81
-2.24
0.19
2.75
4.8
6.32
7.33
8.08
8.29
8.4
8.48
8.35
8.13
8
7.79
7.57
7.36
6.91
6.37
5.76
5.01
4.27
3.68
3.09
2.67
2.24
1.81
1.33
0.72
0.19
-0.35
-0.88
-1.52
-2.21
-2.8
-3.41
-3.95
-4.4
-4.59
-3.95
-2.32
0.24
2.75
4.72
6.21
7.07
7.6
7.76
7.81
7.76
7.73
7.63
7.52
7.47
7.25
6.96
6.51
5.92
5.2
4.35
3.6
2.96
2.43
1.95
1.52
1.01
0.53
0
-0.56
-1.2
-1.84
-2.29
-2.83
-3.36
-3.81
-4.35
-4.88
-5.2
-4.83
-3.44
-1.04
1.36
3.52
4.93
5.95
6.48
6.72
6.77
6.72
6.61
6.45
6.24
6.13
5.97
5.68
5.23
4.64
4
3.33
2.59
1.92
1.36
0.83
0.32
-0.08
-0.45
-0.8
-1.23
-1.65
-2.08
-2.61
-3.15
-3.76
-4.21
-4.75
-5.28
-5.81
-6.35
-6.08
-4.72
-2.37
0.16
2.24
3.73
4.72
5.09
5.25
5.28
5.07
4.96
4.64
4.35
4.08
3.76
3.33
2.85
2.24
1.39
0.53
-0.16
-0.77
-1.25
-1.68
-2.13
-2.67
-3.2
-3.81
-4.4
-5.04
-5.65
-6.24
-6.8
-7.33
-7.87
-8.48
-9.04
-9.68
-10.08
-9.92
-9.07
-6.8
-4.03
-1.41
0.64
1.89
2.69
3.04
3.07
3.01
2.72
2.32
1.95
1.52
1.09
0.56
-0.16
-1.01
-1.87
-2.56
-3.07
-3.49
-3.76
-4.05
-4.27
-4.48
-4.69
-4.91
-5.12
-5.36
-5.68
-6
-6.29
-6.56
-6.96
-7.31
-7.52
-7.28
-5.41
-2.91
-0.08
2.35
4.27
5.44
6.19
6.56
6.72
6.77
6.67
6.56
6.24
5.92
5.6
5.15
4.61
3.84
2.99
2.13
1.28
0.64
0.05
-0.4
-0.8
-1.17
-1.52
-1.87
-2.29
-2.72
-3.15
-3.57
-4.08
-4.53
-5.01
-5.36
-5.39
-4.32
-2.08
0.64
3.25
5.52
6.75
7.6
8.08
8.27
8.27
8.16
7.95
7.73
7.52
7.28
7.01
6.64
6.08
5.44
4.72
3.92
3.23
2.56
2.03
1.49
0.96
0.53
0.05
-0.48
-0.96
-1.6
-2.08
-2.59
-3.01
-3.44
-4
-4.53
-4.88
-4.45
-3.01
-0.72
1.81
3.89
5.52
6.53
6.96
7.52
7.52
7.47
7.36
7.25
7.09
6.96
6.75
6.48
6.08
5.52
4.88
4.16
3.49
2.8
2.24
1.73
1.25
0.8
0.27
-0.27
-0.88
-1.41
-1.89
-2.32
-2.75
-3.23
-3.76
-4.29
-4.83
-5.36
-5.47
-4.51
-2.56
0.13
2.43
4.16
5.47
6.16
6.48
6.64
6.64
6.56
6.45
6.35
6.24
6.03
5.76
5.36
4.88
4.24
3.52
2.77
2.08
1.44
0.93
0.51
0.16
-0.27
-0.69
-1.12
-1.55
-2.03
-2.56
-2.99
-3.47
-4
-4.45
-5.04
-5.52
-5.92
-5.97
-5.28
-3.15
-0.75
1.6
3.23
4.4
5.04
5.36
5.41
5.28
5.15
4.93
4.64
4.43
4.16
3.76
3.31
2.72
1.92
1.07
0.32
-0.24
-0.75
-1.12
-1.44
-1.87
-2.29
-2.88
-3.49
-4.03
-4.56
-5.12
-5.76
-6.4
-6.96
-7.6
-8.32
-8.96
-9.6
-9.92
-9.79
-8.45
-6
-3.12
-0.67
1.2
2.29
2.99
3.28
3.41
3.25
2.96
2.53
2.11
1.68
1.23
0.59
-0.24
-1.07
-1.87
-2.48
-2.99
-3.36
-3.6
-3.81
-3.97
-4.16
-4.37
-4.59
-4.88
-5.28
-5.6
-6
-6.35
-6.72
-7.04
-7.28
-7.44
-6.96
-5.41
-2.85
-0.08
2.45
4.37
5.76
6.51
6.99
7.2
6.99
6.77
6.48
6.11
5.84
5.44
4.99
4.4
3.68
3.04
2.4
1.68
1.07
0.48
0.08
-0.27
-0.69
-1.12
-1.47
-1.89
-2.32
-2.75
-3.17
-3.6
-4.03
-4.51
-4.96
-4.96
-4
-2.08
0.59
3.09
5.04
6.4
7.31
7.76
8
8.05
8
7.87
7.71
7.6
7.39
7.17
6.8
6.32
5.68
5.04
4.29
3.6
2.88
2.35
1.87
1.44
0.99
0.45
0
-0.53
-1.07
-1.6
-2.11
-2.53
-3.04
-3.49
-3.97
-4.16
-3.89
-2.29
0.08
2.51
4.59
6.32
7.15
7.73
8
8.03
8.03
7.92
7.81
7.71
7.6
7.39
7.12
6.72
6.16
5.52
4.88
4.16
3.47
2.88
2.37
1.89
1.36
0.83
0.29
-0.24
-0.8
-1.44
-2
-2.64
-3.23
-3.84
-4.4
-4.99
-5.44
-5.52
-4.77
-2.8
-0.27
2.13
4
5.31
6.16
6.64
6.75
6.8
6.72
6.61
6.45
6.32
6.11
5.84
5.44
4.96
4.32
3.6
2.77
2.03
1.36
0.8
0.48
0.08
-0.35
-0.77
-1.2
-1.65
-2.19
-2.72
-3.28
-3.6
-4.48
-5.04
-5.63
-6.24
-6.88
-7.41
-7.68
-6.83
-4.91
-2.4
0.05
1.76
2.96
3.63
3.89
4.08
3.95
3.73
3.44
3.12
2.8
2.48
2.05
1.52
0.88
0.03
-0.72
-1.44
-2.05
-2.53
-2.96
-3.36
-3.68
-4.08
-4.43
-4.85
-5.28
-5.71
-6.13
-6.56
-7.01
-7.55
-8
-8.56
-9.2
-9.68
-9.6
-8.43
-6.16
-3.25
-0.69
1.2
2.48
3.12
3.44
3.6
3.44
3.12
2.88
2.51
2.08
1.63
1.04
0.32
-0.45
-1.31
-2.16
-2.67
-2.99
-3.28
-3.49
-3.71
-3.92
-4.13
-4.4
-4.72
-5.04
-5.36
-5.76
-6.11
-6.53
-6.96
-7.31
-7.36
-6.24
-4.13
-1.2
1.68
3.87
5.47
6.56
7.15
7.47
7.6
7.47
7.25
7.04
6.83
6.61
6.32
5.87
5.28
4.56
3.73
2.93
2.24
1.52
0.88
0.4
-0.16
-0.69
-1.12
-1.55
-1.97
-2.4
-2.83
-3.25
-3.68
-4.19
-4.67
-5.12
-4.88
-3.6
-1.36
1.44
4
5.84
7.17
7.97
8.48
8.69
8.8
8.72
8.61
8.56
8.48
8.27
8.05
7.68
7.2
6.51
5.76
5.12
4.48
3.84
3.31
2.83
2.4
1.97
1.76
0.88
0.21
-0.48
-1.12
-1.79
-2.53
-3.2
-3.79
-4.16
-4.4
-4.16
-2.93
-0.72
1.89
4.13
5.84
6.99
7.68
7.92
8.08
8.03
7.92
7.71
7.55
7.36
7.15
6.88
6.48
5.84
5.2
4.48
3.71
2.96
2.24
1.71
1.23
0.72
0.27
-0.32
-0.88
-1.44
-2.08
-2.72
-3.39
-4.03
-4.56
-5.09
-5.63
-6.16
-6.69
-6.75
-5.76
-3.68
-1.07
1.6
3.36
4.64
5.44
5.79
5.95
5.92
5.81
5.71
5.52
5.31
5.09
4.88
4.45
3.92
3.2
2.88
1.97
1.52
1.2
0.88
0.56
0.35
0.03
-0.32
-0.75
-1.23
-1.68
-2.19
-2.67
-3.12
-3.65
-4.19
-4.72
-5.25
-5.79
-6.16
-6.11
-4.77
-2.48
0
2.19
3.92
4.72
5.25
5.52
5.52
5.41
5.2
4.99
4.72
4.4
4.05
3.57
3.04
2.27
1.41
0.64
-0.05
-0.53
-0.96
-1.31
-1.73
-2.16
-2.59
-3.01
-3.52
-4.05
-4.64
-5.2
-5.84
-6.43
-7.04
-7.68
-8.27
-8.88
-9.28
-9.39
-8.32
-6.16
-3.33
-0.72
1.2
2.48
3.36
3.6
3.76
3.68
3.44
3.07
2.72
2.37
1.95
1.44
0.77
0.4
-0.72
-1.25
-1.73
-2.08
-2.35
-2.51
-2.64
-2.77
-2.99
-3.28
-3.52
-3.84
-4.16
-4.59
-5.01
-5.44
-5.87
-6.19
-6.4
-5.52
-3.55
-0.8
2.08
4.43
6
7.09
7.63
7.92
8.08
8.08
7.92
7.79
7.57
7.36
7.01
6.59
6
5.33
4.59
3.84
3.17
2.53
2
1.47
0.99
0.48
-0.11
-0.59
-1.12
-1.63
-2.11
-2.64
-3.09
-3.57
-4
-4.27
-3.89
-2.24
0.08
2.53
4.72
6.16
7.12
7.76
7.97
8.08
8.16
8.05
7.95
7.76
7.63
7.41
7.12
6.67
6.08
5.44
4.77
4.03
3.36
2.77
2.29
1.84
1.33
0.91
0.4
-0.13
-0.72
-1.36
-1.97
-2.56
-3.2
-3.81
-4.29
-4.72
-4.37
-3.04
-0.96
1.39
3.36
4.72
5.68
6.21
6.48
6.59
6.64
6.56
6.53
6.43
6.32
6.11
5.89
5.52
5.04
4.4
3.68
3.04
2.4
1.84
1.33
0.91
0.48
0.05
-0.37
-0.8
-1.33
-1.87
-2.4
-2.93
-3.47
-4
-4.61
-5.15
-5.6
-5.57
-4.61
-2.72
-0.37
1.76
3.36
4.51
5.2
5.52
5.76
5.76
5.76
5.73
5.63
5.52
5.41
5.36
4.88
4.43
3.89
3.28
2.75
2.27
1.92
1.6
1.28
0.96
0.56
0.19
-0.24
-0.75
-1.23
-1.68
-2.21
-2.69
-3.2
-3.65
-4.13
-4.64
-5.01
-4.69
-3.28
-1.25
0.93
2.96
4.03
4.83
5.28
5.55
5.65
5.68
5.57
5.47
5.36
5.12
4.8
4.4
3.95
3.36
2.64
1.95
1.36
0.72
0.13
-0.35
-0.8
-1.25
-1.73
-2.24
-2.88
-3.52
-4.16
-4.8
-5.44
-6.16
-6.8
-7.44
-8.08
-8.69
-9.28
-9.6
-9.31
-7.6
-5.2
-2.8
-0.83
0.72
1.44
1.92
2.16
2.16
2.05
1.84
1.6
1.28
0.96
0.53
0.05
-0.56
-1.36
-2
-2.56
-3.12
-3.44
-3.68
-3.97
-4.19
-4.4
-4.64
-4.96
-5.28
-5.63
-6.05
-6.48
-6.91
-7.39
-7.84
-8.29
-8.56
-8.4
-6.93
-4.53
-1.84
0.61
2.32
3.6
4.4
4.88
5.2
5.23
5.28
5.2
4.99
4.77
4.48
4.05
3.52
2.88
2.21
1.57
1.04
0.72
0.45
0.24
-0.03
-0.19
-0.4
-0.75
-1.17
-1.6
-2.05
-2.53
-3.04
-3.49
-4.08
-4.4
-4.13
-2.75
-0.56
1.89
3.97
5.52
6.51
7.15
7.52
7.68
7.68
7.68
7.68
7.63
7.44
7.33
7.12
6.72
6.24
5.55
4.88
4.16
3.47
2.8
2.29
1.87
1.44
0.99
0.4
-0.24
-0.93
-1.52
-2.16
-2.67
-3.09
-3.52
-3.95
-4.37
-4.32
-3.23
-1.15
1.28
3.52
5.23
6.48
7.2
7.57
7.76
7.79
7.84
7.76
7.68
7.63
7.6
7.47
7.2
6.8
6.24
5.6
4.96
4.35
3.76
3.28
2.85
2.43
2
1.44
0.85
0.32
-0.35
-1.04
-1.68
-2.29
-2.88
-3.52
-4.08
-4.61
-4.96
-3.89
-2.03
0.32
2.56
4.37
5.52
6.35
6.72
6.88
6.96
6.96
6.88
6.85
6.8
6.72
6.51
6.24
5.84
5.28
4.64
4
3.44
2.91
2.4
1.95
1.41
0.96
0.43
-0.11
-0.56
-1.12
-1.71
-2.24
-2.69
-3.23
-3.76
-4.35
-4.83
-5.28
-5.39
-4.53
-2.72
-0.19
2.11
3.92
5.17
5.97
6.32
6.48
6.48
6.48
6.35
6.24
6.16
5.95
5.73
5.36
4.8
4.16
3.36
2.59
1.79
1.04
0.61
0.19
-0.32
-0.77
-1.25
-1.76
-2.32
-2.96
-3.6
-4.24
-4.83
-5.44
-6.08
-6.72
-7.44
-8.13
-8.67
-9.12
-8.69
-8.16
-4.56
-2.05
-0.03
1.44
2.32
2.96
3.2
3.28
3.23
3.12
2.88
2.61
2.4
2.05
1.57
0.96
0.24
-0.45
-1.04
-1.47
-1.79
-2.08
-2.29
-2.51
-2.72
-2.96
-3.28
-3.52
-3.95
-4.37
-4.8
-5.15
-5.52
-5.84
-6.24
-6.56
-6.48
-5.55
-3.31
-0.56
1.92
3.89
5.52
6.16
6.59
6.8
6.8
6.69
6.56
6.35
6.08
5.84
5.49
5.01
4.4
3.65
2.96
2.24
1.55
0.96
0.4
0
-0.32
-0.72
-1.04
-1.41
-1.84
-2.27
-2.75
-3.28
-3.79
-4.27
-4.8
-4.99
-4.35
-2.64
0
2.51
4.56
6.08
6.99
7.52
7.73
7.89
7.84
7.81
7.76
7.68
7.55
7.33
7.12
6.67
6.08
5.36
4.69
4
3.36
2.83
2.35
1.84
1.41
0.93
0.48
-0.05
-0.59
-1.2
-1.76
-2.29
-2.8
-3.25
-3.79
-3.84
-3.09
-1.23
1.2
3.44
5.25
6.48
7.17
7.6
7.76
7.84
7.79
7.76
7.76
7.71
7.52
7.39
7.07
6.64
6.08
5.39
4.72
4.08
3.49
2.96
2.43
1.89
1.36
0.83
0.29
-0.24
-0.85
-1.44
-2.08
-2.72
-3.36
-4.08
-4.59
-4.8
-4.96
-3.84
-1.71
0.8
3.01
4.67
5.84
6.45
6.77
6.96
6.96
6.96
6.88
6.77
6.67
6.48
6.24
5.87
5.36
4.72
3.97
3.2
2.59
2
1.52
1.09
0.61
0.16
-0.29
-0.83
-1.36
-1.81
-2.35
-2.88
-3.41
-3.95
-4.4
-4.93
-5.36
-5.6
-4.43
-2.4
0.08
2.37
4.13
5.2
5.87
6.19
6.24
6.27
6.11
6
5.79
5.57
5.28
4.93
4.51
3.92
3.25
2.45
1.6
0.85
0.21
-0.32
-0.85
-1.39
-1.84
-2.37
-2.91
-3.44
-4
-4.64
-5.28
-5.89
-6.48
-7.12
-7.84
-8.48
-9.12
-9.36
-8.77
-7.2
-4.45
-1.95
0.16
1.52
2.43
2.8
2.96
2.91
2.72
2.4
2.13
1.92
1.57
1.15
0.56
-0.11
-0.85
-1.52
-2.05
-2.53
-2.88
-3.09
-3.31
-3.52
-3.73
-4
-4.32
-4.67
-5.09
-5.52
-5.95
-6.37
-6.8
-7.23
-7.65
-7.76
-7.15
-5.17
-2.48
0.24
2.53
4.32
5.15
5.73
6
5.97
5.81
5.6
5.39
5.17
4.88
4.53
4.05
3.44
2.72
2.13
1.6
1.12
0.75
0.32
-0.03
-0.4
-0.8
-1.23
-1.65
-2.08
-2.51
-2.72
-3.52
-4.05
-4.59
-5.12
-5.28
-4.53
-2.72
0.05
2.72
4.8
6.32
7.23
7.76
8.03
8.13
8.08
7.97
7.87
7.76
7.63
7.36
6.96
6.48
5.79
5.04
4.27
3.52
2.88
2.35
1.81
1.28
0.77
0.29
-0.32
-0.88
-1.47
-2.08
-2.64
-3.17
-3.6
-4.05
-4.59
-4.72
-4.19
-2.43
0
2.53
4.56
6.08
6.88
7.41
7.6
7.76
7.76
7.68
7.6
7.55
7.36
7.23
6.91
6.48
5.92
5.6
4.48
3.76
3.12
2.48
1.95
1.47
0.96
0.51
-0.08
-0.72
-1.33
-1.92
-2.48
-3.01
-3.55
-4.08
-4.61
-5.09
-5.44
-5.15
-3.71
-1.36
1.15
3.28
4.88
5.81
6.35
6.64
6.67
6.72
6.64
6.48
6.43
6.32
6.11
5.84
5.44
4.8
4.11
3.36
2.72
2.03
1.52
1.01
0.59
0.16
-0.27
-0.69
-1.12
-1.65
-2.19
-2.72
-3.33
-3.92
-4.48
-5.01
-5.55
-6.08
-6.13
-5.39
-3.52
-0.99
1.47
3.2
4.53
5.23
5.6
5.68
5.63
5.52
5.31
5.09
4.8
4.48
4.11
3.68
3.2
2.51
1.6
0.96
0.32
-0.32
-0.85
-1.33
-1.76
-2.19
-2.4
-3.2
-3.76
-4.35
-4.96
-5.6
-6.24
-6.88
-7.52
-8.16
-8.8
-9.31
-9.52
-9.28
-7.12
-4.51
-1.84
0.32
1.87
2.72
3.17
3.39
3.36
3.12
2.8
2.48
2.08
1.71
1.2
0.56
-0.13
-0.96
-1.57
-2.11
-2.56
-2.8
-3.07
-3.2
-3.41
-3.63
-3.84
-4.08
-4.4
-4.72
-5.07
-5.49
-5.84
-6.27
-6.69
-6.88
-6.51
-4.85
-2.24
0.53
2.99
4.96
6.03
6.83
7.2
7.31
7.25
7.04
6.83
6.67
6.48
6.13
5.71
5.2
4.37
3.63
2.88
2.16
1.52
0.96
0.45
-0.03
-0.56
-0.99
-1.41
-1.84
-2.29
-2.77
-3.2
-3.73
-4.27
-4.8
-5.2
-4.93
-3.68
-1.12
1.49
3.84
5.63
6.69
7.44
7.81
7.97
8
7.89
7.84
7.76
7.63
7.41
7.12
6.67
6.08
5.28
4.43
3.63
2.88
2.24
1.71
1.2
0.69
0.21
-0.32
-0.83
-1.25
-1.76
-2.29
-2.77
-3.28
-3.73
-4.32
-4.64
-4.61
-3.44
-1.28
1.33
3.68
5.52
6.61
7.36
7.76
7.92
7.92
7.92
7.81
7.71
7.52
7.41
7.2
6.8
6.32
5.63
4.8
4.05
3.36
2.72
2.16
1.84
1.12
0.59
0.05
-0.56
-1.17
-1.76
-2.32
-2.83
-3.31
-3.92
-4.45
-4.99
-5.44
-5.55
-4.75
-2.64
-0.08
2.32
4.32
5.57
6.37
6.8
6.99
7.04
6.96
6.77
6.67
6.56
6.43
6.16
5.76
5.23
4.53
3.76
2.93
2.19
1.6
1.09
0.72
0.32
-0.11
-0.53
-1.04
-1.49
-2.03
-2.56
-3.17
-3.76
-4.32
-4.88
-5.52
-6.16
-6.53
-6.27
-4.88
-2.48
0.08
2.08
3.55
4.45
4.96
5.07
5.07
4.96
4.72
4.45
4.24
3.95
3.63
3.2
2.53
1.79
0.96
0.13
-0.51
-1.04
-1.47
-1.89
-2.16
-2.48
-2.85
-3.28
-3.76
-4.35
-4.96
-5.6
-6.24
-6.88
-7.52
-8.16
-8.8
-9.23
-9.17
-8.32
-5.73
-2.96
-0.4
1.55
2.83
3.52
3.84
3.89
3.76
3.41
3.04
2.72
2.29
1.87
1.28
0.61
-0.13
-0.96
-1.68
-2.21
-2.64
-2.88
-3.15
-3.36
-3.57
-3.79
-4
-4.32
-4.64
-5.04
-5.39
-5.81
-6.16
-6.56
-6.88
-6.8
-5.76
-3.36
-0.48
2.11
4.19
5.84
6.64
7.12
7.36
7.33
7.17
7.04
6.83
6.56
6.32
5.89
5.36
4.72
3.89
3.52
2.4
1.71
1.12
0.56
0.03
-0.45
-0.88
-1.31
-1.73
-2.16
-2.59
-3.07
-3.6
-4.11
-4.59
-5.04
-5.23
-4.53
-2.8
-0.05
2.56
4.64
6.21
7.07
7.6
7.79
7.89
7.92
7.81
7.71
7.6
7.39
7.12
6.72
6.24
5.55
5.36
3.87
3.12
2.4
1.87
1.39
0.88
0.35
-0.19
-0.72
-1.23
-1.65
-2.16
-2.61
-3.09
-3.6
-4.13
-4.72
-5.04
-4.77
-3.39
-1.04
1.57
3.87
5.6
6.61
7.25
7.6
7.76
7.71
7.6
7.52
7.47
7.28
7.15
6.83
6.4
5.81
5.01
4.16
3.41
2.72
2.16
1.6
1.07
0.56
0.03
-0.51
-1.04
-1.55
-2.03
-2.56
-3.07
-3.55
-4.16
-4.69
-5.17
-5.6
-5.79
-5.04
-2.96
-0.37
2.08
4.08
5.33
6.19
6.64
6.75
6.8
6.72
6.53
6.43
6.32
6.11
5.84
5.52
4.96
4.21
3.36
2.53
1.79
1.28
0.85
0.48
0.08
-0.35
-0.77
-1.2
-1.73
-2.21
-2.72
-3.33
-3.87
-4.4
-4.96
-5.55
-6.16
-6.69
-6.96
-6.4
-4.51
-1.89
0.48
2.37
3.65
4.48
4.8
4.96
4.88
4.67
4.4
4.16
3.87
3.76
3.2
2.75
2.11
1.28
0.45
-0.24
-0.88
-1.39
-1.81
-2.16
-2.51
-2.88
-3.2
-3.63
-4.11
-4.72
-5.33
-5.92
-6.56
-7.17
-7.76
-8.4
-8.96
-9.44
-9.68
-8.48
-6.29
-3.44
-0.83
1.25
2.48
3.31
3.63
3.68
3.55
3.28
2.96
2.61
2.19
1.76
1.2
0.56
-0.24
-1.01
-1.71
-2.24
-2.56
-2.83
-3.04
-3.25
-3.47
-3.68
-3.92
-4.24
-4.64
-4.96
-5.28
-5.68
-6.08
-6.45
-6.8
-7.01
-6.37
-4.56
-1.89
0.99
3.6
5.25
6.43
7.12
7.39
7.44
7.36
7.15
6.93
6.72
6.48
6.16
5.76
5.09
4.35
3.6
2.8
2.11
1.44
0.93
0.45
-0.08
-0.43
-0.85
-1.28
-1.71
-2.19
-2.64
-3.15
-3.63
-4.08
-4.64
-5.07
-5.12
-3.84
-1.6
1.04
3.6
5.41
6.8
7.57
8
8.24
8.24
8.19
8.08
7.89
7.73
7.52
7.25
6.83
6.24
5.68
4.88
3.92
3.2
2.56
2
1.49
1.01
0.56
0
-0.59
-1.2
-1.76
-2.29
-2.8
-3.25
-3.79
-4.24
-4.75
-4.91
-4.4
-2.37
0.13
2.64
4.67
6.16
7.04
7.57
7.79
7.84
7.81
7.76
7.52
7.41
7.25
7.04
6.69
6.21
5.6
4.93
4.19
3.36
2.72
2.13
1.6
1.15
0.67
0.16
-0.45
-0.99
-1.6
-2.11
-2.59
-3.2
-3.65
-4.19
-4.72
-5.17
-5.65
-5.44
-4.27
-1.97
0.72
3.01
4.72
5.84
6.43
6.75
6.88
6.88
6.83
6.72
6.61
6.45
6.24
5.97
5.55
4.96
4.21
3.47
2.8
2.08
1.49
1.04
0.61
0.19
-0.24
-0.67
-1.09
-1.6
-2.21
-2.75
-3.28
-3.81
-4.35
-4.96
-5.52
-6.11
-6.64
-6.85
-6.27
-4.4
-1.92
0.43
2.32
3.55
4.29
4.72
4.75
4.8
4.64
4.35
4.13
3.84
3.52
3.15
2.56
1.89
1.09
0.24
-0.56
-1.25
-1.76
-2.08
-2.4
-2.72
-3.04
-3.36
-3.76
-4.19
-4.61
-5.12
-5.73
-6.32
-6.96
-7.52
-8.16
-8.88
-9.25
-9.04
-7.68
-5.23
-2.35
0
1.84
2.91
3.6
3.81
3.87
3.76
3.44
3.07
2.72
2.29
1.87
1.28
0.59
-0.21
-1.04
-1.36
-2.21
-2.56
-2.77
-2.99
-3.12
-3.33
-3.6
-3.84
-4.16
-4.43
-4.72
-5.15
-5.57
-6
-6.4
-6.72
-6.48
-4.99
-2.53
0.4
2.88
4
6.24
7.09
7.52
7.6
7.55
7.39
7.2
6.96
6.69
6.4
5.97
5.49
4.8
3.97
3.23
2.48
1.84
1.25
0.72
0.27
-0.21
-0.72
-1.15
-1.63
-2.08
-2.59
-3.07
-3.52
-4.05
-4.53
-4.96
-5.04
-4.35
-2.32
0.43
3.04
5.2
6.69
7.6
8.16
8.29
8.4
8.4
8.29
8.13
8
7.79
7.52
7.12
6.56
5.87
5.12
4.72
3.55
2.88
2.29
1.87
1.44
0.93
0.51
0
-0.53
-1.12
-1.68
-2.21
-2.75
-3.2
-3.73
-4.21
-4.56
-4.05
-2.56
-0.16
2.29
4.27
5.68
6.69
7.17
7.44
7.52
7.47
7.28
7.17
7.07
6.88
6.64
6.32
5.92
5.36
4.67
3.92
3.17
2.48
1.84
1.31
0.83
0.32
-0.29
-0.88
-1.44
-2.08
-2.67
-3.2
-3.73
-4.27
-4.8
-5.25
-5.84
-6
-5.49
-3.79
-1.36
0.99
2.91
4.32
5.09
5.57
5.76
5.84
5.79
5.6
5.47
5.25
5.04
4.8
4.43
4
3.33
2.59
1.92
1.25
0.83
0.48
0.13
-0.24
-0.64
-1.09
-1.57
-2.08
-2.69
-3.28
-3.92
-4.56
-5.2
-5.84
-6.48
-7.12
-7.68
-8.11
-8.16
-6.48
-4.21
-1.65
0.56
2
2.91
3.44
3.63
3.63
3.44
3.15
2.88
2.56
2.24
1.87
1.44
0.88
0.13
-0.72
-1.49
-2.08
-2.56
-2.96
-3.28
-3.6
-3.92
-4.24
-4.64
-5.07
-5.49
-6
-6.45
-6.99
-7.44
-7.95
-8.43
-8.88
-9.17
-8.91
-7.52
-5.09
-2.37
-0.08
1.6
2.67
3.36
3.57
3.63
3.52
3.28
3.01
2.72
2.43
2.11
1.68
1.04
0.35
-0.4
-0.85
-1.33
-1.68
-1.97
-2.24
-2.4
-2.51
-2.61
-2.8
-3.12
-3.44
-3.84
-4.27
-4.69
-5.12
-5.52
-5.79
-5.52
-3.92
-1.41
1.52
3.81
5.57
6.72
7.39
7.81
7.92
7.89
7.79
7.6
7.39
7.23
7.04
6.61
6.08
5.36
4.64
3.95
3.76
2.64
2.05
1.52
1.07
0.59
0.08
-0.4
-1.04
-1.6
-2.16
-2.8
-3.28
-3.81
-4.35
-4.8
-4.99
-4.4
-2.48
0.08
2.59
4.64
6.05
7.01
7.68
7.81
7.92
7.92
7.89
7.73
7.6
7.47
7.25
6.88
6.43
5.84
5.2
4.83
3.71
3.12
2.53
2.05
1.6
1.17
0.69
0.08
-0.45
-1.04
-1.6
-2.05
-2.64
-3.12
-3.63
-3.84
-4.56
-4.37
-3.2
-1.12
1.39
3.57
5.2
6.32
6.91
7.28
7.44
7.44
7.44
7.41
7.36
7.28
7.07
6.8
6.4
5.92
5.28
4.64
4
3.41
2.8
2.27
1.79
1.36
0.83
0.29
-0.32
-0.88
-1.52
-2.16
-2.61
-3.15
-3.68
-4.13
-4.67
-5.2
-5.52
-5.09
-3.6
-1.15
1.36
3.52
4.93
5.95
6.48
6.72
6.77
6.8
6.69
6.59
6.4
6.29
6.13
5.84
5.41
4.88
4.16
3.39
2.59
1.92
1.36
0.88
0.56
0.13
-0.29
-0.72
-1.15
-1.63
-2.16
-2.69
-3.23
-3.84
-4.29
-4.83
-5.36
-5.87
-6.29
-6
-4.61
-2.27
0.24
2.24
3.68
4.64
5.04
5.2
5.28
5.15
4.93
4.72
4.51
4.24
3.92
3.49
2.96
2.32
1.47
0.61
0
-0.59
-0.96
-1.36
-1.68
-1.95
-2.32
-2.77
-3.31
-3.84
-4.45
-4.99
-5.6
-6.24
-6.88
-7.6
-8.24
-8.88
-9.28
-9.01
-7.63
-5.12
-2.32
-0.03
1.76
2.77
3.31
3.6
3.55
3.33
3.04
2.64
2.27
1.84
1.39
0.8
0.08
-0.75
-1.49
-2.16
-2.59
-2.96
-3.2
-3.39
-3.49
-3.68
-3.81
-3.92
-4.24
-4.48
-4.85
-5.2
-5.6
-5.97
-6.4
-6.69
-6.59
-5.92
-3.55
-0.83
1.84
3.95
5.55
6.4
6.85
7.01
7.04
6.83
6.61
6.4
6.16
5.84
5.44
4.99
4.4
3.68
2.96
2.32
1.6
1.04
0.45
0
-0.4
-0.77
-1.2
-1.63
-2.05
-2.48
-3.01
-3.55
-4.08
-4.53
-5.01
-5.28
-4.77
-2.91
-0.32
2.32
4.51
6.24
7.07
7.65
7.92
7.95
7.95
7.84
7.73
7.63
7.44
7.2
6.83
6.4
5.76
5.07
4.32
3.52
2.88
2.32
1.81
1.39
0.88
0.43
-0.11
-0.64
-1.28
-1.92
-2.48
-2.99
-3.47
-3.92
-4.48
-4.8
-4.56
-2.91
-0.51
2.08
4.32
5.87
6.88
7.47
7.73
7.84
7.81
7.71
7.6
7.49
7.33
7.2
6.93
6.51
6
5.44
4.69
3.76
3.12
2.53
2
1.57
1.09
0.56
0
-0.64
-1.28
-1.92
-2.45
-2.96
-3.49
-4.03
-4.56
-5.07
-5.44
-5.52
-4.4
-2.27
0.32
2.59
4.35
5.44
6.16
6.48
6.56
6.61
6.51
6.32
6.21
6.11
6
5.76
5.39
4.88
4.21
3.47
2.8
2.13
1.49
1.04
0.72
0.56
0
-0.43
-0.91
-1.36
-1.89
-2.43
-3.04
-3.57
-4.05
-4.56
-5.01
-5.6
-6
-5.97
-4.8
-2.64
-0.05
2.19
3.92
4.93
5.57
5.84
5.97
5.81
5.6
5.39
5.12
4.8
4.53
4.11
3.52
2.83
2.4
1.28
0.67
0.13
-0.32
-0.83
-1.25
-1.68
-2.13
-2.61
-3.2
-3.81
-4.4
-5.04
-5.68
-6.32
-6.96
-7.49
-8.03
-8.56
-9.04
-9.36
-8.72
-7.04
-4.43
-1.84
0.16
1.6
2.56
2.96
3.12
3.12
2.91
2.64
2.24
1.89
1.47
0.96
0.4
-0.35
-1.04
-1.65
-2.24
-2.72
-3.01
-3.23
-3.44
-3.57
-3.73
-3.92
-4.16
-4.48
-4.8
-5.23
-5.71
-6.16
-6.67
-7.09
-7.52
-7.44
-6.53
-4.48
-1.55
1.28
3.44
5.09
6.11
6.64
6.75
6.75
6.56
6.32
6.05
5.84
5.55
5.28
4.88
4.21
3.47
2.72
2.4
1.49
0.96
0.53
0.11
-0.24
-0.56
-0.88
-1.28
-1.63
-2.05
-2.56
-3.09
-3.63
-4.16
-4.75
-5.07
-4.64
-2.93
-0.43
2.4
4.48
6.08
7.12
7.71
8.08
8.16
8.13
8.03
7.92
7.71
7.55
7.36
7.01
6.59
6.08
5.36
5.04
3.92
3.28
2.69
2.08
1.63
1.15
0.64
0.08
-0.56
-1.12
-1.76
-2.35
-2.8
-3.33
-3.81
-4.32
-4.67
-4.61
-3.44
-1.33
1.33
3.68
5.39
6.56
7.44
7.68
7.84
7.92
7.89
7.79
7.68
7.55
7.33
7.12
6.69
6.21
5.6
4.85
4.11
3.44
2.77
2.29
1.84
1.33
0.85
0.24
-0.32
-0.96
-1.52
-2.13
-2.67
-3.2
-3.73
-4.27
-4.8
-5.31
-5.36
-4.72
-2.53
0.03
2.48
4.4
5.63
6.4
6.85
7.01
6.96
6.93
6.83
6.72
6.67
6.45
6.24
5.89
5.36
4.72
3.97
3.28
2.56
1.95
1.41
0.88
0.45
0.03
-0.4
-0.83
-1.31
-1.84
-2.37
-2.85
-3.36
-3.89
-4.43
-4.96
-5.47
-5.84
-5.92
-4.43
-2.19
0.4
2.64
4.35
5.44
6.05
6.32
6.4
6.35
6.13
5.92
5.79
5.57
5.28
4.93
4.4
3.68
3.04
2.24
1.2
0.53
-0.05
-0.56
-1.01
-1.49
-2
-2.53
-3.12
-3.68
-4.24
-4.88
-5.6
-6.24
-6.88
-7.52
-8.16
-8.8
-9.36
-9.81
-9.65
-8.4
-5.76
-2.99
-0.48
1.15
2.32
2.96
3.28
3.28
3.12
2.88
2.72
2.16
1.81
1.39
0.8
0.13
-0.24
-1.36
-1.95
-2.43
-2.88
-3.2
-3.47
-3.68
-3.92
-4.19
-4.48
-4.77
-5.04
-5.44
-5.87
-6.24
-6.64
-7.07
-7.49
-7.84
-7.87
-7.17
-5.04
-2.21
0.56
2.88
4.45
5.52
6.16
6.35
6.35
6.16
5.87
5.65
5.36
5.01
4.59
4
3.33
2.59
1.84
1.15
0.67
0.4
0.11
-0.16
-0.56
-0.99
-1.41
-1.76
-2.19
-2.61
-3.12
-3.63
-4.11
-4.64
-5.15
-5.31
-5.04
-3.04
-0.48
2.16
4.35
6
6.96
7.55
7.87
7.92
7.87
7.71
7.6
7.41
7.25
6.96
6.61
6.13
5.44
4.67
3.87
3.04
2.37
1.73
1.2
0.75
0.21
-0.32
-0.85
-1.39
-1.84
-2.37
-2.91
-3.44
-3.97
-4.45
-4.96
-5.41
-5.52
-4.72
-2.64
0.03
2.8
4.67
6.05
6.96
7.41
7.63
7.68
7.57
7.47
7.44
7.31
7.09
6.88
6.53
6.05
5.36
4.93
3.71
2.96
2.32
1.73
1.2
0.77
0.35
-0.08
-0.51
-0.93
-1.36
-1.89
-2.43
-2.88
-3.44
-3.97
-4.48
-4.99
-5.41
-5.36
-4.32
-2.03
0.64
3.01
4.83
6.24
6.77
7.04
7.28
7.28
7.17
7.04
6.93
6.83
6.72
6.4
6.03
5.6
4.85
4.16
3.44
2.75
2.16
1.68
1.17
0.75
0.24
-0.11
-0.53
-1.04
-1.49
-2.03
-2.48
-3.01
-3.55
-4
-4.56
-5.09
-5.52
-5.47
-4.56
-2.48
0.19
2.48
4.24
5.41
6.11
6.56
6.59
6.64
6.64
6.53
6.37
6.24
6.11
5.79
5.36
4.77
4.08
3.36
2.61
1.87
1.28
0.69
0.27
-0.16
-0.61
-1.15
-1.76
-2.29
-2.88
-3.52
-4.16
-4.8
-5.36
-6
-6.64
-7.28
-7.92
-8.51
-8.96
-8.32
-6.61
-4.08
-1.36
0.77
2.32
3.28
3.76
4.08
3.97
3.81
3.6
3.28
2.91
2.56
2.13
1.6
0.96
0.32
-0.43
-1.28
-1.81
-2.29
-2.56
-2.85
-3.07
-3.28
-3.6
-3.92
-4.32
-4.72
-5.09
-5.52
-5.95
-6.37
-6.8
-7.31
-7.68
-8.08
-7.89
-6.72
-4.64
-1.73
0.77
2.64
4.03
4.72
5.12
5.28
5.17
4.96
4.72
4.4
4.08
3.65
3.12
2.48
1.81
1.12
0.56
0.05
-0.27
-0.56
-0.75
-0.91
-1.12
-1.41
-1.63
-1.92
-2.24
-2.61
-3.12
-3.65
-4.19
-4.72
-5.09
-5.2
-4.32
-2.35
0.37
3.04
5.04
6.53
7.52
7.92
8.19
8.32
8.21
8.05
7.84
7.71
7.44
7.12
6.67
6.08
5.36
4.61
3.87
3.2
2.51
1.97
1.44
0.91
0.43
-0.08
-0.61
-1.15
-1.76
-2.37
-2.96
-3.44
-3.97
-4.51
-5.12
-5.15
-4.4
-2.56
0.19
2.85
4.8
6.27
7.17
7.68
7.89
8
7.92
7.81
7.71
7.6
7.39
7.17
6.8
6.32
5.63
5.44
4.05
3.31
2.64
2.03
1.49
1.04
0.53
0.05
-0.48
-1.12
-1.65
-2.16
-2.61
-3.09
-3.6
-4.19
-4.67
-5.12
-5.36
-4.72
-3.12
-0.45
2.16
4.32
5.79
6.8
7.28
7.52
7.57
7.6
7.47
7.31
7.2
7.09
6.93
6.64
6.19
5.55
4.72
3.95
3.15
2.4
1.87
1.39
0.88
0.43
-0.11
-0.56
-0.99
-1.47
-2
-2.53
-3.07
-3.6
-4.05
-4.59
-5.12
-5.71
-6.08
-5.92
-4.51
-2.11
0.72
2.91
4.61
5.76
6.4
6.72
6.8
6.8
6.75
6.64
6.51
6.35
6.16
5.81
5.39
4.8
4.05
3.31
2.48
1.89
1.41
0.96
0.72
0.35
-0.08
-0.51
-0.93
-1.36
-1.89
-2.16
-2.88
-3.44
-4.03
-4.56
-5.01
-5.49
-6
-6.19
-5.39
-3.44
-0.91
1.6
3.76
4.91
5.65
6
6.11
6.05
5.92
5.71
5.44
5.2
4.96
4.59
4.16
3.47
2.61
1.76
0.99
0.4
-0.24
-0.77
-1.31
-1.76
-2.21
-2.69
-3.2
-3.73
-4.32
-4.88
-5.52
-6.16
-6.8
-7.44
-8.03
-8.64
-9.25
-9.79
-10.08
-9.84
-8.35
-5.76
-2.99
-0.59
1.36
2.29
2.93
3.2
3.2
3.04
2.8
2.45
2.03
1.6
1.15
0.56
-0.08
-0.91
-1.6
-2.16
-2.75
-3.12
-3.44
-3.65
-3.87
-4.16
-4.37
-4.64
-4.96
-5.28
-5.65
-5.92
-6.35
-6.72
-7.12
-7.47
-7.79
-8
-7.25
-5.44
-2.72
0.32
2.72
4.56
5.73
6.43
6.88
6.88
6.77
6.56
6.27
6
5.68
5.25
4.72
4
3.25
2.56
1.84
1.31
0.83
0.4
0
-0.37
-0.8
-1.15
-1.57
-2.08
-2.51
-2.93
-3.44
-3.89
-4.43
-4.88
-5.31
-5.47
-4.8
-2.67
-0.05
2.72
4.77
6.32
7.36
7.97
8.19
8.24
8.19
7.97
7.76
7.63
7.41
7.2
6.77
6.24
5.6
5.04
4.29
3.28
2.64
2.32
1.52
1.07
0.59
0.08
-0.53
-1.07
-1.68
-2.19
-2.67
-3.2
-3.65
-4.13
-4.64
-5.09
-5.31
-4.48
-2.61
0.05
2.64
4.72
6.16
7.12
7.52
7.73
7.84
7.81
7.71
7.68
7.55
7.33
7.04
6.69
6.21
5.6
5.2
3.97
3.28
2.56
1.97
1.52
1.07
0.59
0.08
-0.45
-0.93
-1.44
-1.87
-2.35
-2.8
-3.31
-3.79
-4.32
-4.85
-5.33
-5.6
-5.09
-3.44
-0.96
1.63
3.71
5.28
6.19
6.67
6.96
6.96
6.96
6.88
6.69
6.53
6.4
6.19
5.87
5.44
4.88
4.19
3.44
2.8
2.11
1.6
1.09
0.67
0.24
-0.19
-0.61
-1.04
-1.49
-2.03
-2.56
-3.09
-3.63
-4.08
-4.59
-5.07
-5.68
-5.89
-5.63
-4.24
-1.76
0.91
3.04
4.59
5.55
6.16
6.37
6.48
6.4
6.21
6.11
5.92
5.73
5.57
5.2
4.75
4.11
3.28
2.45
1.76
1.12
0.59
0.05
-0.4
-0.83
-1.31
-1.76
-2.32
-2.91
-3.52
-4.13
-4.72
-5.36
-5.97
-6.56
-7.2
-7.76
-8.35
-8.88
-8.75
-7.63
-5.44
-2.75
-0.29
1.36
2.51
3.15
3.44
3.49
3.39
3.2
2.88
2.72
2.24
1.81
1.39
0.8
0.05
-0.69
-1.52
-2.05
-2.53
-2.88
-3.25
-3.52
-3.76
-3.97
-4.24
-4.64
-4.99
-5.41
-5.84
-6.27
-6.69
-7.12
-7.55
-7.92
-8.24
-8.13
-7.07
-4.96
-2.03
0.53
2.56
3.92
4.77
5.12
5.28
5.23
5.04
4.72
4.4
4.08
3.65
3.23
2.64
1.89
1.15
0.56
0.05
-0.32
-0.64
-0.85
-1.07
-1.28
-1.49
-1.76
-2.08
-2.4
-2.77
-3.2
-3.76
-4.29
-4.8
-5.2
-5.36
-4.64
-2.75
0.03
2.72
4.85
6.4
7.52
7.95
8.21
8.32
8.29
8.19
8.08
7.87
7.65
7.36
6.91
6.32
5.68
4.85
4.05
3.36
2.67
2.08
1.6
1.09
0.67
0.16
-0.37
-0.91
-1.44
-2.08
-2.72
-3.2
-3.73
-4.27
-4.72
-5.01
-4.53
-3.04
-0.45
2.16
4.32
6.03
7.04
7.68
7.95
8.05
8.08
7.97
7.81
7.68
7.55
7.33
7.04
6.59
6
5.28
4.43
3.68
2.96
2.43
1.95
1.44
0.93
0.45
0
-0.56
-1.2
-1.84
-2.29
-2.77
-3.28
-3.81
-4.35
-4.8
-4.85
-4
-2.08
0.53
2.93
4.88
6.11
6.96
7.36
7.6
7.6
7.6
7.49
7.39
7.2
7.09
6.93
6.56
6.08
5.39
4.64
3.87
3.07
2.4
1.87
1.39
0.88
0.35
-0.13
-0.72
-1.31
-1.79
-2.24
-2.75
-3.23
-3.84
-4.37
-4.85
-5.36
-5.73
-5.73
-4.32
-2.11
0.51
2.8
4.48
5.65
6.32
6.61
6.72
6.72
6.53
6.43
6.24
6.11
5.84
5.52
5.07
4.48
3.76
3.04
2.35
1.68
1.04
0.51
0.08
-0.35
-0.77
-1.28
-1.73
-2.32
-2.96
-3.57
-4.16
-4.8
-5.52
-6.16
-6.8
-7.44
-8.03
-8.4
-8.24
-6.96
-4.48
-1.84
0.45
2.24
3.25
3.84
4.16
4.16
4.05
3.76
3.47
3.2
2.88
2.45
1.97
1.36
0.61
-0.08
-0.72
-1.33
-1.81
-2.16
-2.48
-2.8
-3.04
-3.36
-3.63
-4
-4.4
-4.77
-5.2
-5.71
-6.13
-6.56
-6.99
-7.47
-8.08
-8.03
-7.23
-5.28
-2.53
0.19
2.16
3.6
4.45
4.96
5.07
5.07
4.96
4.72
4.4
4.16
3.81
3.39
2.8
2.13
1.39
1.2
0.11
-0.37
-0.72
-1.04
-1.36
-1.6
-1.92
-2.24
-2.56
-2.88
-3.15
-3.44
-3.87
-4.29
-4.8
-5.36
-5.63
-5.2
-3.39
-2.16
2.16
4.35
6
7.12
7.76
8.08
8.16
8.13
8.03
7.84
7.63
7.41
7.12
6.69
6.21
5.52
4.72
4.03
3.2
2.56
1.97
1.36
0.93
0.51
0.08
-0.37
-0.96
-1.52
-2.11
-2.59
-3.12
-3.76
-4.35
-4.88
-5.2
-4.88
-3.28
-0.83
1.89
4.16
5.84
6.91
7.68
7.89
8
8.08
7.97
7.81
7.68
7.47
7.25
6.96
6.51
5.92
5.2
4.8
3.57
2.88
2.29
1.81
1.36
0.93
0.45
-0.16
-0.69
-1.17
-1.68
-2.11
-2.59
-3.12
-3.63
-4.11
-4.56
-4.88
-4.56
-3.2
-0.64
1.92
4.08
5.76
6.72
7.36
7.63
7.73
7.76
7.65
7.49
7.36
7.23
6.96
6.72
6.27
5.68
4.96
4.11
3.36
2.64
2.11
1.57
1.04
0.61
0.13
-0.4
-0.96
-1.55
-2.08
-2.53
-3.07
-3.6
-4.13
-4.67
-5.2
-5.63
-5.79
-5.28
-3.25
-0.75
1.76
3.6
5.04
5.84
6.35
6.45
6.48
6.45
6.35
6.16
6.03
5.81
5.6
5.25
4.72
4.08
3.36
2.67
1.92
1.39
0.91
0.48
0.08
-0.29
-0.72
-1.25
-1.79
-2.32
-2.85
-3.44
-4.08
-4.72
-5.04
-5.92
-6.56
-7.2
-7.52
-7.33
-5.84
-3.44
-0.88
1.25
2.88
3.76
4.29
4.48
4.53
4.37
4.16
3.84
3.52
3.2
2.85
2.37
1.76
0.91
0.05
-0.64
-1.28
-1.81
-2.24
-2.56
-2.83
-3.12
-3.44
-3.76
-4.16
-4.59
-5.01
-5.44
-5.87
-6.35
-6.96
-7.52
-8.11
-8.48
-8.35
-7.17
-4.72
-1.97
0.48
2.32
3.47
4.21
4.56
4.53
4.37
4.08
3.68
3.36
2.96
2.51
1.92
1.2
0.45
-0.24
-0.8
-1.2
-1.57
-1.84
-2.05
-2.27
-2.48
-2.72
-2.99
-3.28
-3.6
-3.97
-4.32
-4.75
-5.17
-5.6
-5.89
-5.68
-4.64
-1.95
0.88
3.44
5.31
6.64
7.36
7.71
7.81
7.84
7.63
7.47
7.28
7.04
6.67
6.24
5.68
4.99
4.16
3.39
2.59
1.84
1.28
0.75
0.24
-0.29
-0.88
-1.36
-1.79
-2.21
-2.64
-3.17
-3.71
-4.24
-4.69
-5.17
-5.28
-4.48
-2.4
0.32
2.91
4.93
6.48
7.28
7.76
8
8.03
8.03
7.92
7.73
7.63
7.44
7.12
6.75
6.24
5.57
4.83
4.08
3.28
2.64
2.08
1.57
1.09
0.56
0.03
-0.51
-1.04
-1.57
-1.84
-2.56
-3.01
-3.55
-4
-4.53
-4.75
-4.24
-2.32
0.13
2.64
4.75
6.08
7.04
7.55
7.81
7.92
7.89
7.84
7.76
7.57
7.41
7.2
6.77
6.35
5.76
5.2
4.35
3.36
2.72
2.19
1.68
1.17
0.69
0.16
-0.37
-0.96
-1.6
-2.24
-2.83
-3.36
-3.89
-4.48
-5.04
-5.63
-5.84
-5.44
-3.52
-1.07
1.52
3.44
4.88
5.76
6.35
6.51
6.56
6.53
6.43
6.24
6.11
5.89
5.68
5.33
4.85
4.24
3.49
2.75
2
1.47
0.99
0.64
0.21
-0.21
-0.64
-1.15
-1.63
-2.08
-2.61
-3.15
-3.76
-4.29
-4.83
-5.36
-5.89
-6.43
-6.4
-5.44
-3.31
-0.64
1.65
3.36
4.56
5.12
5.33
5.44
5.23
5.01
4.8
4.48
4.16
3.84
3.41
2.88
2.24
1.39
0.53
-0.16
-0.77
-1.31
-1.76
-2.08
-2.45
-2.96
-3.41
-3.95
-4.48
-5.12
-5.76
-6.4
-7.04
-7.68
-8.4
-8.96
-9.6
-10
-9.87
-8.75
-6.32
-3.47
-0.91
1.12
2.35
3.04
3.36
3.33
3.17
2.88
2.48
2.11
1.68
1.17
0.59
-0.16
-0.99
-1.36
-2.48
-2.99
-3.41
-3.68
-3.89
-4
-4.32
-4.56
-4.83
-5.12
-5.44
-5.76
-6.08
-6.51
-6.88
-7.28
-7.63
-7.79
-7.44
-5.23
-2.51
0.4
2.8
4.61
5.68
6.43
6.75
6.8
6.85
6.69
6.48
6.16
5.89
5.52
5.07
4.48
3.68
2.91
2.11
1.28
0.72
0.19
-0.24
-0.64
-1.01
-1.36
-1.79
-2.21
-2.64
-3.09
-3.57
-4.08
-4.53
-5.07
-5.44
-5.31
-3.92
-1.52
1.17
3.63
5.68
6.72
7.52
7.92
8.11
8.11
8
7.81
7.71
7.52
7.31
7.04
6.64
6
5.25
4.48
3.76
3.07
2.4
1.87
1.33
0.88
0.43
-0.11
-0.64
-1.2
-1.84
-2.32
-2.83
-3.31
-3.76
-4.29
-4.77
-5.04
-4.29
-2.53
0
2.69
4.72
6.16
7.12
7.6
7.92
7.92
7.87
7.76
7.65
7.49
7.36
7.12
6.75
6.32
5.65
4.91
4.16
3.36
2.72
2.16
1.57
1.09
0.64
0.11
-0.43
-1.04
-1.6
-2.13
-2.64
-3.17
-3.71
-4.24
-4.75
-5.23
-5.68
-5.39
-4.05
-1.84
0.85
3.15
4.8
6
6.59
6.88
6.96
6.91
6.72
6.61
6.45
6.32
6.08
5.76
5.36
4.8
4.11
3.28
2.51
2.08
1.2
0.8
0.43
0
-0.43
-0.91
-1.36
-1.81
-2.35
-2.88
-3.41
-3.95
-4.48
-5.01
-5.55
-6.08
-6.45
-6.45
-5.68
-3.33
-0.67
1.92
3.73
5.01
5.76
6.08
6.13
6.08
5.87
5.65
5.36
5.12
4.8
4.4
3.92
3.23
2.48
1.76
1.12
0.56
0
-0.53
-0.96
-1.41
-1.89
-2.4
-2.93
-3.47
-4
-4.56
-5.2
-5.84
-6.4
-7.04
-7.6
-8.16
-8.8
-9.2
-9.17
-8
-5.76
-2.96
-0.56
1.28
2.45
3.09
3.36
3.47
3.25
2.96
2.53
2.05
1.52
1.07
0.48
-0.24
-0.61
-1.68
-2.16
-2.67
-3.04
-3.28
-3.52
-3.73
-3.92
-4.16
-4.43
-4.64
-4.93
-5.2
-5.6
-5.95
-6.32
-6.72
-7.04
-7.31
-7.28
-6.24
-4.05
-1.2
1.57
3.76
5.36
6.19
6.67
6.88
6.83
6.61
6.4
6.11
5.84
5.44
5.01
4.48
3.76
2.93
2.24
1.68
1.07
0.53
0.08
-0.27
-0.69
-1.12
-1.47
-1.89
-2.4
-2.83
-3.25
-3.76
-4.19
-4.67
-5.12
-5.36
-4.88
-3.44
-0.64
2.08
4.4
6.16
7.33
7.92
8.27
8.37
8.4
8.19
8.03
7.84
7.63
7.52
7.04
6.56
5.92
5.12
4.37
3.63
2.88
2.32
1.79
1.28
0.85
0.32
-0.16
-0.72
-1.31
-1.84
-2.48
-3.01
-3.52
-3.97
-4.51
-4.88
-4.88
-3.76
-1.52
1.07
3.52
5.6
6.67
7.41
7.76
7.95
7.95
7.92
7.81
7.71
7.52
7.31
7.09
6.72
6.08
5.76
4.56
3.68
2.99
2.32
1.79
1.25
0.8
0.35
-0.19
-0.72
-1.33
-1.87
-2.32
-2.83
-3.31
-3.76
-4.32
-4.85
-5.28
-5.57
-5.09
-3.36
-0.85
1.71
3.76
5.15
6
6.56
6.67
6.72
6.64
6.45
6.29
6.16
6.03
5.76
5.44
4.96
4.32
3.6
2.85
2.11
1.44
0.85
0.48
0.08
-0.27
-0.69
-1.12
-1.57
-2.05
-2.56
-3.09
-3.68
-4.16
-4.69
-5.23
-5.76
-6.27
-6.27
-5.52
-3.33
-0.77
1.6
3.47
4.53
5.2
5.47
5.57
5.44
5.23
5.01
4.72
4.4
4.08
3.68
3.2
2.56
1.76
0.88
0.08
-0.56
-1.01
-1.49
-1.84
-2.19
-2.67
-3.2
-3.73
-4.27
-4.88
-5.44
-6.08
-6.72
-7.36
-8
-8.56
-9.2
-9.68
-9.84
-8.75
-6.61
-3.76
-1.28
0.69
2
2.83
3.04
3.28
3.15
2.88
2.48
2.13
1.71
1.28
0.77
0.03
-0.72
-1.44
-2.03
-2.56
-2.99
-3.31
-3.52
-3.73
-3.95
-4.16
-4.45
-4.67
-4.96
-5.31
-5.68
-6.08
-6.51
-6.93
-7.28
-7.47
-7.09
-5.28
-2.67
0.27
2.88
4.67
5.95
6.64
7.01
7.12
7.04
6.77
6.61
6.4
6.08
5.71
5.28
4.64
3.95
3.2
2.4
1.71
1.12
0.53
0.16
-0.24
-0.59
-0.96
-1.36
-1.79
-2.21
-2.72
-3.23
-3.71
-4.16
-4.69
-5.07
-5.2
-3.73
-1.49
1.28
3.71
5.68
6.88
7.71
8.03
8.16
8.21
8.11
8
7.89
7.79
7.6
7.31
6.99
6.48
5.81
5.07
4.24
3.57
2.88
2.32
1.79
1.25
0.72
0.19
-0.35
-0.88
-1.52
-2.05
-2.56
-3.01
-3.49
-4
-4.48
-4.69
-4.08
-2.19
0.32
3.04
4.91
6.29
7.2
7.65
7.87
7.92
7.81
7.71
7.68
7.55
7.33
7.12
6.85
6.37
5.68
5.31
4.19
3.44
2.8
2.21
1.68
1.23
0.75
0.24
-0.29
-0.88
-1.44
-2.05
-2.59
-3.04
-3.57
-4.11
-4.64
-5.07
-5.39
-4.96
-3.49
-1.09
1.36
3.31
4.16
5.68
6.08
6.24
6.24
6.13
5.97
5.84
5.65
5.55
5.36
5.04
4.61
4.08
3.36
2.72
2.08
1.41
0.99
0.56
0.21
-0.21
-0.64
-1.09
-1.57
-2.08
-2.53
-3.12
-3.6
-4.11
-4.59
-5.12
-5.65
-6.08
-6.32
-5.39
-3.47
-0.96
1.41
3.17
4.4
5.07
5.39
5.6
5.47
5.25
5.04
4.83
4.56
4.32
4.05
3.63
3.04
2.27
1.52
0.88
0.35
-0.13
-0.56
-1.07
-1.49
-1.92
-2.43
-2.91
-3.52
-4.05
-4.64
-5.2
-5.84
-6.48
-7.04
-7.68
-8.27
-8.8
-8.96
-8.16
-6.32
-3.71
-1.36
0.48
1.76
2.4
2.72
2.88
2.77
2.48
2.24
1.87
1.52
1.09
0.67
0.08
-0.59
-1.33
-2.08
-2.64
-3.12
-3.44
-3.68
-3.95
-4.16
-4.37
-4.59
-4.88
-5.23
-5.6
-6
-6.4
-6.77
-7.2
-7.6
-7.97
-7.92
-6.96
-4.83
-2
0.56
2.64
4.16
5.07
5.65
5.84
5.81
5.65
5.44
5.15
4.93
4.64
4.21
3.68
3.04
2.37
1.57
1.04
0.72
0.4
0.16
-0.08
-0.35
-0.64
-1.07
-1.49
-1.92
-2.43
-2.85
-3.28
-3.81
-4.35
-4.88
-4.91
-4.8
-2.32
0.24
2.8
4.72
6.19
7.15
7.76
8.05
8.16
8.08
8.05
7.89
7.76
7.55
7.33
6.96
6.48
5.84
5.12
4.48
3.84
3.2
2.67
2.19
1.76
1.33
0.85
0.4
-0.16
-0.75
-1.28
-1.89
-2.43
-2.96
-3.55
-3.92
-4.16
-3.52
-1.81
0.64
2.93
4.85
6.24
7.12
7.71
7.92
8
8
8
7.87
7.76
7.68
7.47
7.2
6.8
6.24
5.55
4.8
4.08
3.49
2.88
2.43
1.95
1.52
1.07
0.48
-0.08
-0.64
-1.23
-1.84
-2.48
-3.01
-3.52
-4.05
-4.53
-4.64
-3.95
-2.03
0.4
2.61
4.43
5.76
6.37
6.75
6.96
6.96
6.91
6.8
6.69
6.59
6.48
6.24
5.87
5.44
4.8
4.11
3.44
2.75
2.16
1.6
1.09
0.61
0.08
-0.45
-1.04
-1.6
-2.05
-2.64
-3.12
-3.68
-4.27
-4.8
-5.36
-5.95
-6.4
-6.16
-4.83
-2.56
0.08
2.21
3.76
4.72
5.2
5.52
5.49
5.33
5.12
4.91
4.69
4.48
4.21
3.79
3.28
2.53
1.84
1.12
0.51
-0.03
-0.56
-1.07
-1.55
-2
-2.43
-2.85
-3.44
-3.97
-4.56
-5.12
-5.76
-6.08
-6.96
-7.6
-8.19
-8.8
-9.12
-8.75
-7.28
-4.61
-2
0.16
1.84
2.8
3.36
3.52
3.47
3.28
3.04
2.72
2.4
2.05
1.63
1.12
0.43
-0.32
-0.96
-1.47
-1.79
-2.08
-2.27
-2.43
-2.64
-2.85
-3.07
-3.28
-3.6
-3.92
-4.32
-4.56
-4.93
-5.36
-5.76
-6.08
-5.92
-4.83
-2.53
0.32
2.77
4.8
6.24
7.01
7.44
7.6
7.68
7.63
7.44
7.31
7.09
6.8
6.45
5.97
5.36
4.53
3.79
3.6
2.56
1.97
1.52
0.99
0.51
0
-0.53
-1.07
-1.68
-2.27
-2.75
-3.28
-3.79
-4.27
-4.88
-4.64
-3.47
-1.44
1.25
3.65
5.36
6.69
7.44
7.92
8.13
8.24
8.16
8.13
8.03
7.92
7.71
7.49
7.12
6.56
5.87
5.68
4.37
3.68
3.04
2.51
2.03
1.52
1.01
0.53
0
-0.64
-1.23
-1.84
-2.48
-3.07
-3.6
-4.13
-4.61
-4.64
-3.49
-1.41
1.28
3.47
5.23
6.48
7.23
7.65
7.84
7.92
7.87
7.84
7.71
7.55
7.44
7.2
6.83
6.32
5.68
4.99
4.16
3.44
2.85
2.24
1.79
1.25
0.72
0.19
-0.4
-1.04
-1.68
-2
-2.8
-3.36
-3.95
-4.48
-4.99
-5.41
-5.12
-3.89
-1.55
0.96
3.01
4.56
5.68
6.19
6.51
6.64
6.64
6.53
6.48
6.37
6.27
6.08
5.76
5.33
4.8
3.95
3.09
2.4
1.73
1.25
0.8
0.45
0.03
-0.4
-0.85
-1.33
-1.84
-2.29
-2.88
-3.44
-4.05
-4.64
-5.28
-5.92
-6.35
-6.48
-5.25
-3.23
-0.88
1.28
2.83
3.84
4.43
4.69
4.8
4.69
4.53
4.32
4.08
3.76
3.52
3.09
2.56
1.92
1.15
0.35
-0.4
-0.91
-1.33
-1.68
-2.05
-2.32
-2.72
-3.07
-3.49
-4
-4.56
-5.2
-5.84
-6.48
-7.17
-7.76
-8.37
-8.75
-8.56
-6.83
-4.37
-1.68
0.37
1.97
2.96
3.55
3.71
3.76
3.55
3.28
2.96
2.72
2.35
1.92
1.33
0.59
-0.16
-0.85
-1.39
-1.84
-2.08
-2.29
-2.48
-2.69
-2.91
-3.2
-3.52
-3.84
-4.24
-4.67
-5.09
-5.2
-5.95
-6.37
-6.48
-5.73
-3.76
-0.96
1.71
3.84
5.44
6.37
6.96
7.28
7.28
7.28
7.12
6.93
6.77
6.56
6.21
5.73
5.12
4.45
3.65
2.88
2.24
1.6
1.12
0.61
0.13
-0.32
-0.83
-1.04
-1.76
-2.29
-2.77
-3.28
-3.89
-4.43
-4.96
-5.2
-4.56
-2.96
-0.32
2.13
4.24
5.79
6.8
7.28
7.55
7.65
7.68
7.65
7.55
7.44
7.39
7.17
6.88
6.43
5.84
5.04
4.27
3.52
2.8
2.27
1.79
1.36
0.91
0.32
-0.24
-0.75
-1.23
-1.68
-2.24
-2.83
-3.36
-3.89
-4.37
-4.56
-3.95
-2.03
0.4
2.77
4.64
6.16
6.88
7.36
7.6
7.71
7.71
7.68
7.6
7.55
7.44
7.2
6.88
6.48
5.84
5.52
4.32
3.6
2.96
2.48
1.97
1.49
0.96
0.43
-0.16
-0.8
-1.44
-2.13
-2.64
-3.17
-3.71
-4.24
-4.8
-5.28
-5.52
-4.67
-2.8
-0.32
2.13
3.89
5.2
6
6.48
6.72
6.69
6.64
6.56
6.53
6.43
6.32
6.08
5.71
5.28
4.61
3.92
3.28
2.64
2.05
1.52
1.04
0.67
0.24
-0.19
-0.67
-1.2
-1.65
-2.24
-2.8
-3.33
-3.92
-4.48
-5.04
-5.63
-6.08
-5.81
-4.53
-2.32
0.13
2.16
3.68
4.69
5.17
5.44
5.49
5.33
5.04
4.83
4.56
4.24
3.84
3.47
2.88
2.21
1.47
0.64
0.08
-0.45
-0.88
-1.31
-1.52
-2.16
-2.67
-3.15
-3.76
-4.32
-4.96
-5.68
-6.35
-7.04
-7.76
-8.4
-9.09
-9.6
-9.87
-9.17
-7.36
-4.53
-1.92
0.24
1.63
2.53
2.96
3.2
3.15
2.96
2.67
2.4
2
1.73
1.25
0.64
-0.11
-0.91
-1.6
-2.27
-2.64
-2.96
-3.2
-3.41
-3.6
-3.84
-4.11
-4.4
-4.8
-5.12
-5.52
-5.87
-6.29
-6.72
-7.12
-7.28
-6.88
-5.31
-2.69
0.08
2.48
4.24
5.6
6.32
6.75
6.96
6.99
6.93
6.72
6.45
6.29
5.92
5.49
4.91
4.16
3.49
3.12
2.08
1.47
0.88
0.4
-0.03
-0.4
-0.8
-1.25
-1.73
-2.24
-2.77
-3.31
-3.84
-4.45
-4.99
-5.28
-4.85
-3.2
-0.64
1.97
4.16
5.76
6.72
7.36
7.6
7.76
7.76
7.76
7.55
7.39
7.28
7.04
6.67
6.24
5.55
4.69
3.84
3.09
2.4
1.68
1.23
0.75
0.24
-0.21
-0.75
-1.2
-1.65
-2.19
-2.64
-3.2
-3.79
-4.32
-4.83
-5.15
-4.64
-3.04
-0.48
2.08
4.13
5.68
6.8
7.23
7.49
7.6
7.6
7.49
7.36
7.23
7.07
6.88
6.53
6.05
5.44
4.59
3.73
2.88
2.19
1.92
1.12
0.61
0.13
-0.4
-0.85
-1.33
-1.84
-2.29
-2.83
-3.36
-3.87
-4.35
-4.88
-5.41
-5.68
-5.28
-3.47
-1.01
1.52
3.65
5.09
6.08
6.56
6.77
6.8
6.77
6.67
6.56
6.35
6.13
5.92
5.57
5.09
4.48
3.71
2.91
2.16
1.52
0.93
0.48
0.13
-0.29
-0.72
-1.15
-1.57
-2.16
-2.69
-3.23
-3.76
-4.32
-4.96
-5.6
-6.24
-6.77
-7.12
-6.35
-4.53
-2.08
0.37
2.29
3.52
4.32
4.64
4.72
4.75
4.53
4.24
4.03
3.76
3.44
3.09
2.61
2
1.15
0.35
-0.4
-0.96
-1.49
-1.84
-2.24
-2.51
-2.8
-3.12
-3.49
-3.92
-4.35
-4.83
-5.44
-6.08
-6.72
-7.36
-8
-8.64
-8.96
-8.56
-6.96
-4.4
-1.71
0.59
2.32
3.2
3.73
3.92
3.95
3.73
3.44
3.09
2.67
2.24
1.79
1.2
0.4
0.03
-1.04
-1.52
-1.95
-2.27
-2.48
-2.69
-2.85
-3.04
-3.25
-3.52
-3.84
-4.16
-4.53
-4.96
-5.39
-5.81
-6.32
-6.48
-6
-4.4
-1.57
1.47
3.84
5.68
6.8
7.52
7.81
7.92
7.92
7.71
7.49
7.28
7.07
6.75
6.32
5.68
5.36
4.08
3.41
2.67
2
1.39
0.85
0.32
-0.21
-0.75
-1.28
-1.81
-2.29
-2.72
-3.17
-3.65
-4.08
-4.67
-5.09
-5.12
-3.95
-1.76
1.04
3.36
5.28
6.64
7.39
7.81
7.92
7.97
7.87
7.76
7.55
7.39
7.28
7.01
6.59
6.08
5.36
4.61
3.76
3.04
2.45
1.92
1.47
0.99
0.56
0.03
-0.56
-1.12
-1.71
-2.19
-2.72
-3.25
-3.79
-4.32
-4.8
-4.96
-4.08
-2.21
0.45
2.88
4.83
6.21
7.12
7.44
7.6
7.68
7.65
7.49
7.36
7.23
7.07
6.88
6.45
5.97
5.36
4.69
3.89
3.2
2.51
1.97
1.44
0.93
0.45
-0.16
-0.69
-1.28
-1.84
-2.29
-2.88
-3.44
-3.97
-4.51
-5.04
-5.55
-5.6
-4.96
-2.77
-0.27
2.16
4.08
5.31
6.08
6.45
6.61
6.64
6.61
6.51
6.4
6.27
6.05
5.84
5.41
4.88
4.16
3.41
2.72
2.08
1.47
0.93
0.48
0.05
-0.37
-0.8
-1.31
-1.79
-2.4
-2.93
-3.47
-4
-4.64
-5.28
-5.84
-6.48
-6.96
-7.12
-6
-3.87
-1.2
1.15
2.91
4.08
4.77
4.99
5.04
4.91
4.69
4.4
4.19
4.08
3.6
3.17
2.64
1.92
1.28
0.37
-0.56
-1.12
-1.6
-1.92
-2.32
-2.64
-2.96
-3.39
-3.81
-4.24
-4.72
-5.36
-6.08
-6.64
-7.28
-7.92
-8.56
-9.2
-9.44
-9.04
-7.33
-4.64
-1.87
0.43
2.16
3.07
3.65
3.84
3.81
3.65
3.28
2.93
2.51
2.08
1.63
1.04
0.32
-0.43
-1.17
-1.68
-2
-2.32
-2.56
-2.77
-2.93
-3.12
-3.36
-3.68
-4
-4.29
-4.56
-4.96
-5.31
-5.73
-6.24
-6.32
-5.79
-4.08
-1.28
1.65
4
5.84
6.96
7.6
7.89
8
7.92
7.73
7.57
7.36
7.07
6.75
6.32
5.65
4.85
4
3.33
2.53
1.84
1.23
0.69
0.24
-0.29
-0.83
-1.36
-2
-2.53
-3.04
-3.49
-4.03
-4.64
-5.23
-5.65
-5.6
-4.4
-2.11
0.72
3.04
5.01
6.4
7.15
7.57
7.76
7.84
7.79
7.68
7.55
7.33
7.12
6.77
6.35
5.68
4.96
4.27
3.44
2.69
2.05
1.44
0.99
0.51
0
-0.53
-1.07
-1.52
-2.03
-2.51
-2.96
-3.52
-4.05
-4.56
-4.96
-5.12
-4.16
-2.19
0.53
2.96
4.91
6.29
7.2
7.52
7.68
7.76
7.73
7.68
7.44
7.31
7.09
6.88
6.45
5.92
5.28
4.43
3.57
2.88
2.19
1.65
1.2
0.67
0.13
-0.4
-0.93
-1.41
-1.92
-2.45
-2.99
-3.52
-4.05
-4.59
-5.04
-5.57
-5.73
-5.2
-3.07
-0.45
2
4.11
5.39
6.24
6.69
6.85
6.88
6.77
6.67
6.56
6.37
6.21
6
5.57
5.04
4.32
3.76
3.01
2.08
1.47
0.93
0.48
0.05
-0.37
-0.8
-1.31
-1.79
-2.32
-2.85
-3.39
-3.92
-4.37
-4.96
-5.44
-5.97
-6.4
-6.48
-5.39
-3.31
-0.72
1.55
3.31
4.4
5.09
5.31
5.36
5.23
5.01
4.8
4.59
4.37
4.08
3.65
3.17
2.48
1.63
0.83
0.08
-0.48
-1.01
-1.36
-1.76
-2.13
-2.56
-3.09
-3.63
-4.16
-4.72
-5.36
-6.08
-6.72
-7.36
-8
-8.61
-9.2
-9.68
-9.68
-8.61
-6.48
-3.57
-0.96
1.12
2.32
3.12
3.52
3.65
3.49
3.2
2.85
2.43
2
1.55
0.96
0.32
-0.51
-1.31
-2
-2.67
-3.04
-3.36
-3.57
-3.79
-4
-4.21
-4.48
-4.8
-5.2
-5.52
-5.92
-6.27
-6.69
-7.12
-7.44
-7.65
-7.36
-5.89
-3.28
-0.48
2.13
3.2
5.44
6.16
6.53
6.72
6.61
6.45
6.24
5.95
5.68
5.36
4.91
4.27
3.52
2.77
2.03
1.36
0.83
0.35
-0.08
-0.43
-0.85
-1.28
-1.71
-2.13
-2.56
-3.01
-3.49
-4
-4.53
-5.07
-5.52
-5.49
-4.43
-2.4
0.35
2.85
4.8
6.16
7.07
7.44
7.68
7.73
7.68
7.55
7.39
7.2
6.99
6.72
6.32
5.76
5.07
4.32
3.47
2.72
2
1.44
0.91
0.4
-0.05
-0.64
-1.12
-1.63
-2.11
-2.56
-3.09
-3.63
-4.16
-4.61
-5.15
-5.44
-5.17
-3.57
-1.04
1.68
3.92
5.68
6.53
7.17
7.44
7.55
7.55
7.44
7.33
7.23
7.12
6.88
6.56
6.16
5.52
5.2
4
3.2
2.56
2
1.49
1.01
0.48
-0.05
-0.53
-0.96
-1.41
-1.95
-2.4
-2.93
-3.47
-4
-4.53
-5.07
-5.52
-5.57
-4.72
-2.72
-0.08
2.43
4.32
5.63
6.48
6.96
7.07
7.12
7.04
6.91
6.69
6.56
6.43
6.21
5.84
5.36
4.72
4
3.17
2.43
1.84
1.25
0.83
0.4
-0.03
-0.45
-0.88
-1.33
-1.81
-2.32
-2.77
-3.31
-3.84
-4.35
-4.83
-5.36
-5.87
-6.08
-5.36
-3.25
-0.69
1.76
3.84
5.07
5.92
6.29
6.45
6.4
6.29
6.13
6
5.87
5.6
5.36
5.01
4.48
3.84
2.96
2.21
1.6
1.07
0.59
0.24
-0.19
-0.61
-1.04
-1.57
-2.16
-2.8
-3.33
-3.92
-4.48
-5.12
-5.76
-6.32
-6.88
-7.47
-8
-8.43
-8.21
-7.12
-4.56
-1.89
0.4
2.19
3.2
3.76
4.03
4.13
4
3.76
3.39
3.04
2.72
2.35
1.92
1.33
0.53
-0.32
-1.17
-1.87
-2.32
-2.72
-2.99
-3.2
-3.41
-3.68
-4
-4.35
-4.77
-5.2
-5.63
-6.05
-6.48
-6.93
-7.41
-7.84
-8.19
-8.45
-8.32
-6.8
-4.45
-1.68
0.75
2.56
3.76
4.45
4.72
4.8
4.59
4.32
4
3.68
3.31
2.88
2.37
1.63
0.88
0.19
-0.35
-0.8
-1.04
-1.25
-1.44
-1.65
-1.87
-2.08
-2.37
-2.64
-2.96
-3.31
-3.68
-4.08
-4.43
-4.85
-5.28
-5.39
-4.64
-2.48
0.13
2.8
5.04
6.4
7.31
7.84
8.05
8.11
8
7.81
7.65
7.44
7.12
6.75
6.32
5.76
5.01
4.24
3.41
2.67
2.08
1.49
1.01
0.56
0.03
-0.51
-1.04
-1.57
-1.84
-2.56
-2.99
-3.47
-4
-4.51
-4.93
-5.28
-4.24
-2.32
0.24
2.85
4.93
6.32
7.28
7.76
8
8.08
8.03
7.92
7.73
7.57
7.36
7.12
6.75
6.24
5.57
4.77
3.84
3.17
2.48
1.92
1.39
0.85
0.4
-0.11
-0.59
-1.12
-1.65
-2.13
-2.64
-3.09
-3.57
-4.08
-4.67
-5.04
-5.12
-4.13
-2.05
0.64
2.96
4.88
6.24
7.01
7.49
7.68
7.73
7.63
7.52
7.39
7.23
7.12
6.85
6.43
5.92
5.25
4.45
3.6
2.88
2.29
1.68
1.23
0.75
0.24
-0.29
-0.88
-1.36
-1.87
-2.35
-2.8
-3.33
-3.87
-4.4
-4.85
-5.33
-5.76
-5.76
-4.53
-2.24
0.32
2.67
4.64
5.68
6.37
6.72
6.83
6.83
6.72
6.61
6.51
6.32
6.11
5.84
5.44
4.8
4.48
3.28
2.48
1.84
1.36
0.93
0.56
0.16
-0.27
-0.69
-1.2
-1.63
-2.11
-2.56
-3.09
-3.63
-4.08
-4.61
-5.15
-5.68
-6.05
-6.16
-5.44
-3.57
-0.96
1.44
3.36
4.64
5.52
5.73
5.84
5.84
5.63
5.36
5.12
4.88
4.56
4.16
3.68
3.04
2.24
1.39
0.59
0
-0.59
-0.8
-1.44
-1.95
-2.37
-2.88
-3.41
-3.95
-4.48
-5.12
-5.81
-6.4
-7.04
-7.63
-8.24
-8.8
-9.39
-9.92
-9.95
-9.04
-6.88
-4.05
-1.44
0.64
1.95
2.8
3.28
3.31
3.25
2.96
2.56
2.19
1.76
1.31
0.72
0.08
-0.56
-1.31
-2.16
-2.69
-3.17
-3.52
-3.81
-4.03
-4.24
-4.53
-4.8
-5.12
-5.36
-5.73
-6.08
-6.48
-6.8
-7.12
-7.47
-7.79
-7.92
-6.96
-4.93
-2.08
0.8
3.15
4.88
6
6.59
6.88
6.93
6.77
6.48
6.27
6
5.6
5.17
4.64
4
3.25
2.51
1.68
1.12
0.59
0.24
-0.16
-0.53
-0.88
-1.28
-1.65
-2.08
-2.59
-3.01
-3.52
-3.97
-4.45
-4.96
-5.23
-4.91
-3.28
-0.88
1.89
4.32
6
7.17
7.84
8.13
8.24
8.32
8.13
8.03
7.84
7.63
7.36
6.96
6.43
5.84
5.12
4.29
3.49
2.8
2.19
1.65
1.2
1.07
0.27
-0.48
-1.01
-1.55
-2.16
-2.75
-3.23
-3.76
-4.27
-4.75
-5.36
-5.55
-5.12
-3.52
-0.93
1.84
4.08
5.76
6.83
7.52
7.81
7.92
7.92
7.81
7.65
7.52
7.31
7.09
6.72
6.29
6.08
5.52
4.13
3.39
2.72
2.11
1.57
1.12
0.61
0.13
-0.32
-0.77
-1.25
-1.76
-2.21
-2.75
-3.28
-3.79
-4.27
-4.72
-5.23
-5.33
-4.96
-2.8
-0.29
2.32
4.32
5.87
6.72
7.17
7.39
7.44
7.39
7.23
7.04
6.93
6.77
6.48
6.13
5.65
5.04
4.19
3.39
2.56
1.92
1.33
0.8
0.35
-0.19
-0.64
-1.07
-1.49
-1.92
-2.48
-3.01
-3.52
-3.97
-4.51
-5.04
-5.57
-6.11
-6.56
-6.45
-5.33
-3.2
-0.43
2.03
3.92
5.17
5.92
6.24
6.4
6.35
6.24
6.03
5.87
5.68
5.44
5.12
4.72
4.08
3.39
2.72
2.05
1.41
0.8
0.35
-0.13
-0.56
-1.01
-1.55
-2.08
-2.64
-3.23
-3.76
-4.4
-4.99
-5.6
-6.13
-6.72
-7.28
-7.89
-8.43
-8.8
-8.43
-6.93
-4.48
-1.84
0.4
2.08
3.12
3.71
3.92
3.97
3.81
3.6
3.25
2.83
2.4
1.95
1.36
0.64
-0.13
-0.93
-1.6
-2.11
-2.53
-2.96
-3.2
-3.47
-3.76
-3.97
-4.24
-4.48
-4.91
-5.28
-5.68
-6.11
-6.53
-6.88
-7.31
-7.73
-8
-8.03
-6.96
-4.8
-2.05
0.61
2.8
4.03
4.56
5.28
5.36
5.25
5.04
4.77
4.4
4
3.57
3.09
2.56
1.89
1.09
0.48
0
-0.32
-0.64
-0.93
-1.15
-1.44
-1.65
-1.92
-2.24
-2.56
-2.88
-3.28
-3.79
-4.27
-4.72
-5.15
-5.31
-4.88
-3.04
-0.48
2.24
4.59
6.19
7.28
7.95
8.21
8.32
8.21
8.05
7.92
7.71
7.44
7.2
6.75
6.16
5.52
4.88
4.08
3.12
2.4
1.76
1.2
0.67
0.13
-0.32
-0.85
-1.44
-2.08
-2.53
-3.01
-3.52
-4.05
-4.59
-5.12
-5.49
-5.39
-4.4
-1.95
0.83
3.44
5.36
6.69
7.44
7.95
8.05
8.08
8.05
7.89
7.68
7.55
7.33
7.12
6.67
6.08
5.44
4.8
4
3.04
2.4
1.87
1.36
0.91
0.43
-0.08
-0.61
-1.2
-1.68
-2.13
-2.67
-3.2
-3.65
-4.13
-4.64
-5.04
-5.36
-4.72
-3.04
-0.43
2.24
4.35
5.89
6.96
7.36
7.63
7.76
7.65
7.55
7.44
7.31
7.09
6.8
6.53
6.05
5.44
5.04
3.81
3.04
2.32
1.73
1.28
0.75
0.27
-0.24
-0.67
-1.09
-1.52
-2.03
-2.51
-3.04
-3.55
-4.03
-4.56
-5.01
-5.49
-5.84
-5.55
-4.96
-1.68
0.93
3.17
4.96
5.97
6.51
6.8
6.83
6.83
6.72
6.53
6.37
6.16
5.92
5.55
5.12
4.48
3.79
3.04
2.4
1.71
1.12
0.69
0.32
-0.08
-0.51
-0.93
-1.36
-1.89
-2.37
-2.88
-3.47
-3.95
-4.48
-4.99
-5.47
-6
-6.43
-6.53
-5.76
-3.76
-1.04
1.44
3.41
4.69
5.52
5.84
6
5.92
5.71
5.44
5.12
4.83
4.51
4.08
3.63
2.99
2.8
1.49
0.8
0.08
-0.53
-1.12
-1.6
-2.03
-2.51
-2.96
-3.44
-3.97
-4.48
-5.09
-5.63
-6.24
-6.85
-7.44
-8
-8.56
-9.15
-9.76
-9.89
-9.2
-7.44
-4.67
-1.89
0.24
1.79
2.69
3.2
3.36
3.31
3.12
2.72
2.35
1.92
1.49
1.01
0.4
-0.37
-1.12
-1.84
-2.29
-2.77
-3.12
-3.33
-3.6
-3.84
-4.05
-4.27
-4.56
-4.88
-5.15
-5.44
-5.84
-6.16
-6.48
-6.88
-7.2
-7.44
-6.99
-5.49
-3.04
-0.11
2.45
4.4
5.76
6.67
6.96
7.04
6.93
6.72
6.48
6.21
5.92
5.57
5.15
4.48
3.73
2.93
2.08
1.44
0.85
0.4
0
-0.37
-0.72
-1.15
-1.57
-2
-2.43
-2.64
-3.28
-3.81
-4.29
-4.8
-5.28
-5.55
-5.04
-3.41
-0.69
2.08
4.43
6.13
7.44
7.95
8.27
8.4
8.37
8.21
8.08
7.87
7.65
7.36
7.01
6.53
5.92
5.09
4.72
3.6
2.91
2.32
1.84
1.33
0.85
0.32
-0.21
-0.75
-1.28
-1.84
-2.48
-2.96
-3.47
-3.89
-4.32
-4.85
-5.07
-4.64
-2.8
-0.24
2.4
4.61
6.11
7.12
7.63
7.89
8
7.89
7.79
7.68
7.55
7.33
7.12
6.85
6.43
5.84
5.28
4.48
3.52
2.88
2.29
1.76
1.25
0.77
0.32
-0.21
-0.8
-1.44
-1.87
-2.29
-2.8
-3.33
-3.87
-4.32
-4.85
-5.28
-5.36
-4.37
-2.4
0.16
2.43
4.29
5.52
6.24
6.56
6.72
6.77
6.67
6.48
6.35
6.13
6
5.76
5.39
4.88
4.21
3.47
2.72
1.97
1.33
0.8
0.4
0.03
-0.32
-0.75
-1.23
-1.68
-2.13
-2.67
-3.2
-3.65
-4.19
-4.72
-5.17
-5.76
-6.08
-5.89
-4.51
-2.16
0.43
2.67
4.32
5.31
5.89
6.16
6.21
6.11
5.92
5.63
5.41
5.12
4.77
4.35
3.84
3.15
2.72
1.6
0.88
0.24
-0.32
-0.85
-1.12
-1.76
-2.21
-2.69
-3.2
-3.81
-4.4
-5.04
-5.6
-6.24
-6.88
-7.41
-8
-8.56
-9.12
-9.44
-8.72
-6.85
-4.19
-1.6
0.4
1.84
2.72
3.09
3.2
3.2
2.96
2.64
2.32
1.89
1.47
1.04
0.48
-0.21
-0.88
-1.49
-2.08
-2.56
-2.88
-3.2
-3.44
-3.68
-3.89
-4.08
-4.4
-4.72
-5.04
-5.44
-5.76
-6.16
-6.51
-6.93
-7.36
-7.55
-7.28
-6.08
-3.6
-0.61
1.92
3.87
5.09
5.84
6.16
6.32
6.24
6
5.68
5.36
5.07
4.75
4.32
3.68
2.99
2.24
1.71
1.23
0.88
0.48
0.11
-0.24
-0.59
-0.96
-1.36
-1.79
-2.21
-2.64
-3.09
-3.57
-4.08
-4.59
-5.01
-5.2
-4.45
-2.53
0.16
2.67
4.69
6.16
7.12
7.71
7.84
7.92
7.87
7.76
7.55
7.39
7.2
6.96
6.59
6.08
5.36
4.67
3.84
3.09
2.4
1.76
1.31
0.83
0.32
0
-0.59
-1.28
-1.79
-2.27
-2.72
-3.25
-3.73
-4.24
-4.69
-5.17
-5.12
-4.27
-2.08
0.56
2.93
4.8
6.32
6.93
7.31
7.52
7.52
7.41
7.28
7.17
7.07
6.96
6.72
6.35
5.92
5.28
4.96
3.84
3.07
2.48
2
1.49
1.01
0.56
0.03
-0.45
-0.88
-1.31
-1.79
-2.24
-2.75
-3.23
-3.68
-4.21
-4.69
-5.12
-4.83
-3.55
-1.36
1.28
3.41
5.04
6.13
6.77
7.12
7.12
7.07
6.96
6.93
6.77
6.64
6.43
6.21
5.84
5.28
4.64
4
3.63
2.56
2
1.49
1.01
0.56
0.03
-0.51
-0.96
-1.39
-1.81
-2.32
-2.85
-3.39
-3.84
-4.37
-4.91
-5.36
-5.79
-5.57
-4.48
-2
0.56
2.8
4.48
5.44
6
6.27
6.37
6.24
6.03
5.81
5.6
5.39
5.12
4.72
4.24
3.55
3.36
1.84
1.04
0.4
-0.13
-0.61
-1.12
-1.55
-1.97
-2.4
-2.93
-3.52
-4.16
-4.69
-5.28
-5.92
-6.56
-7.2
-7.76
-8.37
-8.91
-9.36
-8.85
-7.31
-4.8
-2.11
0.13
1.68
2.69
3.17
3.36
3.39
3.12
2.8
2.48
2.11
1.68
1.25
0.72
0
-0.77
-1.52
-2.08
-2.59
-2.91
-3.2
-3.41
-3.63
-3.84
-4.05
-4.27
-4.56
-4.91
-5.28
-5.6
-6
-6.37
-6.8
-7.2
-7.52
-7.2
-5.81
-3.31
-0.4
2.05
3.97
5.28
5.87
6.19
6.32
6.19
6.08
5.68
5.39
5.12
4.8
4.35
3.76
3.04
2.27
1.68
1.2
0.77
0.4
0
-0.35
-0.67
-0.96
-1.39
-1.81
-2.24
-2.75
-3.23
-3.68
-4.19
-4.67
-5.2
-5.12
-4.11
-2
0.75
3.36
5.28
6.64
7.49
8
8.13
8.24
8.16
8.05
7.89
7.68
7.49
7.28
6.88
6.4
5.71
5.52
4.13
3.44
2.8
2.27
1.73
1.28
0.77
0.29
-0.24
-0.8
-1.39
-2
-2.61
-3.09
-3.6
-4.13
-4.61
-5.04
-4.77
-3.44
-1.12
1.49
3.79
5.6
6.75
7.44
7.76
7.92
7.92
7.84
7.71
7.55
7.44
7.31
7.04
6.64
6.16
5.52
4.8
4.03
3.28
2.64
2.19
1.71
1.28
0.83
0.24
-0.32
-0.85
-1.39
-1.84
-2.4
-2.93
-3.44
-3.89
-4.43
-4.96
-5.15
-4.4
-2.56
-0.03
2.48
4.64
5.79
6.64
7.04
7.23
7.28
7.2
7.09
6.99
6.8
6.59
6.37
6.08
5.6
4.96
4.16
3.36
2.67
2
1.49
1.01
0.48
0.03
-0.45
-0.88
-1.31
-1.79
-2.24
-2.75
-3.23
-3.68
-4.24
-4.77
-5.28
-5.71
-6.03
-5.52
-4
-1.44
1.12
3.17
4.08
5.84
6.24
6.4
6.48
6.35
6.13
6
5.87
5.65
5.44
5.01
4.48
3.76
2.93
2.13
1.44
0.75
0.21
-0.24
-0.75
-1.17
-1.68
-2.13
-2.67
-3.2
-3.76
-4.4
-4.96
-5.6
-6.19
-6.8
-7.36
-7.95
-8.56
-8.91
-8.75
-7.28
-4.91
-2.19
0.08
1.68
2.69
3.36
3.49
3.49
3.28
3.04
2.67
2.32
1.89
1.47
1.04
0.29
-0.45
-1.2
-1.55
-2.51
-2.96
-3.33
-3.6
-3.84
-4.05
-4.32
-4.64
-4.88
-5.25
-5.6
-6.03
-6.45
-6.88
-7.31
-7.73
-8.16
-8.37
-7.95
-6.48
-3.68
-0.75
1.76
3.71
4.77
5.36
5.63
5.73
5.6
5.36
5.04
4.72
4.37
3.95
3.44
2.77
2.03
1.2
0.53
-0.05
-0.4
-0.69
-0.91
-1.12
-1.39
-1.55
-1.76
-2.08
-2.45
-2.96
-3.39
-3.81
-4.32
-4.75
-5.17
-4.88
-3.49
-1.04
1.76
4.11
5.92
7.12
7.81
8.19
8.32
8.29
8.13
7.92
7.79
7.57
7.28
6.93
6.45
5.84
5.09
4.29
3.52
2.8
2.21
1.68
1.15
0.67
0.24
-0.29
-0.83
-1.44
-2.05
-2.59
-3.04
-3.57
-4.11
-4.64
-5.07
-5.28
-4.4
-2.32
0.4
2.88
4.93
6.32
7.28
7.76
7.92
8
7.97
7.87
7.68
7.49
7.33
7.12
6.69
6.21
6.08
4.85
4.05
3.28
2.67
2.08
1.6
1.09
0.67
0.16
-0.37
-0.91
-1.52
-1.97
-2.45
-2.88
-3.39
-3.87
-4.4
-4.91
-5.12
-4.96
-3.09
-0.69
1.92
4.03
5.63
6.48
7.04
7.31
7.36
7.31
7.15
7.04
6.93
6.77
6.56
6.24
5.87
5.28
4.53
3.79
3.04
2.4
1.81
1.28
0.83
0.29
-0.24
-0.77
-1.31
-1.76
-2.27
-2.75
-3.28
-3.73
-4.27
-4.8
-5.39
-5.81
-6.08
-5.44
-3.68
-1.04
1.49
3.57
5.04
5.92
6.45
6.56
6.61
6.51
6.32
6.11
5.95
5.76
5.41
4.99
4.4
4.03
2.85
2
1.2
0.61
0
-0.45
-0.93
-1.36
-1.81
-2.35
-2.88
-3.41
-3.95
-4.56
-5.2
-5.79
-6.4
-7.01
-7.6
-8.16
-8.67
-8.67
-7.52
-5.33
-2.67
-0.08
1.49
2.67
3.36
3.71
3.76
3.6
3.33
2.96
2.56
2.21
1.79
1.36
0.72
-0.03
-0.88
-1.73
-2.32
-2.8
-3.15
-3.47
-3.76
-3.97
-4.24
-4.56
-4.88
-5.04
-5.68
-6.11
-6.53
-6.96
-7.39
-7.81
-8.16
-8.21
-7.41
-5.44
-2.61
0.21
2.48
3.97
4.88
5.52
5.55
5.49
5.28
4.96
4.64
4.32
3.89
3.47
2.88
2.13
1.44
0.72
0.03
-0.45
-0.8
-1.07
-1.23
-1.44
-1.73
-2
-2.32
-2.56
-2.93
-3.36
-3.81
-4.35
-4.8
-5.2
-5.25
-4.56
-2.21
0.51
3.2
5.2
6.64
7.52
8.03
8.19
8.24
8.11
7.89
7.68
7.47
7.25
6.96
6.51
5.92
5.2
4.64
3.84
2.88
2.21
1.63
1.12
0.67
0.19
-0.32
-0.93
-1.47
-2
-2.51
-2.99
-3.52
-3.97
-4.51
-4.96
-4.93
-3.97
-1.76
0.88
3.28
5.28
6.53
7.39
7.84
7.95
8
7.92
7.73
7.63
7.44
7.31
7.04
6.64
6.11
5.41
4.56
3.73
2.93
2.32
1.73
1.25
0.8
0.35
-0.19
-0.72
-1.25
-1.73
-2.16
-2.69
-3.23
-3.68
-4.21
-4.75
-4.88
-5.04
-3.65
-1.2
1.39
3.63
5.12
6.16
6.69
6.96
7.04
6.99
6.88
6.69
6.59
6.4
6.19
5.92
5.52
4.96
4.27
4.08
3.23
2.32
1.68
1.15
0.61
0.16
-0.37
-0.64
-1.36
-1.89
-2.37
-2.88
-3.41
-3.95
-4.48
-4.99
-5.47
-5.92
-6.11
-5.25
-3.44
-0.77
1.73
3.68
4.96
5.81
6.16
6.32
6.32
6.24
6.03
5.87
5.68
5.47
5.25
4.88
4.32
3.68
2.96
2.24
1.65
1.12
0.72
0.4
0.08
-0.35
-0.77
-1.2
-1.63
-2.11
-2.64
-3.17
-3.71
-4.24
-4.77
-5.31
-5.84
-6.37
-6.53
-5.92
-4.11
-1.65
0.88
2.53
3.76
4.56
4.91
4.96
4.88
4.67
4.4
4.08
3.76
3.49
3.12
2.67
2.03
1.28
0.88
-0.29
-0.88
-1.39
-1.81
-2.24
-2.56
-2.88
-3.2
-3.63
-4.16
-4.72
-5.28
-5.87
-6.48
-7.12
-7.71
-8.32
-8.93
-9.47
-9.76
-9.57
-8.03
-5.44
-2.69
-0.35
1.6
2.51
3.09
3.36
3.33
3.12
2.8
2.45
2.03
1.6
1.07
0.48
-0.24
-1.07
-1.87
-2.48
-2.93
-3.2
-3.44
-3.57
-3.79
-4
-4.13
-4.4
-4.72
-5.04
-5.36
-5.68
-6.03
-6.45
-6.88
-7.2
-7.25
-6.72
-4.64
-1.87
0.88
3.23
4.83
5.92
6.59
6.91
7.12
6.99
6.77
6.48
6.27
6
5.6
5.15
4.56
3.84
3.09
2.72
1.6
0.99
0.45
0
-0.4
-0.72
-1.12
-1.55
-1.97
-2.4
-2.83
-3.25
-3.76
-4.21
-4.8
-5.12
-4.96
-3.63
-1.28
1.41
3.81
5.68
6.85
7.6
8
8.24
8.19
8.08
7.95
7.73
7.52
7.39
7.07
6.64
6.08
5.76
4.64
3.89
3.2
2.56
2
1.47
1.04
0.59
0.05
-0.48
-1.09
-1.68
-2.32
-2.83
-3.25
-3.76
-4.29
-4.77
-4.96
-4.32
-2.51
0
2.56
4.59
6.08
7.01
7.55
7.84
7.87
7.87
7.76
7.57
7.47
7.28
7.07
6.75
6.32
5.76
5.01
4.24
3.44
2.75
2.24
1.73
1.25
0.8
0.27
-0.27
-0.88
-1.41
-1.89
-2.4
-2.93
-3.47
-3.92
-4.43
-4.91
-5.44
-5.47
-4.67
-2.8
-0.16
2.4
4.32
5.65
6.4
6.88
6.99
6.99
6.88
6.69
6.59
6.48
6.27
6.05
5.68
5.2
4.56
4.4
3.47
2.4
1.76
1.15
0.61
0.32
-0.11
-0.53
-0.96
-1.41
-1.95
-2.48
-2.93
-3.41
-3.92
-4.51
-4.99
-5.44
-5.95
-6.27
-6.48
-4.99
-2.64
0.16
2.56
4.43
5.52
6.19
6.51
6.56
6.51
6.29
6.08
5.95
5.84
5.52
5.17
4.75
4.16
3.39
2.64
1.92
1.36
0.83
0.32
-0.11
-0.53
-0.96
-1.41
-1.95
-2.48
-3.12
-3.71
-4.32
-4.93
-5.52
-6.08
-6.69
-7.28
-7.92
-8.43
-8.69
-8.48
-6.4
-3.84
-1.12
1.04
2.59
3.44
3.89
4.11
4.16
3.84
3.52
3.2
2.85
2.43
2
1.44
0.75
-0.08
-0.8
-1.44
-2.08
-2.48
-2.85
-3.2
-3.49
-3.76
-4
-4.32
-4.64
-5.04
-5.39
-5.81
-6.24
-6.67
-7.09
-7.52
-7.92
-8.24
-8.32
-7.33
-5.2
-2.32
0.19
2.21
3.6
4.37
4.8
4.88
4.83
4.56
4.24
3.89
3.52
3.12
2.56
1.92
1.2
0.88
-0.08
-0.56
-0.91
-1.23
-1.52
-1.65
-1.87
-2.16
-2.37
-2.64
-2.96
-3.28
-3.6
-4
-4.45
-4.93
-5.36
-5.57
-5.09
-3.36
-0.75
2.03
4.32
6
7.07
7.84
8.05
8.16
8.16
7.95
7.68
7.52
7.28
6.91
6.48
5.92
5.28
4.48
4.08
2.85
2.16
1.47
0.93
0.48
-0.03
-0.51
-1.12
-1.65
-2.13
-2.64
-3.07
-3.55
-4
-4.51
-4.93
-5.28
-4.53
-2.72
-0.16
2.43
4.61
6.16
7.17
7.44
8
8.08
7.97
7.76
7.63
7.41
7.2
6.96
6.59
6.08
5.49
4.69
3.84
3.07
2.37
1.76
1.23
0.75
0.24
-0.29
-0.83
-1.36
-1.87
-2.29
-2.8
-3.25
-3.73
-4.16
-4.61
-5.15
-5.28
-4.77
-3.07
-0.48
2.16
4.29
5.84
6.72
7.25
7.44
7.6
7.55
7.36
7.25
7.09
6.88
6.67
6.35
5.92
5.33
4.96
3.68
2.96
2.32
1.68
1.15
0.67
0.16
-0.29
-0.77
-1.2
-1.71
-2.19
-2.64
-3.15
-3.63
-4.16
-4.61
-5.09
-5.6
-5.87
-5.55
-3.84
-1.47
1.2
3.44
4.99
6
6.56
6.77
6.88
6.8
6.61
6.51
6.32
6.19
5.92
5.6
5.07
4.48
3.76
3.01
2.27
1.6
1.01
0.64
0.32
-0.11
-0.53
-0.96
-1.41
-1.89
-2.4
-2.93
-3.47
-3.92
-4.45
-4.99
-5.52
-5.97
-6.45
-6.88
-6.91
-6.11
-3.84
-1.12
1.55
3.68
4.93
5.73
6.16
6.27
6.27
6.08
5.81
5.65
5.44
5.12
4.75
4.32
3.65
2.85
2.08
1.47
0.88
0.4
-0.03
-0.51
-0.96
-1.49
-1.97
-2.48
-3.01
-3.6
-4.16
-4.77
-5.36
-5.92
-6.48
-6.8
-7.68
-8.21
-8.75
-9.2
-9.39
-8.69
-6.56
-3.92
-1.25
0.96
2.32
3.23
3.68
3.76
3.65
3.36
3.01
2.59
2.16
1.73
1.31
0.72
-0.05
-0.91
-1.6
-2.21
-2.75
-3.12
-3.41
-3.68
-3.92
-4.16
-4.43
-4.72
-5.04
-5.41
-5.76
-6.16
-6.48
-6.88
-7.31
-7.68
-8.08
-8.13
-7.55
-5.76
-2.93
0.05
2.48
4.24
5.31
5.92
6.13
6.19
6
5.68
5.31
4.88
4.45
4.03
3.52
2.85
2.11
1.92
0.69
0.11
-0.24
-0.45
-0.72
-0.96
-1.17
-1.44
-1.84
-2.27
-2.69
-3.12
-3.55
-3.97
-4.48
-4.91
-5.23
-4.96
-3.47
-1.07
1.76
4.08
5.95
7.2
7.95
8.32
8.4
8.35
8.13
7.92
7.68
7.41
7.2
6.85
6.37
5.68
5.25
3.92
3.04
2.32
1.68
1.04
0.51
0.03
-0.48
-0.93
-1.52
-2
-2.51
-2.93
-3.36
-3.89
-4.37
-4.88
-5.28
-5.49
-4.8
-3.73
-0.16
2.56
4.69
6.19
7.28
7.71
7.97
8.08
7.97
7.81
7.68
7.47
7.25
7.04
6.61
6.13
5.52
4.67
3.81
3.04
2.35
1.76
1.2
0.69
0.27
-0.32
-0.85
-1.12
-1.76
-2.21
-2.75
-3.2
-3.63
-4.11
-4.56
-5.09
-5.47
-5.6
-4.56
-2.48
0.16
2.72
4.59
5.92
6.69
7.07
7.28
7.25
7.15
7.04
6.93
6.77
6.56
6.32
5.95
5.44
4.88
4.08
3.12
2.32
1.68
1.12
0.56
0.24
-0.16
-0.59
-1.01
-1.44
-1.89
-2.37
-2.8
-3.25
-3.79
-4.24
-4.75
-5.23
-5.68
-6.08
-5.81
-4.56
-2
0.61
2.88
4.67
5.68
6.32
6.56
6.61
6.48
6.35
6.13
6
5.79
5.52
5.28
4.83
4.24
3.52
2.77
2.08
1.36
0.83
0.35
-0.08
-0.51
-0.93
-1.36
-1.89
-2.43
-3.04
-3.57
-4.16
-4.72
-5.25
-5.84
-6.4
-7.01
-7.55
-8.08
-8.59
-8.48
-7.44
-4.93
-2.21
0.16
2.03
3.09
3.76
4.05
4.16
4
3.76
3.39
3.04
2.69
2.27
1.84
1.28
0.53
-0.32
-0.99
-1.63
-2.08
-2.48
-2.85
-3.12
-3.41
-3.63
-3.92
-4.27
-4.64
-5.04
-5.44
-5.81
-6.24
-6.64
-7.01
-7.44
-7.79
-8.11
-8.16
-6.77
-4.53
-1.76
0.67
2.53
3.76
4.45
4.72
4.8
4.67
4.4
4.08
3.73
3.31
2.88
2.4
2.08
0.96
0.24
-0.35
-0.8
-1.12
-1.39
-1.6
-1.79
-1.95
-2.16
-2.27
-2.59
-2.88
-3.2
-3.52
-3.84
-4.27
-4.69
-5.2
-5.47
-5.15
-3.52
-1.09
1.73
4.16
5.81
6.93
7.6
7.89
8
7.92
7.71
7.49
7.28
6.99
6.72
6.32
5.79
5.15
4.32
3.47
2.61
1.92
1.31
0.77
0.24
-0.29
-0.83
-1.36
-1.79
-2.21
-2.72
-3.23
-3.71
-4.16
-4.67
-5.15
-5.68
-5.63
-4.77
-2.8
0.05
2.83
4.88
6.43
7.33
7.84
7.97
8.08
8
7.81
7.65
7.44
7.23
6.96
6.56
6.08
5.39
5.2
3.89
3.09
2.4
1.79
1.25
0.8
0.29
-0.19
-0.64
-1.2
-1.73
-2.24
-2.67
-3.09
-3.6
-4.03
-4.51
-4.96
-5.33
-5.17
-4.24
-1.65
1.07
3.52
5.28
6.51
7.2
7.55
7.65
7.68
7.55
7.39
7.2
7.09
6.93
6.64
6.27
5.73
5.12
4.27
3.47
2.72
2.19
1.65
1.12
0.69
0.21
-0.24
-0.67
-1.09
-1.52
-1.97
-2.45
-2.96
-3.41
-3.89
-4.32
-4.83
-5.2
-5.52
-5.15
-3.65
-1.28
1.36
3.65
5.36
6.4
6.99
7.12
7.17
7.12
6.8
6.64
6.48
6.24
6.03
5.81
5.44
5.15
4.24
4.08
2.83
2.08
1.44
0.91
0.43
0
-0.43
-0.85
-1.28
-1.79
-2.27
-2.72
-3.25
-3.73
-4.24
-4.67
-5.09
-5.6
-6.11
-6.48
-6.24
-4.83
-2.48
0.24
2.32
3.92
4.88
5.36
5.52
5.6
5.47
5.2
4.88
4.64
4.37
3.92
3.49
2.96
2.24
1.81
0.53
-0.16
-0.77
-1.25
-1.36
-1.95
-2.37
-2.8
-3.25
-3.52
-4.24
-4.77
-5.31
-5.92
-6.4
-6.99
-7.68
-8.29
-8.83
-9.44
-9.95
-9.95
-8.96
-6.64
-3.76
-3.04
0.99
2.37
3.2
3.55
3.6
3.44
3.09
2.67
2.24
1.92
1.44
0.8
0.13
-0.67
-1.52
-2.27
-2.69
-3.12
-3.44
-3.65
-3.68
-3.97
-4.19
-4.4
-4.64
-4.8
-5.2
-5.52
-5.84
-6.24
-6.59
-6.91
-7.2
-7.28
-6.64
-4.72
-3.28
0.99
3.36
5.04
6.16
6.96
7.17
7.23
7.12
6.88
6.72
6.32
6
5.63
5.12
4.56
3.81
2.88
2.51
1.39
0.72
0.45
-0.29
-0.72
-1.07
-1.44
-1.52
-2.19
-2.61
-3.04
-3.49
-3.76
-4.48
-4.91
-5.28
-5.36
-4.56
-4.56
0.72
3.2
5.17
6.56
7.47
7.89
8.08
8.13
7.97
7.92
7.63
7.41
7.2
6.93
6.72
6
5.33
4.53
3.68
3.12
2.48
1.68
1.15
0.67
0.16
-0.11
-0.91
-1.52
-2.03
-2.45
-2.56
-3.41
-3.95
-4.48
-4.91
-5.12
-5.12
-3.84
-1.44
1.36
3.12
4.88
6.64
7.33
7.71
7.84
7.81
7.71
7.52
7.41
7.25
7.2
6.8
6.43
5.84
5.15
4.72
3.44
2.72
2.08
1.52
1.12
0.64
0
-0.43
-0.85
-1.28
-1.52
-2.21
-2.64
-3.15
-3.63
-3.76
-4.69
-5.17
-5.44
-4.8
-4
-0.4
2.19
4.27
5.84
6.56
7.04
7.44
7.44
7.39
7.2
7.12
6.85
6.64
6.43
6.11
6
5.04
4.29
3.44
2.64
2.32
1.36
0.85
0.37
-0.08
-0.48
-0.91
-1.44
-1.87
-2.29
-2.8
-3.04
-3.79
-4.24
-4.75
-5.23
-5.36
-6.13
-5.97
-4.8
-2.45
-1.12
2.64
4.48
5.6
6.32
6.56
6.67
6.64
6.45
6.29
6.08
6
5.73
5.36
4.93
4.35
4.16
2.67
1.81
1.04
0.43
0.16
-0.64
-1.07
-1.55
-2
-2.4
-2.93
-3.6
-4.21
-4.48
-5.36
-5.65
-6.56
-7.12
-7.68
-8.27
-8.4
-9.17
-8.91
-7.52
-4.99
-3.6
0
1.68
2.75
3.36
3.52
3.57
3.44
3.12
2.75
2.4
2.19
1.55
1.04
0.37
-0.37
-0.56
-2.03
-2.61
-3.12
-3.49
-3.6
-3.92
-4.13
-4.4
-4.72
-4.96
-5.23
-5.68
-6.08
-6.45
-6.8
-7.01
-7.6
-8
-8.16
-7.79
-7.6
-3.87
-0.99
1.68
3.63
4.32
5.6
5.92
5.97
5.84
5.6
5.28
4.88
4.45
4.03
3.52
3.2
2.19
1.44
0.83
0.29
0.16
-0.4
-0.72
-1.04
-1.28
-1.44
-2
-2.43
-2.85
-3.28
-3.6
-4.08
-4.72
-5.15
-5.57
-5.52
-4.85
-2.29
0.56
3.15
5.17
5.6
7.52
8
8.24
8.24
8.24
7.92
7.71
7.49
7.28
7.04
6.61
6
5.25
4.88
3.6
3.23
2.16
1.52
1.01
0.53
0.4
-0.53
-1.07
-1.6
-2.13
-2.4
-3.12
-3.63
-4.11
-4.56
-4.96
-5.23
-5.04
-4.05
-0.64
2.08
3.12
5.95
6.96
7.63
7.89
7.92
7.89
7.79
7.68
7.47
7.36
6.96
6.69
6.21
5.6
5.04
4.19
3.2
2.4
1.76
1.2
0.96
0.48
-0.24
-0.77
-1.31
-1.44
-2.27
-2.69
-3.2
-3.65
-3.92
-4.64
-5.15
-5.47
-5.44
-4.32
-1.97
1.2
3.55
5.36
6.48
6.75
7.44
7.52
7.49
7.33
7.28
6.99
6.83
6.64
6.37
6.16
5.44
4.77
4.03
3.2
2.64
2
1.2
0.75
0.27
-0.16
-0.43
-1.17
-1.6
-2.03
-2.51
-2.64
-3.49
-3.97
-4.48
-4.93
-5.2
-5.76
-5.6
-4.21
-1.84
0.08
2.43
4.88
5.89
6.53
6.8
6.85
6.91
6.72
6.51
6.29
6.24
5.87
5.55
5.12
4.45
4.08
3.52
2.11
1.31
0.64
0.24
-0.24
-0.88
-1.33
-1.81
-2.32
-2.61
-3.47
-4.08
-4.64
-5.23
-5.36
-6.4
-6.99
-7.52
-8.13
-8.4
-8.88
-8.13
-6.11
-3.36
-1.44
0.59
2.64
3.41
3.84
4
3.95
3.73
3.36
3.01
2.64
2.56
1.81
1.28
0.64
-0.19
-0.56
-1.6
-2.19
-2.56
-2.96
-3.2
-3.47
-3.76
-4.08
-4.4
-4.72
-4.88
-5.36
-5.76
-6.19
-6.56
-6.64
-7.28
-7.65
-7.84
-7.33
-6.64
-3.28
-0.48
1.81
3.6
4.4
4.93
5.44
5.41
5.25
4.96
4.77
4.24
3.84
3.39
3.12
2.64
1.25
0.56
0
-0.43
-0.64
-1.12
-1.33
-1.6
-1.84
-2
-2.27
-2.72
-3.15
-3.57
-4
-4.24
-4.93
-5.36
-5.65
-5.39
-5.2
-1.65
1.07
3.6
5.47
6.16
7.52
7.89
8.05
8
7.84
7.63
7.36
7.12
6.8
6.4
6.13
5.28
4.48
3.84
3.04
2.64
1.36
0.83
0.32
-0.13
-0.4
-1.2
-1.71
-2.13
-2.56
-2.88
-3.36
-4
-4.45
-4.93
-5.28
-5.01
-3.68
-1.2
1.47
3.81
4.32
6.72
7.41
7.76
7.87
7.92
7.76
7.63
7.47
7.28
7.12
6.8
6.32
5.68
4.93
4.08
3.71
2.59
1.92
1.33
0.85
0.72
-0.13
-0.67
-1.2
-1.63
-1.84
-2.48
-2.99
-3.47
-3.92
-4.32
-4.8
-5.2
-4.45
-2.69
-0.24
1.01
4.53
6
6.96
7.44
7.52
7.76
7.71
7.6
7.41
7.36
7.12
6.88
6.51
6.08
5.6
4.8
3.76
2.93
2.24
1.68
1.44
0.69
0.24
-0.29
-0.83
-0.96
-1.71
-2.13
-2.64
-3.09
-3.36
-4.16
-4.67
-5.15
-5.6
-5.44
-4.11
-1.76
0.93
3.23
4.88
5.36
6.59
6.88
7.04
6.93
6.88
6.59
6.48
6.32
6.08
5.92
5.36
4.8
4.11
3.92
2.72
1.97
1.12
0.61
0.19
-0.24
-0.43
-1.01
-1.44
-1.95
-2.43
-2.56
-3.49
-3.97
-4.48
-5.01
-5.28
-6.16
-6.53
-6.43
-5.36
-3.68
-1.07
2
3.6
4.67
5.28
5.39
5.55
5.36
5.12
4.8
4.72
4.24
3.92
3.52
3.01
2.64
1.44
0.59
-0.16
-0.8
-1.2
-1.57
-2
-2.43
-2.85
-3.28
-3.55
-4.35
-4.96
-5.52
-6.16
-6.32
-7.36
-8
-8.56
-9.17
-9.44
-9.68
-8.67
-6.32
-3.44
-1.52
0.51
2.48
3.17
3.55
3.68
3.57
3.2
2.8
2.37
1.95
1.84
0.96
0.27
-0.56
-1.39
-1.76
-2.56
-2.99
-3.36
-3.6
-3.76
-3.97
-4.24
-4.48
-4.8
-5.12
-5.28
-5.76
-6.16
-6.51
-6.88
-6.96
-7.49
-7.33
-6.08
-3.57
-2.08
2.24
4.43
5.92
6.88
7.2
7.36
7.44
7.23
6.96
6.72
6.56
6.03
5.6
5.04
4.29
4.08
2.61
1.87
1.12
0.51
0.24
-0.32
-0.67
-1.04
-1.44
-1.76
-2.19
-2.72
-3.15
-3.57
-4.08
-4.32
-5.01
-5.28
-4.75
-3.04
-2.48
2.16
4.4
6.08
7.12
7.44
8
8.16
8.11
7.92
7.76
7.55
7.28
7.04
6.67
6.16
5.84
5.2
3.92
3.07
2.32
2.16
1.07
0.59
0.08
-0.45
-0.72
-1.52
-2.03
-2.51
-2.96
-3.36
-3.84
-4.48
-5.01
-5.49
-5.52
-4.91
-2.56
0.16
2.75
4.77
5.2
7.04
7.52
7.76
7.76
7.76
7.52
7.33
7.23
7.04
6.88
6.51
6
5.33
4.96
3.76
3.39
2.32
1.68
1.17
0.75
0.64
-0.29
-0.77
-1.2
-1.63
-1.84
-2.56
-3.07
-3.55
-4
-4.4
-4.88
-5.44
-5.39
-4.43
-2.24
-0.91
2.93
4.8
6.05
6.75
6.88
7.2
7.15
7.04
6.85
6.8
6.56
6.35
6.08
5.68
5.28
4.53
3.52
2.69
1.89
1.28
0.99
0.19
-0.24
-0.59
-1.01
-1.12
-1.97
-2.45
-2.96
-3.41
-3.68
-4.48
-4.93
-5.47
-5.92
-6.32
-6.59
-6.32
-4.48
-1.87
0.8
1.79
4.45
5.44
5.92
6.13
6.16
5.87
5.6
5.28
4.96
4.8
4.32
3.89
3.36
2.64
2
1.25
0.4
-0.13
-0.67
-1.2
-1.44
-2.19
-2.64
-3.09
-3.63
-3.76
-4.77
-5.36
-5.92
-6.56
-6.88
-7.76
-8.37
-8.64
-9.44
-9.6
-8.91
-7.12
-4.19
-1.52
0.56
1.2
2.85
3.28
3.44
3.33
3.28
2.64
2.27
1.84
1.41
1.2
0.32
-0.45
-1.25
-1.92
-2.32
-2.85
-3.36
-3.68
-3.95
-4.16
-4.27
-4.59
-4.88
-5.2
-5.52
-5.6
-6.16
-6.53
-6.88
-7.28
-7.44
-7.84
-7.55
-6.21
-3.84
-1.6
1.12
4.08
5.36
6.16
6.56
6.59
6.59
6.32
6
5.68
5.6
5.01
4.59
4
3.25
2.88
1.76
1.09
0.67
0.24
-0.08
-0.45
-0.88
-1.28
-1.65
-2.08
-2.29
-2.93
-3.36
-3.87
-4.29
-4.4
-5.23
-5.49
-5.12
-3.55
-2.32
1.76
4.16
5.92
7.12
7.6
7.92
8.16
8.13
7.97
7.76
7.65
7.33
7.04
6.69
6.21
6.08
4.96
4.11
3.12
2.32
2
1.12
0.61
0.13
-0.4
-0.8
-1.28
-1.84
-2.29
-2.77
-3.2
-3.44
-4.19
-4.64
-5.07
-5.17
-5.12
-2.53
0.08
2.72
4.83
5.68
6.8
7.81
8.03
8.08
8.08
7.92
7.68
7.49
7.33
7.12
6.93
6.29
5.68
5.12
4.32
3.92
2.61
2.03
1.52
1.07
0.8
0
-0.53
-1.07
-1.52
-1.84
-1.84
-2.96
-3.49
-3.97
-4.48
-4.72
-5.41
-5.28
-3.89
-1.6
-0.96
3.39
5.09
6.24
6.88
7.04
7.2
7.09
6.99
6.8
6.64
6.48
6.24
5.97
5.55
4.96
4.77
3.65
2.64
1.92
1.33
1.2
0.29
-0.13
-0.48
-0.91
-1.12
-1.76
-2.27
-2.75
-3.2
-3.6
-4.13
-4.8
-5.25
-5.73
-6.16
-6.03
-5.17
-2.96
-0.27
2.19
2.72
5.31
6.05
6.4
6.43
6.48
6.24
6.03
5.81
5.6
5.44
5.23
4.8
4.24
3.92
2.88
2.56
1.6
0.96
0.45
0.03
-0.08
-0.93
-1.41
-1.92
-2.45
-2.72
-3.6
-4.21
-4.75
-5.36
-5.84
-6.43
-7.2
-7.81
-8.35
-8.72
-8.48
-7.2
-4.8
-2.13
0.21
0.72
3.01
3.65
3.92
3.89
3.84
3.44
3.09
2.72
2.32
2
1.52
0.8
-0.03
-0.83
-1.52
-1.79
-2.53
-2.96
-3.28
-3.55
-3.6
-4.08
-4.4
-4.72
-5.04
-5.2
-5.76
-6.19
-6.56
-6.96
-7.28
-7.65
-8.08
-8.24
-7.92
-6.4
-5.09
-1.09
1.36
3.04
4.11
4.32
5.09
5.09
4.88
4.64
4.48
3.92
3.49
3.07
2.56
2.08
1.39
1.04
-0.05
-0.32
-0.88
-0.99
-1.31
-1.52
-1.81
-2.03
-2.08
-2.56
-2.88
-3.2
-3.55
-3.76
-4.48
-4.91
-5.33
-5.6
-5.2
-3.55
-0.8
2.08
4.43
6.16
6.64
7.87
8.16
8.24
8.13
8.08
7.71
7.49
7.2
6.88
6.72
6
5.33
4.53
4.32
3.12
2.43
1.6
1.07
0.59
0.08
-0.19
-0.99
-1.52
-2.03
-2.45
-2.56
-3.33
-3.81
-4.32
-4.75
-4.96
-5.28
-4.43
-2.35
0.4
2.32
4.4
6.48
7.25
7.73
7.92
7.92
7.87
7.76
7.63
7.41
7.36
6.96
6.59
6.16
5.49
5.12
3.84
3.12
2.48
1.92
1.52
1.04
0.4
-0.05
-0.53
-1.04
-1.25
-1.95
-2.4
-2.83
-3.31
-3.44
-4.27
-4.69
-5.04
-4.99
-4.56
-1.68
0.88
3.23
5.04
5.84
6.48
7.04
7.07
7.12
6.96
6.88
6.61
6.4
6.27
6
5.92
5.07
4.48
3.76
3.09
2.72
1.76
1.23
0.69
0.24
-0.08
-0.56
-1.12
-1.55
-1.97
-2.4
-2.64
-3.39
-3.84
-4.35
-4.83
-4.96
-5.84
-6
-5.36
-3.47
-2.24
1.52
3.49
4.83
5.68
6
6.16
6.16
5.97
5.81
5.6
5.52
5.36
5.04
4.61
4.13
4
3.2
2.24
1.6
1.07
0.8
0.24
-0.11
-0.53
-0.96
-1.28
-1.76
-2.4
-2.85
-3.39
-3.92
-4.21
-5.12
-5.68
-6.21
-6.8
-6.96
-7.63
-7.15
-5.44
-2.88
-1.6
1.6
2.96
3.76
4.24
4.32
4.21
4
3.68
3.36
3.04
2.88
2.35
1.92
1.25
0.51
0.32
-0.96
-1.49
-1.92
-2.32
-2.48
-2.88
-3.12
-3.44
-3.76
-4
-4.37
-4.88
-5.31
-5.73
-6.24
-6.48
-7.23
-7.76
-8.27
-8.59
-8.64
-6.61
-4.11
-1.36
0.93
1.84
3.6
4.13
4.35
4.4
4.24
3.92
3.52
3.12
2.75
2.32
2.03
1.12
0.4
-0.16
-0.8
-1.12
-1.68
-1.95
-2.08
-2.29
-2.4
-2.64
-2.85
-3.12
-3.44
-3.68
-4
-4.4
-4.8
-5.17
-5.44
-5.41
-4.88
-3.04
-0.48
2.19
2.8
5.92
6.93
7.52
7.79
7.84
7.76
7.55
7.33
7.12
6.96
6.69
6.24
5.76
5.07
4.32
3.95
2.83
2.16
1.57
1.09
0.96
0.13
-0.29
-0.8
-1.31
-1.52
-2.16
-2.59
-3.07
-3.52
-3.92
-4.4
-4.96
-4.72
-4.24
-1.12
0.19
3.87
5.6
6.77
7.2
7.6
7.95
7.95
7.84
7.71
7.6
7.36
7.23
6.96
6.56
6.24
5.55
4.56
3.73
3.04
2.48
2.21
1.41
0.96
0.53
0.05
-0.08
-1.01
-1.49
-1.92
-2.35
-2.56
-3.28
-3.79
-4.27
-4.4
-4.56
-3.39
-1.12
1.57
3.87
5.52
6
7.28
7.6
7.68
7.68
7.68
7.41
7.31
7.2
6.99
6.88
6.4
5.92
5.23
5.04
3.92
3.23
2.4
1.95
1.47
0.96
0.72
-0.03
-0.56
-1.09
-1.63
-1.76
-2.61
-3.09
-3.6
-4.05
-4.32
-5.04
-5.47
-5.68
-5.2
-3.76
-1.2
2
4
5.39
6.16
6.35
6.83
6.88
6.75
6.53
6.48
6.19
6.03
5.84
5.49
5.28
4.4
3.55
2.75
2
1.6
1.17
0.72
0.32
-0.05
-0.4
-0.61
-1.31
-1.76
-2.08
-2.61
-2.88
-3.73
-4.27
-4.8
-5.25
-5.52
-6.4
-6.72
-6.35
-4.88
-3.04
-0.53
2.32
3.63
4.53
5.04
5.12
5.23
5.04
4.75
4.48
4.4
3.92
3.55
3.12
2.53
2.16
0.96
0.24
-0.4
-0.96
-1.28
-1.6
-2
-2.4
-2.56
-3.12
-3.39
-4.19
-4.72
-5.25
-5.84
-6
-7.01
-7.28
-8.16
-8.69
-8.96
-9.36
-8.4
-6.21
-3.36
-1.44
0.59
2.72
3.49
3.87
4
3.89
3.47
3.04
2.69
2.27
2.16
1.31
0.67
-0.08
-0.91
-1.28
-2.16
-2.45
-2.67
-2.72
-3.04
-3.2
-3.44
-3.65
-3.87
-4.16
-4.29
-4.72
-5.04
-5.39
-5.76
-5.84
-6.37
-6.21
-5.04
-2.56
-1.12
3.04
5.09
6.43
7.28
7.52
7.68
7.68
7.47
7.25
6.96
6.83
6.4
6
5.52
4.83
4.64
3.25
2.45
1.68
1.39
0.8
0.08
-0.45
-0.93
-1.36
-1.68
-2.11
-2.64
-3.07
-3.49
-4
-4.24
-4.93
-5.36
-5.23
-4
-3.52
1.01
3.52
5.44
6.69
7.12
7.84
8
8
7.84
7.68
7.52
7.28
7.07
6.8
6.4
6.11
5.52
4.32
3.68
2.93
2.56
1.47
0.99
0.48
0.03
-0.24
-0.96
-1.39
-1.87
-2.32
-2.64
-3.12
-3.76
-4.21
-4.69
-4.96
-4.64
-3.15
-0.64
2
4.24
4.72
6.53
7.44
7.92
7.95
8
7.76
7.57
7.47
7.28
7.12
6.85
6.4
5.84
5.52
4.24
3.87
2.75
2.08
1.57
1.09
0.96
0.11
-0.43
-0.96
-1.57
-1.84
-2.48
-2.99
-3.47
-4
-4.4
-4.93
-5.52
-5.57
-4.72
-2.72
-1.39
2.45
4.32
5.63
6.48
6.64
6.99
6.99
6.88
6.75
6.64
6.4
6.19
5.92
5.84
5.12
4.48
3.52
2.69
2
1.36
1.09
0.35
0
-0.43
-0.85
-0.96
-1.73
-2.21
-2.72
-3.17
-3.44
-4.16
-4.69
-5.23
-5.76
-6.16
-6.53
-6.56
-5.01
-2.67
-0.08
0.91
3.63
4.64
5.12
5.33
5.36
5.15
4.88
4.56
4.4
4.08
3.68
3.23
2.64
1.92
1.28
0.48
-0.4
-1.01
-1.49
-1.84
-2
-2.48
-2.88
-3.31
-3.79
-3.92
-4.88
-5.47
-6
-6.61
-6.88
-7.76
-8.4
-8.99
-9.52
-9.68
-9.04
-7.36
-4.51
-1.73
0.48
1.2
3.07
3.6
3.76
3.65
3.6
3.01
2.59
2.16
1.73
1.52
0.72
0.03
-0.77
-0.96
-2
-2.43
-2.88
-3.09
-3.31
-3.52
-3.63
-3.95
-4.16
-4.48
-4.8
-4.88
-5.36
-5.73
-6.08
-6.48
-6.64
-6.8
-5.97
-3.89
-1.04
1.12
3.47
5.92
6.91
7.28
7.68
7.65
7.55
7.36
7.07
6.8
6.72
6.13
5.71
5.12
4.37
4
2.8
2.05
1.68
0.8
0.4
-0.13
-0.8
-1.25
-1.73
-2.16
-2.37
-3.01
-3.44
-3.95
-4.37
-4.48
-5.31
-5.52
-4.96
-3.12
-1.84
2.24
4.51
6.05
6.4
7.6
7.81
8
7.89
7.79
7.6
7.52
7.25
7.04
6.69
6.21
6.08
4.96
4.11
3.12
2.4
2.08
1.28
0.77
0.29
-0.16
-0.56
-1.09
-1.68
-2.11
-2.53
-3.04
-3.25
-3.95
-4.4
-4.91
-5.17
-5.2
-3.36
-0.96
1.76
2.85
5.04
6.88
7.47
7.79
7.84
7.84
7.68
7.44
7.33
7.17
6.96
6.8
6.27
5.68
5.2
4.45
4.08
2.77
2.08
1.52
1.07
0.8
0
-0.53
-1.07
-1.68
-2.08
-2.56
-3.2
-3.65
-4.13
-4.64
-4.91
-5.65
-6.08
-6
-4.56
-3.84
0.64
2.88
4.56
5.6
5.92
6.48
6.53
6.43
6.32
6.16
6
5.76
5.55
5.28
4.88
4.56
3.55
2.8
2.08
1.49
1.36
0.64
0.27
-0.08
-0.51
-0.72
-1.44
-1.87
-2.35
-2.8
-3.2
-3.68
-4.32
-4.77
-5.04
-5.76
-5.95
-6.32
-5.6
-3.6
-1.04
-0.4
3.39
4.72
5.52
5.87
5.92
5.84
5.6
5.28
4.96
4.8
4.8
4.08
3.6
2.96
2.24
1.84
0.67
0.08
-0.43
-0.91
-1.04
-1.87
-2.29
-2.72
-3.25
-3.52
-4.32
-4.93
-5.47
-5.6
-6.56
-7.15
-7.84
-8.45
-9.04
-9.6
-9.63
-9.25
-7.44
-4.69
-1.97
-1.36
1.81
2.77
3.28
3.39
3.44
3.12
2.69
2.32
1.92
1.6
1.12
0.4
-0.35
-1.15
-1.76
-2.03
-2.77
-3.2
-3.49
-3.71
-3.76
-4.21
-4.43
-4.72
-4.88
-5.2
-5.6
-5.95
-6.32
-6.72
-6.96
-7.28
-7.68
-7.52
-6.56
-4.32
-2.85
1.47
3.76
5.28
6.24
6.4
6.83
6.77
6.56
6.32
6.16
5.68
5.33
4.91
4.4
3.84
3.15
2.24
1.92
1.01
0.48
0.29
-0.24
-0.64
-0.88
-1.25
-1.44
-2.11
-2.53
-2.96
-3.39
-3.6
-4.24
-4.75
-5.07
-5.04
-4.08
-1.84
1.44
3.89
5.81
7.04
7.36
8.16
8.24
8.29
8.13
8.08
7.79
7.57
7.36
7.09
6.88
6.08
5.39
4.53
3.68
3.12
2.48
1.68
1.23
0.96
0.24
0
-0.75
-1.36
-1.89
-2.43
-2.56
-3.41
-3.89
-4.4
-4.83
-5.04
-5.04
-3.79
-1.44
1.36
3.12
4.99
6.8
7.41
7.68
7.92
7.89
7.79
7.6
7.49
7.33
7.28
6.85
6.43
5.92
5.25
4.88
3.6
2.88
2.24
2.08
1.28
0.8
0.24
-0.21
-0.75
-1.28
-1.49
-2.19
-2.64
-3.15
-3.63
-3.76
-4.61
-5.09
-5.44
-5.15
-4.56
-1.28
1.33
3.57
5.36
6.16
6.69
7.2
7.2
7.15
7.04
6.96
6.69
6.48
6.35
6.03
5.92
5.04
4.35
3.6
3.2
2.4
1.44
0.93
0.45
0
-0.32
-0.75
-1.28
-1.73
-2.27
-2.8
-3.04
-3.79
-4.24
-4.77
-5.31
-5.44
-6.21
-6.11
-5.04
-2.67
-1.28
2.56
4.4
5.52
6.24
6.48
6.59
6.56
6.37
6.21
6
5.89
5.57
5.28
4.96
4.32
4
2.53
1.79
1.12
0.51
0.24
-0.48
-0.99
-1.41
-1.92
-2.32
-2.91
-3.6
-4.21
-4.8
-5.36
-5.65
-6.56
-7.12
-7.68
-8.27
-8.4
-8.64
-7.36
-5.12
-2.27
-1.04
1.92
3.04
3.63
3.92
4
3.79
3.44
3.04
2.88
2.24
2.03
1.33
0.72
-0.05
-0.8
-0.96
-2.05
-2.53
-2.96
-3.25
-3.36
-3.76
-3.97
-4.24
-4.56
-4.8
-5.17
-5.68
-6.08
-6.45
-6.88
-7.09
-7.52
-8
-7.76
-6.53
-6.08
-1.39
1.12
3.04
4.29
4.72
5.36
5.49
5.33
5.28
4.8
4.48
4
3.57
3.15
2.56
2.19
1.07
0.56
0.05
-0.32
-0.4
-0.85
-1.07
-1.36
-1.57
-1.68
-2.08
-2.51
-2.93
-3.36
-3.76
-4.24
-4.88
-5.28
-5.44
-4.48
-3.33
0.4
3.12
5.25
6.8
7.12
8.35
8.56
8.64
8.56
8.4
8.08
7.87
7.6
7.28
6.96
6.37
5.6
4.77
4.4
3.2
2.88
1.92
1.44
0.93
0.45
0.32
-0.61
-1.15
-1.68
-2.24
-2.56
-3.44
-4.03
-4.51
-4.96
-5.12
-4.64
-3.2
-0.45
2.21
4.4
5.15
7.12
7.68
7.92
8.03
8.08
7.81
7.65
7.52
7.39
7.28
6.88
6.43
5.84
5.12
4.48
3.73
2.8
2.19
1.71
1.2
0.96
0.21
-0.32
-0.85
-1.39
-1.52
-2.37
-2.85
-3.36
-3.81
-4.08
-4.8
-5.09
-4.93
-3.84
-2.16
0.45
3.52
5.15
5.84
7.04
7.17
7.44
7.44
7.33
7.17
7.12
6.83
6.61
6.4
5.97
5.76
4.8
4.32
3.52
2.56
2.08
1.49
0.8
0.35
-0.19
-0.72
-0.99
-1.79
-2.24
-2.75
-2.96
-3.36
-4.29
-4.77
-5.28
-5.79
-6
-5.76
-4.27
-1.76
-1.12
2.64
4.24
5.84
6.32
6.53
6.64
6.56
6.29
6.08
5.95
5.73
5.68
5.09
4.56
3.92
3.52
2.72
1.6
1.01
0.53
0.08
-0.24
-0.67
-1.28
-1.73
-2.27
-2.8
-3.09
-4
-4.64
-5.17
-5.76
-5.92
-6.93
-7.52
-8
-7.97
-7.92
-5.36
-2.77
-0.27
1.76
2.72
3.52
4.16
4.16
4.05
3.76
3.63
3.2
2.88
2.45
2.03
1.92
0.75
-0.11
-0.88
-1.23
-1.92
-2.72
-3.04
-3.36
-3.68
-3.84
-4.11
-4.48
-4.88
-5.25
-5.68
-5.89
-6.53
-6.96
-7.2
-7.63
-7.84
-8.35
-7.97
-6.48
-3.87
-2.48
1.36
3.12
4.19
4.8
4.96
5.01
4.96
4.64
4.27
3.92
3.71
3.07
2.56
1.89
1.15
0.96
0.08
-0.77
-1.12
-1.41
-1.52
-1.84
-2.05
-2.27
-2.48
-2.72
-3.04
-3.44
-3.76
-3.92
-4.48
-4.69
-5.33
-5.44
-4.29
-2.16
-1.52
3.17
5.25
6.72
7.57
7.84
8.16
8.24
8.19
8
7.84
7.57
7.2
6.85
6.37
5.76
5.39
4.27
4.08
2.72
2.08
1.92
0.99
0.72
-0.08
-0.53
-0.8
-1.6
-2.21
-2.75
-2.88
-3.6
-4.08
-4.72
-5.12
-5.28
-4.56
-3.52
-0.05
2.64
4.77
6.32
6.64
7.84
8.05
8.16
8.05
8
7.76
7.55
7.39
7.2
6.96
6.48
5.84
5.07
4.21
3.44
3.09
2.08
1.52
1.01
0.53
0.4
-0.45
-0.99
-1.52
-1.73
-2.16
-2.88
-3.39
-3.87
-4.32
-4.72
-4.83
-4.4
-2.56
-0.05
2.48
3.41
5.97
6.96
7.44
7.65
7.68
7.73
7.57
7.44
7.25
7.2
6.88
6.53
6.05
5.44
4.88
4.51
3.36
2.64
2
1.44
1.15
0.29
-0.24
-0.64
-1.28
-1.6
-2.61
-3.09
-3.6
-4.05
-4.32
-5.04
-5.55
-5.92
-6.08
-5.44
-3.36
-0.24
2.21
4.13
5.36
5.71
6.56
6.64
6.67
6.45
6.4
6.11
5.89
5.6
5.33
5.12
4.32
3.55
2.69
1.84
1.36
0.83
0.24
-0.16
-0.32
-0.96
-1.17
-1.81
-2.24
-2.67
-3.15
-3.28
-4.05
-4.53
-5.04
-5.65
-5.92
-6.8
-7.12
-6.69
-5.2
-3.36
-0.85
2
3.31
4.21
4.64
4.72
4.83
4.64
4.32
4
3.92
3.47
3.15
2.72
2.13
1.76
1.2
-0.19
-0.88
-1.04
-1.84
-2.21
-2.64
-3.04
-3.41
-3.76
-3.95
-4.53
-5.12
-5.65
-6.24
-6.4
-7.41
-8
-8.56
-9.17
-9.44
-9.6
