3.52
5.36
6.64
7.33
7.6
7.41
7.15
6.72
6.19
5.6
4.72
3.89
3.2
2.48
1.81
0.85
-0.24
-1.07
-1.87
-2.64
-3.47
-4.53
-5.28
-5.81
-6.29
-6.72
-7.12
-7.39
-7.52
-7.6
-7.6
-7.6
-7.49
-7.39
-7.28
-7.09
-6.93
-6.72
-6.61
-6.51
-6.32
-6.21
-6.05
-6
-5.89
-5.79
-5.76
-5.65
-5.6
-5.52
-5.49
-5.44
-5.44
-5.36
-5.31
-5.28
-5.15
-4.56
-3.52
-1.89
0.03
2.24
4.24
6.53
7.52
7.92
7.92
7.68
7.15
6.56
6
5.39
4.8
3.84
2.93
2.24
1.52
0.75
-0.05
-0.88
-2.13
-3.09
-3.84
-4.56
-5.47
-6
-6.43
-6.8
-7.04
-7.25
-7.41
-7.44
-7.44
-7.39
-7.28
-7.09
-6.99
-6.88
-6.77
-6.61
-6.4
-6.29
-6.24
-6.16
-6.05
-5.95
-5.84
-5.76
-5.71
-5.68
-5.55
-5.44
-5.44
-5.41
-5.36
-5.36
-5.28
-5.23
-5.12
-4.83
-3.71
-2
0.13
2.27
4.4
5.89
7.39
7.84
7.95
7.79
7.44
6.69
6
5.44
4.83
4.24
3.28
2.37
1.63
0.8
0.03
-0.77
-1.6
-2.75
-3.65
-4.32
-5.01
-5.87
-6.4
-6.72
-6.99
-7.2
-7.39
-7.44
-7.44
-7.41
-7.31
-7.2
-7.01
-6.85
-6.72
-6.61
-6.51
-6.32
-6.21
-6.11
-6
-5.97
-5.81
-5.76
-5.68
-5.63
-5.6
-5.49
-5.44
-5.36
-5.36
-5.36
-5.36
-5.25
-5.09
-4.72
-4.03
-2.16
0.48
2.72
4.64
6.24
7.07
7.81
7.84
7.68
7.36
6.88
6.05
5.36
4.8
4.16
3.47
2.48
1.57
0.83
0
-0.77
-1.79
-2.88
-3.63
-4.32
-4.96
-5.52
-6.16
-6.56
-6.85
-7.07
-7.2
-7.31
-7.36
-7.28
-7.25
-7.15
-7.04
-6.93
-6.77
-6.64
-6.53
-6.43
-6.24
-6.13
-6.03
-5.92
-5.81
-5.71
-5.68
-5.6
-5.55
-5.52
-5.41
-5.36
-5.28
-5.25
-5.15
-4.72
-3.95
-2.72
-0.88
1.25
3.71
6.48
7.33
7.87
8.16
7.97
7.6
7.12
6.56
5.97
5.28
4.32
3.47
2.8
2.16
1.47
0.4
-0.61
-1.41
-2.16
-2.91
-3.81
-4.8
-5.33
-5.81
-6.24
-6.59
-6.96
-7.12
-7.23
-7.28
-7.28
-7.17
-7.07
-6.88
-6.77
-6.67
-6.48
-6.29
-6.19
-6.08
-5.97
-5.87
-5.76
-5.65
-5.6
-5.52
-5.49
-5.39
-5.36
-5.28
-5.28
-5.28
-5.25
-5.2
-5.12
-5.12
-5.12
-5.04
-4.75
-4.16
-3.04
-1.47
1.2
4.48
6.08
7.25
8
8.05
7.95
7.6
7.23
6.75
6.16
5.23
4.48
3.84
3.12
2.43
1.44
0.53
-0.21
-1.04
-1.79
-2.69
-3.76
-4.4
-4.99
-5.52
-5.97
-6.51
-6.8
-6.99
-7.09
-7.12
-7.12
-7.07
-6.96
-6.85
-6.75
-6.64
-6.45
-6.29
-6.16
-6.05
-5.95
-5.84
-5.73
-5.68
-5.6
-5.57
-5.47
-5.44
-5.36
-5.31
-5.28
-5.25
-5.2
-5.12
-5.12
-5.12
-5.12
-5.12
-5.12
-5.2
-5.17
-4.85
-4.24
-2.96
-1.25
0.96
3.31
5.97
7.2
7.79
7.89
7.76
7.23
6.69
6.24
5.63
5.04
4.16
3.28
2.64
1.92
1.25
0.35
-0.64
-1.47
-2.21
-2.88
-3.71
-4.72
-5.36
-5.89
-6.37
-6.72
-7.15
-7.41
-7.52
-7.6
-7.6
-7.52
-7.41
-7.25
-7.12
-7.01
-6.85
-6.56
-6.43
-6.27
-6.16
-6.05
-5.95
-5.84
-5.76
-5.71
-5.68
-5.57
-5.52
-5.52
-5.49
-5.44
-5.44
-5.36
-5.36
-5.36
-5.36
-5.36
-5.28
-5.28
-5.28
-5.2
-4.85
-4.05
-2.72
-1.07
1.07
3.04
5.31
6.75
7.36
7.39
7.28
6.8
6.35
5.81
5.28
4.72
3.92
3.04
2.32
1.63
0.96
0.11
-1.01
-1.84
-2.59
-3.33
-4.08
-5.01
-6.03
-7.12
-7.41
-7.63
-7.76
-7.84
-7.84
-7.76
-7.65
-7.49
-7.28
-7.07
-6.91
-6.8
-6.67
-6.45
-6.32
-6.21
-6.11
-6
-5.87
-5.76
-5.68
-5.65
-5.6
-5.52
-5.36
-5.36
-5.36
-5.28
-5.28
-5.28
-5.25
-5.2
-5.2
-5.04
-4.72
-4
-2.96
-1.36
0.64
3.65
5.73
6.88
7.33
7.55
7.28
6.99
6.51
6
5.52
4.77
3.92
3.28
2.64
2
1.17
0.11
-0.8
-1.55
-2.29
-3.04
-4.08
-4.83
-5.36
-5.87
-6.29
-6.72
-7.09
-7.31
-7.44
-7.44
-7.44
-7.36
-7.25
-7.15
-7.04
-6.91
-6.64
-6.48
-6.37
-6.27
-6.16
-6.03
-5.87
-5.76
-5.73
-5.68
-5.6
-5.44
-5.39
-5.36
-5.36
-5.31
-5.2
-5.17
-5.12
-5.12
-5.12
-5.07
-4.96
-4.67
-4.13
-3.12
-0.43
2.03
4.24
5.76
6.93
7.52
7.87
7.65
7.28
6.91
6.27
5.52
4.91
4.32
3.68
2.96
2
1.2
0.45
-0.29
-1.12
-2.27
-3.17
-3.84
-4.48
-5.07
-5.76
-6.32
-6.64
-6.88
-7.09
-7.25
-7.36
-7.33
-7.28
-7.2
-7.09
-6.93
-6.8
-6.61
-6.51
-6.4
-6.19
-6.03
-5.92
-5.89
-5.79
-5.68
-5.6
-5.55
-5.44
-5.36
-5.36
-5.28
-5.25
-5.2
-5.12
-5.09
-4.99
-4.8
-4.35
-3.49
-2.08
1.01
3.52
5.44
6.53
7.28
7.52
7.6
7.28
6.88
6.43
5.73
4.96
4.35
3.76
3.2
2.45
1.44
0.64
-0.05
-0.85
-1.6
-2.67
-3.57
-4.24
-4.85
-5.39
-6
-6.48
-6.75
-6.96
-7.15
-7.25
-7.28
-7.25
-7.15
-7.04
-6.93
-6.77
-6.64
-6.45
-6.35
-6.24
-6.11
-5.95
-5.84
-5.81
-5.76
-5.68
-5.52
-5.47
-5.44
-5.36
-5.31
-5.2
-5.17
-5.12
-5.12
-5.07
-4.8
-4.32
-3.6
-2.32
-0.48
2.72
5.01
6.48
7.15
7.57
7.52
7.33
6.96
6.48
6.03
5.33
4.56
3.95
3.36
2.72
1.97
0.96
0.16
-0.77
-2.21
-3.12
-4.05
-4.8
-5.36
-5.76
-6.08
-6.48
-6.75
-6.85
-6.96
-6.96
-6.91
-6.8
-6.77
-6.67
-6.56
-6.43
-6.21
-6.08
-6
-5.95
-5.84
-5.73
-5.63
-5.52
-5.49
-5.44
-5.36
-5.28
-5.23
-5.2
-5.12
-5.12
-5.04
-5.01
-4.91
-4.72
-4.03
-2.53
-0.64
1.49
3.63
5.28
6.77
7.57
7.76
7.57
7.36
6.8
6.19
5.65
5.12
4.56
3.81
2.96
2.32
1.63
0.96
0.24
-0.45
-1.52
-2.51
-3.2
-3.84
-4.69
-5.39
-5.84
-6.16
-6.43
-6.64
-6.83
-6.88
-6.88
-6.88
-6.83
-6.64
-6.51
-6.35
-6.24
-6.13
-5.97
-5.92
-5.81
-5.71
-5.68
-5.57
-5.52
-5.44
-5.41
-5.36
-5.28
-5.2
-5.15
-5.12
-5.04
-5.04
-4.96
-4.96
-4.91
-4.8
-4.11
-2.56
-0.64
1.41
3.6
5.28
6.69
7.49
7.68
7.57
7.31
6.72
6.19
5.65
5.04
4.48
3.73
2.88
2.24
1.6
0.96
0.24
-0.45
-1.44
-2.43
-3.12
-3.76
-4.69
-5.33
-5.76
-6.16
-6.43
-6.64
-6.83
-6.88
-6.88
-6.8
-6.75
-6.56
-6.45
-6.35
-6.16
-6.05
-5.95
-5.84
-5.76
-5.71
-5.68
-5.57
-5.52
-5.52
-5.49
-5.44
-5.44
-5.36
-5.36
-5.36
-5.36
-5.36
-5.36
-5.36
-5.36
-5.28
-4.88
-3.87
-2.32
-0.48
1.81
3.84
5.87
7.04
7.44
7.36
7.2
6.72
6.19
5.71
5.12
4.56
3.81
2.96
2.32
1.68
1.04
0.32
-0.37
-1.44
-2.43
-3.17
-3.92
-4.85
-5.55
-6.08
-6.48
-6.8
-7.12
-7.31
-7.41
-7.44
-7.41
-7.31
-7.12
-7.01
-6.91
-6.72
-6.61
-6.45
-6.32
-6.21
-6.11
-6.08
-5.97
-5.87
-5.76
-5.73
-5.68
-5.68
-5.6
-5.55
-5.52
-5.44
-5.44
-5.36
-5.36
-5.36
-5.36
-5.31
-5.04
-4.48
-3.63
-2.13
-0.16
2.85
5.04
6.32
6.85
7.12
6.96
6.69
6.32
5.84
5.31
4.61
3.76
3.12
2.48
1.84
0.85
-0.85
-1.84
-2.59
-3.33
-4.08
-5.01
-5.71
-6.16
-6.48
-6.8
-7.12
-7.39
-7.44
-7.44
-7.44
-7.39
-7.2
-7.09
-6.99
-6.88
-6.75
-6.53
-6.4
-6.29
-6.19
-6.16
-6.03
-5.92
-5.84
-5.81
-5.71
-5.6
-5.52
-5.52
-5.52
-5.44
-5.44
-5.36
-5.33
-5.23
-5.04
-4.21
-2.51
-0.56
1.55
3.63
5.28
6.69
7.49
7.6
7.39
7.07
6.48
5.84
5.25
4.64
4.08
3.44
2.8
1.76
0.91
0.16
-0.67
-1.41
-2.48
-3.47
-4.16
-4.8
-5.63
-6.21
-6.56
-6.85
-7.07
-7.28
-7.39
-7.44
-7.44
-7.36
-7.31
-7.12
-6.99
-6.83
-6.72
-6.61
-6.45
-6.32
-6.24
-6.19
-6.08
-5.97
-5.87
-5.76
-5.73
-5.68
-5.6
-5.52
-5.47
-5.44
-5.44
-5.39
-5.2
-4.96
-4.43
-3.6
-1.63
1.47
3.68
5.49
6.72
7.44
7.68
7.68
7.36
6.93
6.45
5.68
4.88
4.29
3.68
3.01
2.11
1.12
0.37
-0.43
-1.2
-2.13
-3.25
-4.08
-4.69
-5.23
-5.76
-6.37
-6.8
-7.04
-7.15
-7.25
-7.28
-7.28
-7.23
-7.12
-7.01
-6.91
-6.72
-6.61
-6.51
-6.4
-6.29
-6.19
-6.08
-6
-5.95
-5.92
-5.79
-5.68
-5.6
-5.57
-5.52
-5.44
-5.36
-5.36
-5.28
-5.15
-4.67
-3.84
-2.35
-0.53
1.68
3.79
6.13
7.2
7.71
7.81
7.6
7.09
6.61
6.08
5.55
4.96
4.08
3.25
2.56
1.84
1.15
0.13
-0.96
-1.79
-2.53
-3.28
-4.08
-5.04
-5.68
-6.11
-6.48
-6.8
-7.09
-7.25
-7.28
-7.28
-7.28
-7.2
-7.09
-6.93
-6.8
-6.69
-6.59
-6.4
-6.29
-6.24
-6.16
-6.05
-5.95
-5.92
-5.84
-5.79
-5.76
-5.65
-5.6
-5.52
-5.49
-5.44
-5.36
-5.23
-5.01
-4.48
-3.65
-1.57
1.28
3.41
5.17
6.56
7.17
7.71
7.68
7.41
7.04
6.56
5.73
5.04
4.48
3.87
3.23
2.24
1.33
0.64
-0.16
-0.93
-1.95
-3.04
-4.43
-5.39
-5.92
-6.35
-6.77
-7.04
-7.15
-7.25
-7.28
-7.25
-7.15
-7.04
-6.93
-6.83
-6.64
-6.45
-6.35
-6.32
-6.21
-6.11
-6
-5.89
-5.84
-5.76
-5.73
-5.63
-5.6
-5.52
-5.47
-5.44
-5.33
-5.28
-5.2
-5.09
-4.83
-3.68
-2.08
-0.11
2
4.11
5.81
7.52
7.76
7.87
7.76
7.36
6.72
6.16
5.6
5.01
4.4
3.47
2.67
2
1.28
0.59
-0.16
-1.01
-2.19
-3.04
-3.71
-4.51
-5.36
-5.87
-6.24
-6.56
-6.77
-6.99
-7.12
-7.12
-7.07
-6.96
-6.83
-6.67
-6.56
-6.45
-6.35
-6.24
-6.08
-6.03
-6
-5.89
-5.79
-5.68
-5.65
-5.6
-5.52
-5.49
-5.39
-5.36
-5.28
-5.28
-5.28
-5.17
-5.01
-4.8
-4.16
-3.09
-0.56
2.19
4.27
5.76
6.93
7.41
7.84
7.63
7.31
6.96
6.35
5.55
4.88
4.32
3.68
3.04
2.08
1.23
0.56
-0.19
-0.93
-2
-2.99
-3.68
-4.32
-4.93
-5.52
-6.16
-6.48
-6.75
-6.88
-6.96
-6.96
-6.96
-6.85
-6.75
-6.64
-6.51
-6.35
-6.24
-6.13
-6.08
-6
-5.89
-5.79
-5.76
-5.68
-5.63
-5.52
-5.52
-5.52
-5.44
-5.44
-5.39
-5.36
-5.28
-5.28
-5.28
-5.17
-4.96
-4.56
-3.39
-1.84
1.04
3.92
5.52
6.56
7.25
7.36
7.36
6.96
6.53
6.08
5.47
4.61
3.92
3.28
2.69
2
0.96
0.11
-0.64
-1.39
-2.13
-3.2
-4.16
-4.8
-5.36
-5.89
-6.43
-6.96
-7.17
-7.33
-7.44
-7.44
-7.44
-7.36
-7.25
-7.15
-7.04
-6.83
-6.67
-6.56
-6.45
-6.4
-6.32
-6.16
-6.11
-6.08
-6
-5.95
-5.84
-5.81
-5.76
-5.68
-5.65
-5.55
-5.52
-5.52
-5.47
-5.44
-5.23
-4.8
-4.08
-2.67
-0.85
1.92
4.56
5.89
6.64
7.15
7.09
6.96
6.56
6.13
5.68
4.99
4.13
3.44
2.8
2.16
1.44
0.29
-0.67
-1.44
-2.19
-2.93
-3.92
-4.88
-5.47
-6.4
-7.17
-7.44
-7.68
-7.68
-7.68
-7.6
-7.55
-7.33
-7.2
-7.09
-6.93
-6.8
-6.67
-6.51
-6.4
-6.29
-6.24
-6.16
-6.08
-6.03
-6
-5.89
-5.79
-5.68
-5.65
-5.6
-5.6
-5.6
-5.55
-5.44
-5.17
-4.69
-3.68
-1.12
1.17
3.28
4.88
6.11
6.8
7.31
7.15
6.88
6.51
5.81
5.04
4.43
3.84
3.2
2.45
1.39
0.56
-0.21
-1.01
-1.84
-2.99
-3.89
-4.56
-5.17
-5.71
-6.32
-6.77
-6.99
-7.2
-7.31
-7.36
-7.36
-7.33
-7.23
-7.12
-7.01
-6.85
-6.72
-6.61
-6.51
-6.4
-6.27
-6.16
-6.08
-5.97
-5.92
-5.84
-5.76
-5.71
-5.68
-5.6
-5.55
-5.52
-5.49
-5.44
-5.44
-5.25
-4.77
-3.84
-2.51
-0.64
1.44
4.32
6.24
7.28
7.6
7.71
7.36
6.99
6.51
6
5.44
4.64
3.76
3.04
2.35
1.68
0.75
-0.43
-1.36
-2.13
-2.93
-3.68
-4.64
-5.39
-5.84
-6.27
-6.64
-6.96
-7.15
-7.2
-7.2
-7.17
-7.07
-6.88
-6.77
-6.67
-6.48
-6.37
-6.21
-6.16
-6.05
-5.95
-5.84
-5.73
-5.68
-5.6
-5.57
-5.52
-5.44
-5.36
-5.31
-5.28
-5.28
-5.28
-5.28
-5.28
-5.17
-4.96
-4.03
-2.21
-0.24
1.87
3.95
5.44
6.75
7.49
7.6
7.39
7.07
6.4
5.71
5.17
4.56
3.92
3.12
2.16
1.41
0.61
-0.16
-0.99
-1.79
-2.88
-3.92
-4.56
-5.2
-5.92
-6.45
-6.8
-7.01
-7.17
-7.28
-7.36
-7.31
-7.28
-7.17
-7.07
-6.88
-6.77
-6.67
-6.56
-6.53
-6.37
-6.32
-6.24
-6.19
-6.16
-6.05
-5.95
-5.84
-5.81
-5.76
-5.68
-5.6
-5.55
-5.52
-5.44
-5.39
-5.2
-4.77
-4.03
-2.88
-0.64
2.61
4.72
6.32
7.28
7.76
7.79
7.68
7.36
6.85
6.32
5.52
4.72
4.08
3.44
2.77
1.87
0.8
-0.03
-0.83
-1.6
-2.51
-3.57
-4.4
-5.01
-5.55
-6
-6.53
-6.91
-7.12
-7.23
-7.39
-7.44
-7.41
-7.25
-7.12
-6.93
-6.77
-6.56
-6.45
-6.35
-6.24
-6.21
-6.11
-6
-5.92
-5.87
-5.84
-5.73
-5.68
-5.6
-5.57
-5.52
-5.44
-5.33
-5.17
-4.88
-4.32
-2.67
-0.24
2
4.03
5.84
6.77
7.68
7.84
7.76
7.44
7.04
6.29
5.6
5.04
4.4
3.76
2.88
1.97
1.23
0.48
-0.29
-1.31
-2.4
-3.15
-3.89
-4.56
-5.15
-5.89
-6.32
-6.64
-6.91
-7.04
-7.12
-7.12
-7.12
-7.01
-6.91
-6.72
-6.53
-6.43
-6.32
-6.24
-6.19
-6
-5.97
-5.92
-5.84
-5.81
-5.71
-5.68
-5.6
-5.55
-5.52
-5.41
-5.36
-5.28
-5.25
-5.2
-4.96
-4.53
-3.73
-2.32
-0.51
2.11
5.2
6.4
7.25
7.76
7.71
7.49
7.12
6.67
6.13
5.6
4.67
3.92
3.36
2.72
2.03
1.04
0.05
-0.69
-1.44
-2.19
-3.09
-4.16
-4.77
-5.31
-5.76
-6.19
-6.61
-6.88
-6.99
-7.04
-7.04
-6.93
-6.83
-6.72
-6.61
-6.51
-6.4
-6.21
-6.11
-6
-5.92
-5.87
-5.76
-5.73
-5.68
-5.6
-5.57
-5.47
-5.44
-5.36
-5.31
-5.28
-5.25
-5.2
-5.12
-5.09
-4.93
-4.24
-3.23
-1.68
0.32
2.48
4.56
6.8
7.25
7.52
7.6
7.23
6.69
6.16
5.68
5.09
4.48
3.55
2.8
2.16
1.44
0.75
0.08
-0.85
-1.97
-2.8
-3.55
-4.4
-5.36
-5.87
-6.29
-6.64
-6.96
-7.23
-7.36
-7.36
-7.36
-7.36
-7.23
-7.07
-6.88
-6.77
-6.67
-6.56
-6.37
-6.27
-6.24
-6.16
-6.11
-5.92
-5.89
-5.84
-5.76
-5.73
-5.63
-5.6
-5.52
-5.52
-5.52
-5.49
-5.44
-5.36
-5.25
-4.99
-3.84
-2.32
-0.35
1.76
3.76
5.36
7.04
7.25
7.25
7.12
6.72
6.08
5.44
4.88
4.29
3.68
2.72
1.92
1.28
0.53
-0.27
-1.04
-1.89
-3.07
-3.92
-4.56
-5.31
-6.08
-6.51
-6.88
-7.12
-7.33
-7.49
-7.52
-7.52
-7.47
-7.36
-7.15
-7.04
-7.04
-6.91
-6.75
-6.64
-6.45
-6.35
-6.24
-6.16
-6.11
-6
-5.89
-5.84
-5.76
-5.73
-5.63
-5.6
-5.52
-5.52
-5.44
-5.12
-4.59
-3.76
-2.24
-0.37
2.4
4.93
6.11
6.8
7.2
7.04
6.8
6.37
5.89
5.36
4.72
3.81
3.12
2.45
1.76
1.04
-0.11
-1.07
-1.84
-2.59
-3.33
-4.32
-5.17
-5.71
-6.16
-6.56
-6.93
-7.28
-7.39
-7.44
-7.44
-7.41
-7.31
-7.2
-7.09
-6.99
-6.88
-6.67
-6.51
-6.4
-6.29
-6.24
-6.16
-6
-5.95
-5.92
-5.84
-5.79
-5.6
-5.57
-5.52
-5.44
-5.44
-5.39
-5.2
-4.91
-4.37
-3.28
-0.59
1.87
4
5.49
6.61
7.2
7.63
7.47
7.12
6.75
6.05
5.28
4.64
4
3.36
2.53
1.52
0.72
-0.05
-0.85
-1.68
-2.83
-3.73
-4.4
-5.04
-5.63
-6.24
-6.72
-6.99
-7.2
-7.31
-7.36
-7.36
-7.25
-7.15
-7.04
-6.91
-6.69
-6.56
-6.45
-6.35
-6.32
-6.19
-6.08
-6
-5.97
-5.87
-5.76
-5.68
-5.63
-5.6
-5.52
-5.47
-5.36
-5.36
-5.31
-5.2
-4.72
-3.71
-2.24
-0.43
1.76
3.76
5.89
7.17
7.68
7.68
7.52
6.96
6.43
5.89
5.28
4.72
3.92
2.96
2.24
1.55
0.88
0.05
-0.75
-1.84
-2.91
-3.6
-4.32
-5.17
-5.87
-6.32
-6.64
-6.91
-7.12
-7.31
-7.36
-7.36
-7.25
-7.15
-6.96
-6.83
-6.67
-6.56
-6.45
-6.29
-6.24
-6.13
-6.03
-6
-5.89
-5.84
-5.76
-5.73
-5.68
-5.6
-5.52
-5.47
-5.44
-5.36
-5.25
-4.96
-4.29
-3.17
-1.68
0.69
3.79
5.6
6.77
7.36
7.52
7.33
7.07
6.72
6.19
5.6
4.8
4
3.36
2.64
1.97
1.01
-0.08
-0.83
-1.63
-2.4
-3.23
-4.29
-5.04
-5.57
-6.05
-6.4
-6.83
-7.09
-7.2
-7.28
-7.28
-7.2
-7.01
-6.91
-6.8
-6.69
-6.53
-6.32
-6.21
-6.16
-6.08
-5.97
-5.87
-5.84
-5.79
-5.84
-5.84
-5.71
-5.6
-5.52
-5.49
-5.44
-5.28
-4.99
-4.4
-3.28
-1.73
0.88
4.08
5.57
6.69
7.44
7.49
7.44
7.12
6.75
6.27
5.76
4.91
4.16
3.52
2.88
2.19
1.2
0.21
-0.53
-1.36
-2.11
-3.01
-4.08
-4.72
-5.31
-5.84
-6.27
-6.69
-6.96
-7.15
-7.2
-7.2
-7.09
-6.99
-6.88
-6.75
-6.59
-6.48
-6.29
-6.19
-6.08
-6
-5.95
-5.84
-5.81
-5.76
-5.68
-5.65
-5.55
-5.52
-5.44
-5.39
-5.36
-5.25
-5.2
-5.12
-4.8
-4.21
-2.4
-0.24
2
4
5.71
6.72
7.76
7.76
7.6
7.36
6.85
6.11
5.44
4.88
4.29
3.68
2.72
1.87
1.2
0.45
-0.29
-1.04
-1.97
-3.09
-3.84
-4.48
-5.17
-5.92
-6.32
-6.64
-6.88
-6.99
-7.04
-7.04
-7.01
-6.91
-6.8
-6.59
-6.43
-6.32
-6.21
-6.11
-6
-5.89
-5.79
-5.76
-5.68
-5.63
-5.52
-5.52
-5.52
-5.44
-5.41
-5.31
-5.28
-5.28
-5.23
-5.2
-5.09
-4.93
-4.64
-3.79
-2.51
0.24
3.09
4.96
6.24
7.15
7.47
7.68
7.36
6.99
6.56
5.95
5.15
4.48
3.84
3.2
2.56
1.6
0.75
0
-0.75
-1.49
-2.56
-3.55
-4.24
-4.88
-5.41
-6
-6.56
-6.85
-7.01
-7.12
-7.2
-7.2
-7.12
-7.04
-6.99
-6.88
-6.75
-6.59
-6.48
-6.37
-6.32
-6.24
-6.16
-6.11
-6.08
-6
-5.95
-5.84
-5.81
-5.76
-5.68
-5.68
-5.63
-5.6
-5.52
-5.52
-5.52
-5.39
-5.07
-4.64
-3.57
-2.08
0.8
3.63
5.33
6.4
7.09
7.2
7.28
6.88
6.45
6
5.39
4.53
3.84
3.2
2.56
1.84
0.77
-0.13
-0.88
-1.71
-2.45
-3.44
-4.4
-5.04
-5.68
-6.19
-6.67
-7.12
-7.33
-7.49
-7.52
-7.57
-7.47
-7.36
-7.25
-7.15
-7.04
-6.83
-6.67
-6.56
-6.45
-6.35
-6.24
-6.08
-6.03
-6
-5.92
-5.87
-5.68
-5.65
-5.6
-5.52
-5.6
-5.6
-5.6
-5.44
-5.12
-4.4
-2.37
-0.35
1.76
3.6
5.15
6.24
7.04
7.04
6.8
6.53
5.95
5.2
4.59
4
3.36
2.61
1.6
0.8
0.05
-0.69
-1.52
-2.69
-3.65
-4.32
-4.96
-5.55
-6.16
-6.72
-7.04
-7.28
-7.39
-7.49
-7.52
-7.49
-7.39
-7.28
-7.17
-7.01
-6.88
-6.77
-6.67
-6.56
-6.43
-6.27
-6.16
-6.13
-6.03
-5.92
-5.84
-5.79
-5.76
-5.68
-5.63
-5.52
-5.49
-5.39
-5.28
-4.77
-3.71
-2.16
-0.35
1.84
3.76
5.81
7.09
7.52
7.52
7.36
6.8
6.24
5.65
5.04
4.48
3.68
2.72
1.97
1.23
0.48
-0.35
-1.15
-2.24
-3.31
-4
-4.64
-5.49
-6.13
-6.56
-6.85
-7.07
-7.28
-7.44
-7.44
-7.44
-7.33
-7.17
-6.96
-6.85
-6.75
-6.64
-6.53
-6.37
-6.24
-6.16
-6.11
-6.08
-5.97
-5.87
-5.76
-5.73
-5.68
-5.6
-5.52
-5.52
-5.52
-5.41
-5.09
-4.48
-3.31
-1.76
0.16
2.53
5.31
6.64
7.36
7.68
7.6
7.2
6.77
6.32
5.71
5.12
4.24
3.44
2.8
2.08
1.33
0.59
-0.24
-1.01
-2.03
-3.12
-3.92
-4.88
-5.52
-6.03
-6.45
-6.8
-7.09
-7.25
-7.28
-7.28
-7.28
-7.12
-6.93
-6.83
-6.72
-6.53
-6.43
-6.24
-6.13
-6.08
-6
-5.97
-5.87
-5.84
-5.76
-5.71
-5.68
-5.57
-5.52
-5.44
-5.44
-5.39
-5.2
-4.77
-4.03
-2.72
-1.07
1.55
4.64
5.92
6.83
7.44
7.47
7.31
6.96
6.51
5.97
5.36
4.51
3.76
3.12
2.4
1.71
0.64
-0.37
-1.17
-2
-2.75
-3.65
-4.64
-5.25
-5.79
-6.24
-6.67
-7.04
-7.2
-7.31
-7.36
-7.36
-7.23
-7.07
-6.96
-6.83
-6.67
-6.56
-6.37
-6.27
-6.16
-6.08
-6.03
-5.92
-5.81
-5.76
-5.68
-5.65
-5.55
-5.52
-5.44
-5.39
-5.28
-4.96
-4.37
-3.52
-1.89
0.03
2.8
5.33
6.51
7.12
7.52
7.47
7.36
6.83
6.24
5.6
4.88
3.97
3.2
2.53
1.79
0.96
0.19
-0.67
-1.52
-2.67
-3.57
-4.48
-5.25
-5.73
-6.16
-6.45
-6.72
-6.96
-6.96
-6.96
-6.96
-6.85
-6.69
-6.56
-6.45
-6.35
-6.24
-6.11
-6
-5.92
-5.89
-5.84
-5.76
-5.68
-5.63
-5.6
-5.52
-5.47
-5.36
-5.33
-5.23
-5.04
-4.48
-3.2
-1.44
0.53
2.67
4.48
6.19
7.2
7.52
7.41
7.2
6.64
6.11
5.57
4.96
4.4
3.65
2.8
2.08
1.39
0.72
-0.03
-0.83
-1.92
-2.91
-3.6
-4.32
-5.17
-5.81
-6.24
-6.53
-6.75
-6.96
-7.12
-7.12
-7.04
-6.93
-6.83
-6.64
-6.53
-6.43
-6.32
-6.21
-6.11
-6.08
-6
-5.95
-5.92
-5.89
-5.84
-5.76
-5.73
-5.68
-5.68
-5.6
-5.55
-5.52
-5.39
-4.85
-4
-2.4
-0.53
1.68
3.76
6
6.96
7.36
7.41
7.28
6.77
6.29
5.76
5.23
4.64
3.76
2.96
2.37
1.68
1.01
0.05
-1.04
-1.87
-2.61
-3.36
-4.16
-5.07
-5.68
-6.11
-6.48
-6.72
-6.93
-7.09
-7.12
-7.09
-6.99
-6.8
-6.61
-6.51
-6.4
-6.21
-6.11
-6
-5.89
-5.84
-5.76
-5.76
-5.71
-5.68
-5.6
-5.55
-5.52
-5.49
-5.44
-5.36
-5.36
-5.36
-5.36
-5.23
-4.96
-4.24
-3.17
-0.77
2.32
4.16
5.65
6.72
7.01
7.23
7.04
6.69
6.27
5.76
4.91
4.16
3.52
2.88
2.24
1.28
0.37
-0.37
-1.12
-1.89
-2.91
-4
-4.64
-5.28
-5.84
-6.37
-6.91
-7.2
-7.39
-7.44
-7.44
-7.41
-7.31
-7.2
-7.07
-6.91
-6.72
-6.53
-6.43
-6.32
-6.24
-6.19
-6.08
-6.05
-6
-5.92
-5.89
-5.79
-5.76
-5.76
-5.71
-5.68
-5.57
-5.52
-5.52
-5.49
-5.33
-4.72
-3.81
-2.37
-0.48
1.63
3.81
6.16
6.72
7.04
7.12
6.83
6.29
5.76
5.2
4.61
4
3.07
2.27
1.6
0.88
0.13
-0.64
-1.47
-2.64
-4.08
-5.28
-5.97
-6.64
-6.96
-7.23
-7.44
-7.55
-7.6
-7.52
-7.41
-7.31
-7.2
-6.99
-6.83
-6.64
-6.53
-6.43
-6.32
-6.24
-6.19
-6.08
-6
-5.95
-5.84
-5.81
-5.76
-5.68
-5.65
-5.55
-5.52
-5.52
-5.47
-5.36
-4.83
-4.03
-2.88
-1.04
0.99
3.6
5.89
6.75
7.12
7.33
7.07
6.64
6.13
5.6
5.04
4.32
3.41
2.64
1.97
1.23
0.48
-0.69
-1.71
-2.48
-3.31
-4.05
-4.96
-5.73
-6.21
-6.64
-6.96
-7.23
-7.44
-7.52
-7.52
-7.44
-7.39
-7.17
-7.04
-6.93
-6.77
-6.64
-6.51
-6.35
-6.24
-6.21
-6.16
-6.08
-5.92
-5.87
-5.84
-5.76
-5.71
-5.6
-5.57
-5.52
-5.44
-5.41
-5.31
-5.12
-4.67
-3.81
-2.4
0.61
3.12
5.12
6.29
7.09
7.36
7.52
7.25
6.8
6.35
5.65
4.8
4.16
3.47
2.8
1.97
0.91
0
-0.77
-1.57
-2.4
-3.55
-4.4
-5.04
-5.65
-6.13
-6.64
-7.09
-7.25
-7.36
-7.44
-7.44
-7.36
-7.25
-7.15
-6.96
-6.83
-6.61
-6.48
-6.37
-6.27
-6.24
-6.11
-6
-5.92
-5.89
-5.84
-5.76
-5.68
-5.63
-5.6
-5.52
-5.47
-5.36
-5.33
-5.17
-4.96
-4.16
-2.51
-0.48
1.65
3.79
5.36
6.77
7.57
7.76
7.55
7.23
6.56
5.92
5.33
4.72
4.08
3.44
2.72
1.65
0.75
0
-0.85
-1.71
-2.8
-3.79
-4.48
-5.12
-5.87
-6.45
-6.8
-7.09
-7.25
-7.36
-7.44
-7.39
-7.28
-7.17
-7.01
-6.8
-6.69
-6.59
-6.48
-6.37
-6.21
-6.16
-6.05
-5.95
-5.92
-5.81
-5.76
-5.68
-5.65
-5.6
-5.52
-5.44
-5.39
-5.36
-5.25
-4.99
-4.56
-3.57
-2.13
-0.24
2.16
5.04
6.48
7.28
7.6
7.6
7.2
6.77
6.32
5.79
5.2
4.32
3.49
2.8
2.08
1.41
0.67
-0.16
-0.93
-1.95
-3.04
-3.87
-4.88
-5.52
-6.03
-6.4
-6.72
-7.04
-7.25
-7.28
-7.28
-7.33
-7.44
-7.31
-7.04
-6.88
-6.69
-6.59
-6.4
-6.29
-6.19
-6.08
-6.05
-5.95
-5.84
-5.76
-5.71
-5.68
-5.57
-5.52
-5.44
-5.41
-5.31
-5.04
-4.51
-3.65
-2.16
-0.32
2.29
5.36
6.45
7.25
7.76
7.6
7.33
6.96
6.51
5.97
5.36
4.43
3.68
3.04
2.32
1.63
0.56
-0.45
-1.25
-2
-2.75
-3.65
-4.72
-5.25
-5.79
-6.24
-6.59
-6.96
-7.12
-7.2
-7.2
-7.2
-7.07
-6.91
-6.8
-6.67
-6.51
-6.4
-6.21
-6.11
-6
-5.92
-5.87
-5.76
-5.73
-5.68
-5.6
-5.57
-5.47
-5.44
-5.36
-5.31
-5.28
-5.25
-5.2
-5.12
-4.91
-4.48
-3.04
-1.15
1.04
3.2
5.12
6.4
7.76
7.87
7.81
7.6
7.09
6.35
5.68
5.12
4.53
3.92
2.99
2.19
1.52
0.77
-0.03
-0.8
-1.73
-2.85
-3.68
-4.32
-5.07
-5.84
-6.27
-6.59
-6.8
-6.99
-7.04
-7.04
-6.93
-6.83
-6.72
-6.51
-6.35
-6.24
-6.13
-6.08
-6
-5.84
-5.79
-5.76
-5.68
-5.63
-5.52
-5.49
-5.44
-5.36
-5.33
-5.23
-5.2
-5.12
-5.12
-5.12
-5.01
-4.85
-4.64
-3.97
-2.85
-0.24
2.48
4.45
5.92
6.99
7.36
7.68
7.47
7.09
6.64
6.03
5.17
4.48
3.84
3.2
2.48
1.44
0.59
-0.08
-0.91
-1.65
-2.72
-3.71
-4.4
-5.04
-5.57
-6.16
-6.72
-7.01
-7.17
-7.28
-7.36
-7.36
-7.36
-7.25
-7.15
-7.04
-6.83
-6.67
-6.56
-6.45
-6.35
-6.24
-6.16
-6.11
-6
-5.92
-5.87
-5.76
-5.73
-5.68
-5.6
-5.57
-5.47
-5.44
-5.44
-5.39
-5.36
-5.33
-5.17
-4.96
-4.29
-3.17
-0.64
2.11
4.13
5.6
6.69
7.12
7.44
7.23
6.91
6.48
5.87
5.33
4.8
4.08
3.12
2.32
1.28
0.43
-0.32
-1.15
-1.95
-3.04
-4
-4.64
-5.28
-5.81
-6.29
-6.72
-7.12
-7.39
-7.52
-7.6
-7.55
-7.44
-7.33
-7.23
-7.12
-7.01
-6.91
-6.72
-6.61
-6.51
-6.4
-6.29
-6.19
-6.08
-6
-5.95
-5.76
-5.73
-5.68
-5.6
-5.6
-5.55
-5.52
-5.44
-5.39
-5.2
-4.88
-3.71
-1.92
0.11
2.13
4.4
6.32
7.01
7.2
7.23
6.85
6.32
5.81
5.28
4.64
4.03
3.44
2.48
1.57
0.83
0
-1.17
-2.13
-2.88
-3.63
-4.32
-5.2
-5.95
-6.37
-6.72
-7.01
-7.23
-7.36
-7.47
-7.52
-7.52
-7.41
-7.25
-7.12
-7.01
-6.85
-6.72
-6.59
-6.43
-6.32
-6.21
-6.11
-6
-5.97
-5.81
-5.76
-5.68
-5.63
-5.52
-5.49
-5.44
-5.44
-5.41
-5.25
-5.04
-4.61
-3.81
-2.4
-0.67
1.95
5.04
6.24
7.15
7.44
7.6
7.33
6.96
6.51
5.81
4.96
4.32
3.63
2.96
2.24
1.55
0.48
-0.61
-1.41
-2.24
-3.39
-4.24
-4.88
-5.49
-5.97
-6.48
-6.93
-7.15
-7.28
-7.39
-7.44
-7.44
-7.31
-7.15
-7.04
-6.93
-6.77
-6.64
-6.53
-6.43
-6.32
-6.19
-6.08
-6
-5.89
-5.84
-5.76
-5.73
-5.63
-5.52
-5.44
-5.44
-5.36
-5.33
-5.23
-5.12
-4.51
-3.28
-1.52
0.45
2.64
4.48
6.08
6.99
7.84
7.76
7.55
6.96
6.35
5.81
5.2
4.56
3.71
2.72
2
1.31
0.56
-0.29
-1.15
-2.24
-3.23
-3.97
-4.64
-5.49
-6.13
-6.56
-6.85
-7.07
-7.28
-7.39
-7.44
-7.36
-7.25
-7.15
-7.04
-6.91
-6.75
-6.56
-6.45
-6.29
-6.24
-6.13
-6.03
-6
-5.87
-5.76
-5.68
-5.65
-5.6
-5.52
-5.49
-5.39
-5.36
-5.28
-5.23
-5.12
-4.56
-3.65
-2.4
-0.16
3.04
5.04
6.43
7.23
7.6
7.79
7.47
7.04
6.53
6
5.12
4.32
3.68
3.04
2.37
1.41
0.32
-0.51
-1.31
-2.08
-2.91
-3.65
-4.56
-5.33
-5.87
-6.32
-6.83
-7.15
-7.28
-7.36
-7.36
-7.28
-7.17
-7.07
-6.96
-6.85
-6.69
-6.56
-6.43
-6.27
-6.16
-6.05
-5.95
-6
-5.97
-5.87
-5.84
-5.71
-5.6
-5.52
-5.49
-5.44
-5.36
-5.2
-4.88
-4.16
-3.12
-0.83
2.24
4.16
5.71
6.88
7.33
7.6
7.44
7.17
6.75
6.24
5.68
5.09
4.48
3.55
2.8
1.84
0.85
0.11
-0.72
-1.49
-2.51
-3.6
-4.24
-4.88
-5.44
-5.95
-6.32
-6.72
-7.01
-7.17
-7.2
-7.17
-7.12
-7.04
-6.91
-6.75
-6.56
-6.37
-6.27
-6.16
-6.08
-6.03
-5.92
-5.81
-5.76
-5.68
-5.65
-5.55
-5.52
-5.44
-5.39
-5.36
-5.25
-5.2
-5.2
-5.09
-4.93
-4.72
-3.65
-1.63
0.48
2.64
4.72
7.04
7.57
7.84
7.84
7.55
7.01
6.48
5.95
5.41
4.8
4.16
3.36
2.4
1.68
0.99
-0.08
-1.15
-1.89
-2.72
-3.44
-4.24
-5.2
-5.71
-6.13
-6.48
-6.77
-6.93
-7.04
-7.12
-7.07
-7.04
-6.83
-6.67
-6.56
-6.43
-6.27
-6.16
-6.05
-5.95
-5.92
-5.81
-5.71
-5.68
-5.57
-5.52
-5.44
-5.44
-5.39
-5.36
-5.28
-5.23
-5.2
-5.17
-5.12
-5.04
-4.8
-4.27
-3.52
-1.57
1.47
3.68
5.49
6.61
7.76
7.76
7.65
7.44
6.93
6.19
5.52
4.96
4.37
3.76
3.12
2.27
1.28
0.56
-0.13
-1.2
-2.27
-3.01
-3.76
-4.4
-5.09
-5.84
-6.24
-6.56
-6.8
-6.91
-7.01
-7.04
-7.04
-6.99
-6.96
-6.83
-6.67
-6.56
-6.45
-6.4
-6.32
-6.16
-6.11
-6.08
-6
-5.95
-5.92
-5.81
-5.76
-5.76
-5.73
-5.63
-5.6
-5.6
-5.55
-5.52
-5.49
-5.44
-5.44
-5.31
-4.93
-4.4
-2.77
-0.05
2.24
4.29
5.79
7.28
7.41
7.41
7.2
6.72
6.08
5.44
4.88
4.29
3.68
3.04
2.19
1.2
0.45
-0.29
-1.04
-1.97
-3.09
-3.92
-4.64
-5.39
-6.16
-6.59
-6.96
-7.2
-7.39
-7.49
-7.6
-7.57
-7.47
-7.36
-7.15
-6.99
-6.88
-6.75
-6.59
-6.48
-6.29
-6.19
-6.08
-6
-5.95
-5.92
-5.81
-5.81
-5.84
-5.81
-5.76
-5.68
-5.65
-5.55
-5.52
-5.49
-5.39
-5.28
-4.93
-4.24
-3.2
-1.09
1.89
3.92
5.44
6.35
7.2
7.09
6.83
6.48
5.95
5.15
4.48
3.92
3.28
2.64
1.97
1.01
-0.08
-0.83
-1.63
-2.72
-3.71
-4.4
-5.04
-5.57
-6.16
-6.8
-7.09
-7.31
-7.44
-7.52
-7.57
-7.6
-7.49
-7.39
-7.28
-7.07
-6.91
-6.8
-6.67
-6.51
-6.4
-6.21
-6.11
-6
-5.92
-5.87
-5.84
-5.71
-5.6
-5.52
-5.49
-5.39
-5.36
-5.36
-5.31
-5.28
-5.15
-4.83
-4.4
-3.23
-1.68
0.24
2.53
5.36
6.72
7.41
7.52
7.6
7.2
6.77
6.32
5.6
4.69
4
3.33
2.64
1.92
1.23
0.21
-0.96
-1.79
-2.53
-3.52
-4.48
-5.12
-5.68
-6.11
-6.59
-7.04
-7.23
-7.33
-7.44
-7.44
-7.44
-7.36
-7.17
-7.07
-6.96
-6.83
-6.67
-6.48
-6.37
-6.27
-6.16
-6.05
-5.95
-5.92
-5.81
-5.71
-5.68
-5.57
-5.52
-5.44
-5.41
-5.31
-5.28
-5.17
-5.07
-4.72
-3.41
-1.76
0.16
2.4
4.32
6
6.91
7.65
7.76
7.57
7.04
6.4
5.87
5.28
4.64
3.92
2.96
2.16
1.47
0.67
-0.16
-0.93
-1.95
-3.04
-3.79
-4.48
-5.28
-6.03
-6.45
-6.8
-7.01
-7.23
-7.36
-7.36
-7.36
-7.28
-7.25
-7.15
-6.96
-6.77
-6.67
-6.56
-6.43
-6.27
-6.16
-6.05
-6
-5.92
-5.81
-5.71
-5.68
-5.6
-5.55
-5.52
-5.41
-5.36
-5.28
-5.25
-5.09
-4.8
-4.24
-3.28
-1.68
1.44
3.95
5.76
6.75
7.44
7.84
7.65
7.28
6.88
6.4
5.65
4.8
4.16
3.52
2.88
2.05
0.99
0.08
-0.69
-1.49
-2.24
-2.99
-3.89
-4.88
-5.49
-5.97
-6.48
-6.93
-7.15
-7.28
-7.36
-7.36
-7.36
-7.25
-7.15
-6.96
-6.85
-6.75
-6.64
-6.45
-6.35
-6.24
-6.11
-6
-5.92
-5.81
-5.76
-5.68
-5.52
-5.47
-5.44
-5.36
-5.31
-5.36
-5.23
-4.85
-4.24
-2.61
0.11
2.4
4.37
5.87
6.8
7.36
7.57
7.44
7.04
6.61
6.16
5.55
4.69
4
3.36
2.51
1.52
0.77
-0.03
-0.8
-1.73
-2.85
-3.68
-4.32
-4.91
-5.44
-5.95
-6.43
-6.88
-7.07
-7.17
-7.2
-7.2
-7.15
-7.04
-6.93
-6.77
-6.56
-6.45
-6.35
-6.24
-6.21
-6.11
-6
-5.89
-5.79
-5.76
-5.68
-5.63
-5.6
-5.49
-5.44
-5.36
-5.28
-5.23
-5.12
-4.99
-4.72
-4.08
-2.13
0
2.24
4.24
6.48
7.44
7.84
7.84
7.68
7.15
6.61
6.08
5.47
4.88
4.32
3.6
2.64
1.84
1.17
0.43
-0.32
-1.49
-2.45
-3.2
-4
-4.91
-5.52
-5.95
-6.32
-6.64
-6.85
-7.01
-7.12
-7.09
-7.04
-6.96
-6.77
-6.61
-6.48
-6.37
-6.27
-6.08
-5.97
-5.92
-5.84
-5.81
-5.71
-5.6
-5.52
-5.47
-5.44
-5.41
-5.36
-5.28
-5.25
-5.2
-5.2
-5.09
-4.99
-4.72
-4.13
-3.07
-1.44
1.76
4.21
6
6.83
7.57
7.68
7.6
7.28
6.88
6.13
5.44
4.88
4.24
3.6
3.04
2.21
1.2
0.4
-0.29
-1.31
-2.4
-3.15
-3.84
-4.48
-5.15
-5.89
-6.32
-6.61
-6.83
-6.96
-7.04
-7.04
-6.96
-6.85
-6.75
-6.64
-6.45
-6.29
-6.24
-6.13
-6.03
-5.92
-5.89
-5.84
-5.76
-5.73
-5.68
-5.68
-5.6
-5.6
-5.6
-5.57
-5.52
-5.44
-5.44
-5.44
-5.44
-5.44
-5.39
-5.2
-4.75
-3.84
-2.32
0.88
3.39
5.28
6.32
7.28
7.44
7.36
7.09
6.64
5.89
5.2
4.64
4.03
3.44
2.8
2.05
0.99
0.16
-0.53
-1.55
-2.72
-3.44
-4.13
-4.8
-5.47
-6.21
-6.72
-7.01
-7.23
-7.44
-7.55
-7.6
-7.52
-7.41
-7.31
-7.12
-6.93
-6.83
-6.72
-6.53
-6.43
-6.24
-6.21
-6.11
-6
-5.97
-5.92
-5.84
-5.76
-5.71
-5.68
-5.57
-5.52
-5.52
-5.49
-5.44
-5.44
-5.28
-4.96
-4.16
-2.93
-1.17
0.88
3.68
5.6
6.56
6.83
6.99
6.8
6.43
5.95
5.44
4.59
3.84
3.2
2.56
1.87
1.2
0.35
-0.83
-1.76
-2.51
-3.41
-4.48
-5.12
-5.71
-6.16
-6.59
-6.96
-7.2
-7.41
-7.57
-7.6
-7.6
-7.55
-7.44
-7.33
-7.23
-7.04
-6.85
-6.69
-6.56
-6.45
-6.35
-6.16
-6.13
-6.03
-5.92
-5.89
-5.84
-5.76
-5.65
-5.55
-5.52
-5.49
-5.44
-5.36
-5.33
-5.17
-4.48
-3.36
-1.76
0.24
2.4
4.37
5.84
7.01
7.6
7.68
7.31
6.77
6.24
5.68
5.04
4.4
3.44
2.59
1.92
1.17
0.37
-0.4
-1.33
-2.51
-3.36
-4.08
-4.88
-5.76
-6.19
-6.56
-6.88
-7.09
-7.31
-7.44
-7.44
-7.39
-7.36
-7.25
-7.15
-6.96
-6.83
-6.67
-6.56
-6.37
-6.27
-6.24
-6.13
-6.03
-5.92
-5.89
-5.84
-5.76
-5.65
-5.6
-5.52
-5.44
-5.39
-5.36
-5.25
-5.09
-4.8
-4.05
-2.88
-0.24
2.48
4.45
5.92
7.09
7.63
7.76
7.55
7.23
6.8
6.16
5.25
4.56
3.97
3.28
2.56
1.52
0.61
-0.16
-0.99
-1.79
-2.56
-3.39
-4.4
-5.12
-5.65
-6.19
-6.72
-7.01
-7.23
-7.36
-7.36
-7.36
-7.36
-7.25
-7.15
-7.04
-6.85
-6.75
-6.56
-6.45
-6.35
-6.24
-6.08
-6.03
-5.92
-5.84
-5.79
-5.68
-5.65
-5.6
-5.52
-5.49
-5.44
-5.44
-5.33
-5.23
-5.04
-4.27
-3.09
-1.6
0.53
2.61
4.88
6.88
7.52
7.76
7.79
7.57
7.2
6.45
5.76
5.2
4.48
3.52
2.72
2.05
1.31
0.56
-0.21
-1.01
-1.84
-2.99
-3.89
-4.56
-5.23
-5.97
-6.48
-6.8
-7.07
-7.28
-7.36
-7.36
-7.36
-7.25
-7.09
-6.96
-6.85
-6.75
-6.64
-6.53
-6.43
-6.24
-6.13
-6.08
-6
-5.89
-5.79
-5.76
-5.68
-5.63
-5.52
-5.49
-5.44
-5.36
-5.33
-5.23
-4.96
-4.43
-3.52
-2
1.09
3.55
5.44
7.49
8.56
8.32
7.95
7.41
6.88
6.32
5.68
5.04
4
3.15
2.48
1.63
0.45
-0.48
-1.25
-2.05
-2.8
-3.87
-4.67
-5.2
-5.71
-6.13
-6.48
-6.72
-6.99
-7.12
-7.12
-7.07
-6.88
-6.77
-6.67
-6.56
-6.45
-6.29
-6.16
-6.05
-5.95
-5.92
-5.84
-5.79
-5.68
-5.65
-5.6
-5.52
-5.44
-5.39
-5.36
-5.28
-5.23
-5.12
-5.09
-4.88
-4.48
-3.49
-2.05
0.72
3.57
5.39
6.56
7.44
7.87
7.84
7.52
7.15
6.48
5.76
5.17
4.56
3.92
3.28
2.64
1.57
0.67
-0.08
-1.01
-2.13
-2.96
-3.68
-4.32
-4.96
-5.49
-5.97
-6.32
-6.72
-6.99
-7.12
-7.12
-7.07
-6.96
-6.85
-6.69
-6.48
-6.37
-6.27
-6.16
-6.05
-5.89
-5.84
-5.76
-5.71
-5.68
-5.6
-5.55
-5.44
-5.41
-5.36
-5.36
-5.28
-5.23
-5.2
-5.12
-5.01
-4.72
-4.08
-3.01
-1.44
0.69
2.77
5.04
6.93
7.52
7.68
7.49
7.23
6.88
6.35
5.81
5.04
4.24
3.6
2.96
2.29
1.6
0.88
-0.27
-1.17
-1.92
-2.75
-3.81
-4.56
-5.09
-5.63
-6.08
-6.51
-6.83
-6.96
-7.04
-7.04
-6.96
-6.93
-6.77
-6.64
-6.45
-6.35
-6.16
-6.13
-6.03
-5.92
-5.89
-5.79
-5.68
-5.6
-5.55
-5.52
-5.44
-5.44
-5.36
-5.33
-5.28
-5.28
-5.2
-5.2
-5.2
-5.2
-5.04
-4.72
-3.87
-2.59
-0.8
1.44
3.47
5.44
7.04
7.41
7.52
7.2
6.83
6.4
5.79
5.2
4.4
3.6
2.96
2.24
1.57
0.88
0.16
-0.53
-1.55
-2.64
-3.47
-4.53
-5.28
-5.81
-6.29
-6.64
-7.07
-7.33
-7.44
-7.52
-7.52
-7.44
-7.41
-7.25
-7.12
-6.93
-6.77
-6.56
-6.45
-6.35
-6.24
-6.13
-6.03
-6
-5.89
-5.79
-5.76
-5.68
-5.63
-5.52
-5.52
-5.52
-5.44
-5.44
-5.39
-5.36
-5.36
-5.31
-5.12
-4.67
-3.76
-2.48
-0.53
1.55
4
6.11
6.91
7.52
7.81
7.23
6.48
5.84
5.2
4.24
3.36
2.72
2
1.23
0.43
-0.4
-1.17
-2.19
-3.28
-4.08
-5.04
-5.68
-6.11
-6.53
-6.88
-7.17
-7.33
-7.44
-7.44
-7.44
-7.36
-7.25
-7.09
-6.96
-6.77
-6.67
-6.48
-6.37
-6.27
-6.16
-6.05
-5.95
-5.84
-5.76
-5.71
-5.68
-5.6
-5.55
-5.44
-5.41
-5.36
-5.36
-5.28
-5.23
-5.04
-4.72
-3.49
-1.68
0.37
2.45
4.48
5.79
6.8
7.44
7.47
7.31
6.96
6.21
5.52
4.96
4.35
3.76
2.8
1.89
1.15
0.32
-0.45
-1.25
-2.08
-3.23
-4.13
-4.8
-5.39
-6.13
-6.64
-6.93
-7.15
-7.36
-7.47
-7.52
-7.52
-7.41
-7.31
-7.2
-7.09
-6.93
-6.8
-6.61
-6.51
-6.32
-6.21
-6.16
-6.08
-5.97
-5.87
-5.84
-5.76
-5.71
-5.68
-5.6
-5.55
-5.44
-5.41
-5.36
-5.28
-5.01
-4.59
-3.6
-2.24
0.27
3.44
5.15
6.48
7.44
7.76
7.87
7.52
7.15
6.61
6
5.15
4.4
3.76
3.04
2.35
1.28
0.27
-0.53
-1.36
-2.11
-2.85
-3.6
-4.64
-5.39
-5.92
-6.37
-6.85
-7.12
-7.31
-7.36
-7.44
-7.41
-7.31
-7.2
-7.09
-6.99
-6.88
-6.75
-6.53
-6.4
-6.29
-6.19
-6.08
-5.97
-5.92
-5.84
-5.73
-5.63
-5.6
-5.52
-5.47
-5.44
-5.36
-5.36
-5.28
-5.17
-4.91
-3.84
-2.43
-0.56
1.6
3.71
5.47
7.36
7.68
7.79
7.76
7.36
6.93
6.24
5.52
4.88
4.24
3.28
2.43
1.76
0.93
0.19
-0.56
-1.49
-2.67
-3.52
-4.16
-4.8
-5.44
-6.08
-6.56
-6.88
-7.09
-7.31
-7.36
-7.36
-7.31
-7.28
-7.15
-6.99
-6.8
-6.69
-6.59
-6.48
-6.37
-6.21
-6.16
-6.08
-6.03
-5.84
-5.81
-5.76
-5.68
-5.65
-5.55
-5.52
-5.44
-5.39
-5.36
-5.25
-4.88
-4.24
-3.04
-1.44
1.36
4.16
5.76
6.72
7.41
7.52
7.52
7.2
6.77
6.32
5.71
5.01
4
3.01
2.27
1.52
0.75
-0.32
-1.52
-2.35
-3.09
-4
-4.85
-5.39
-5.84
-6.24
-6.56
-6.8
-6.99
-7.04
-7.04
-7.01
-6.91
-6.8
-6.69
-6.53
-6.4
-6.27
-6.16
-6.08
-5.97
-5.92
-5.84
-5.81
-5.71
-5.68
-5.6
-5.55
-5.52
-5.41
-5.36
-5.28
-5.25
-5.09
-4.72
-4.11
-2.93
-1.2
0.77
3.23
6.08
6.96
7.55
7.6
7.6
7.28
6.88
6.43
5.73
4.88
4.24
3.6
2.96
2.24
1.55
0.48
-0.53
-1.33
-2.08
-2.83
-3.73
-4.72
-5.25
-5.79
-6.24
-6.56
-6.88
-7.04
-7.12
-7.12
-7.12
-7.01
-6.91
-6.8
-6.69
-6.53
-6.4
-6.32
-6.27
-6.24
-6.13
-6.08
-6
-5.97
-5.92
-5.84
-5.81
-5.71
-5.68
-5.6
-5.55
-5.44
-5.41
-5.31
-5.12
-4.67
-3.81
-1.52
1.12
3.36
5.12
6.51
7.31
7.68
7.68
7.47
6.88
6.27
5.73
5.12
4.56
3.76
2.8
2.16
1.47
0.72
-0.03
-0.83
-1.92
-2.91
-3.65
-4.32
-4.93
-5.57
-6.24
-6.56
-6.83
-6.96
-7.07
-7.12
-7.12
-7.01
-6.91
-6.8
-6.59
-6.43
-6.32
-6.21
-6.05
-6
-5.92
-5.87
-5.84
-5.73
-5.68
-5.6
-5.57
-5.52
-5.44
-5.44
-5.39
-5.36
-5.28
-5.23
-5.12
-4.88
-4.35
-3.6
-1.97
0
2.88
5.49
6.67
7.28
7.68
7.52
7.28
6.85
6.37
5.84
5.15
4.29
3.52
2.88
2.24
1.52
0.45
-0.45
-1.2
-2.03
-2.77
-3.76
-4.64
-5.28
-5.84
-6.27
-6.69
-7.12
-7.31
-7.41
-7.44
-7.41
-7.31
-7.2
-7.09
-6.99
-6.88
-6.75
-6.59
-6.48
-6.37
-6.32
-6.24
-6.08
-6.03
-6
-5.92
-5.87
-5.76
-5.73
-5.68
-5.6
-5.6
-5.55
-5.52
-5.44
-5.44
-5.36
-4.72
-3.81
-2.56
-0.53
1.55
4
6.19
6.93
7.28
7.39
7.07
6.64
6.11
5.57
5.04
4.32
3.41
2.64
1.97
1.28
0.56
-0.59
-1.92
-3.44
-4.16
-4.8
-5.6
-6.35
-6.72
-7.04
-7.25
-7.41
-7.52
-7.52
-7.52
-7.44
-7.31
-7.09
-6.96
-6.85
-6.69
-6.56
-6.43
-6.32
-6.24
-6.13
-6.08
-6
-5.92
-5.87
-5.84
-5.73
-5.68
-5.6
-5.57
-5.52
-5.44
-5.41
-5.25
-4.88
-4.29
-3.17
-1.52
1.49
3.84
5.52
6.4
7.04
7.12
7.12
6.8
6.32
5.84
5.09
4.24
3.6
2.96
2.32
1.47
0.35
-0.56
-1.33
-2.13
-2.88
-3.95
-4.8
-5.36
-5.89
-6.37
-6.8
-7.17
-7.33
-7.44
-7.44
-7.44
-7.36
-7.25
-7.15
-7.04
-6.93
-6.77
-6.64
-6.53
-6.43
-6.32
-6.21
-6.11
-6
-5.97
-5.92
-5.84
-5.81
-5.65
-5.6
-5.52
-5.52
-5.44
-5.41
-5.25
-5.04
-4.11
-2.29
-0.24
1.87
3.89
5.44
6.83
7.57
7.68
7.47
7.15
6.48
5.76
5.17
4.56
4
3.15
2.16
1.41
0.61
-0.16
-0.99
-1.79
-2.88
-3.84
-4.48
-5.12
-5.87
-6.45
-6.8
-7.01
-7.17
-7.28
-7.36
-7.36
-7.28
-7.17
-7.07
-6.88
-6.75
-6.59
-6.48
-6.45
-6.29
-6.24
-6.13
-6.03
-6
-5.89
-5.84
-5.76
-5.65
-5.6
-5.52
-5.44
-5.44
-5.44
-5.33
-5.07
-4.64
-3.68
-2.29
-0.48
1.84
4.77
6.32
7.23
7.65
7.68
7.36
6.93
6.48
5.95
5.36
4.48
3.68
3.04
2.32
1.57
0.61
-0.48
-1.31
-2.11
-2.88
-3.71
-4.72
-5.36
-5.87
-6.29
-6.64
-6.96
-7.17
-7.28
-7.36
-7.36
-7.28
-7.09
-6.99
-6.88
-6.69
-6.59
-6.4
-6.37
-6.27
-6.16
-6.05
-5.95
-5.92
-5.84
-5.79
-5.76
-5.65
-5.6
-5.52
-5.49
-5.44
-5.36
-5.25
-5.15
-4.8
-4.21
-2.51
-0.08
2.08
4.05
5.76
6.67
7.47
7.6
7.49
7.12
6.64
5.89
5.2
4.64
4
3.36
2.4
1.49
0.75
-0.08
-0.85
-1.87
-3.04
-3.76
-4.4
-5.04
-5.63
-6.32
-6.72
-7.09
-7.63
-7.76
-7.63
-7.47
-7.36
-7.23
-7.07
-6.88
-6.61
-6.51
-6.4
-6.29
-6.19
-6.08
-5.97
-5.92
-5.84
-5.81
-5.65
-5.6
-5.52
-5.47
-5.44
-5.33
-5.28
-5.28
-5.17
-4.96
-4.08
-2.77
-1.01
1.12
3.25
5.17
7.2
7.55
7.71
7.68
7.28
6.69
6.16
5.6
5.01
4.4
3.47
2.67
2
1.28
0.53
-0.24
-1.09
-2.27
-3.12
-3.84
-4.59
-5.44
-5.95
-6.32
-6.64
-6.85
-7.07
-7.2
-7.2
-7.15
-7.04
-6.91
-6.75
-6.64
-6.51
-6.35
-6.24
-6.13
-6.03
-6
-5.89
-5.79
-5.68
-5.65
-5.6
-5.52
-5.49
-5.39
-5.36
-5.28
-5.23
-5.2
-5.17
-5.07
-4.96
-4.53
-3.79
-1.68
0.8
3.04
4.88
6.37
7.17
7.92
7.81
7.6
7.28
6.67
5.87
5.2
4.64
4.05
3.44
2.4
1.55
0.88
0.13
-0.67
-1.76
-2.75
-3.49
-4.16
-4.77
-5.41
-6.08
-6.48
-6.75
-6.88
-6.99
-7.04
-7.04
-6.96
-6.91
-6.8
-6.59
-6.43
-6.32
-6.21
-6.11
-6
-5.92
-5.87
-5.76
-5.68
-5.63
-5.6
-5.49
-5.44
-5.36
-5.33
-5.23
-5.2
-5.2
-5.15
-5.12
-5.09
-5.04
-4.96
-4.61
-3.92
-1.92
0.48
2.72
4.64
6.24
7.09
7.92
7.84
7.63
7.28
6.75
5.95
5.28
4.72
4.08
3.44
2.48
1.63
0.96
0.21
-0.53
-1.6
-2.59
-3.33
-4
-4.64
-5.33
-6.08
-6.48
-6.75
-6.96
-7.15
-7.25
-7.28
-7.25
-7.15
-7.04
-6.91
-6.75
-6.64
-6.53
-6.48
-6.4
-6.24
-6.19
-6.08
-6
-5.95
-5.84
-5.81
-5.76
-5.68
-5.65
-5.55
-5.52
-5.52
-5.47
-5.44
-5.41
-5.36
-5.36
-5.33
-5.17
-4.48
-3.47
-1.92
0.08
2.27
4.4
6.72
7.25
7.52
7.6
7.23
6.69
6.08
5.52
4.93
4.32
3.39
2.59
1.92
1.2
0.51
-0.56
-1.63
-2.37
-3.12
-3.87
-4.72
-5.6
-6.11
-6.53
-6.88
-7.55
-7.92
-8
-7.89
-7.79
-7.68
-7.47
-7.31
-7.12
-6.99
-6.83
-6.64
-6.45
-6.35
-6.24
-6.16
-6.11
-5.92
-5.89
-5.84
-5.76
-5.73
-5.63
-5.6
-5.52
-5.47
-5.44
-5.41
-5.36
-5.28
-5.15
-4.77
-3.44
-1.68
0.29
2.32
4.19
5.63
7.12
7.23
7.17
7.04
6.53
5.84
5.2
4.64
4
3.36
2.32
1.47
0.8
-0.03
-0.77
-1.52
-2.43
-3.49
-4.32
-4.93
-5.57
-6.32
-6.64
-6.96
-7.2
-7.39
-7.49
-7.52
-7.52
-7.47
-7.36
-7.23
-7.07
-6.88
-6.77
-6.67
-6.56
-6.37
-6.27
-6.16
-6.08
-6.03
-5.84
-5.81
-5.76
-5.68
-5.65
-5.55
-5.52
-5.44
-5.39
-5.36
-5.25
-5.15
-4.96
-4.32
-3.31
-0.88
1.79
3.87
5.52
6.8
7.39
7.92
7.71
7.39
6.96
6.35
5.49
4.8
4.24
3.6
2.88
1.84
0.99
0.24
-0.59
-1.39
-2.16
-2.99
-4.05
-4.8
-5.33
-5.92
-6.48
-6.77
-6.99
-7.12
-7.23
-7.28
-7.28
-7.17
-7.07
-6.96
-6.75
-6.59
-6.48
-6.35
-6.19
-6.08
-5.97
-5.87
-5.84
-5.76
-5.71
-5.6
-5.57
-5.52
-5.44
-5.41
-5.31
-5.28
-5.28
-5.23
-5.2
-4.85
-4.21
-3.28
-1.57
0.35
3.12
5.63
6.75
7.36
7.73
7.52
7.2
6.77
6.24
5.68
4.99
4.13
3.44
2.77
2.08
1.36
0.19
-0.77
-1.52
-2.35
-3.09
-4.08
-4.93
-5.47
-5.92
-6.32
-6.69
-7.12
-7.23
-7.33
-7.36
-7.33
-7.23
-7.12
-7.01
-6.91
-6.8
-6.59
-6.43
-6.32
-6.21
-6.11
-6
-5.81
-5.71
-5.68
-5.6
-5.55
-5.44
-5.41
-5.36
-5.28
-5.28
-5.23
-5.2
-5.07
-4.85
-4.4
-2.8
-0.99
1.12
3.25
5.01
6.48
7.63
7.79
7.68
7.41
6.83
6.16
5.63
5.04
4.4
3.68
2.72
1.92
1.25
0.51
-0.32
-1.09
-2.11
-3.2
-3.92
-4.56
-5.36
-6.03
-6.4
-6.72
-7.01
-7.33
-7.76
-7.65
-7.55
-7.44
-7.31
-7.04
-6.88
-6.69
-6.59
-6.48
-6.27
-6.16
-6.08
-5.97
-5.87
-5.76
-5.68
-5.63
-5.52
-5.44
-5.39
-5.28
-5.25
-5.2
-5.12
-4.77
-4.03
-2.8
-1.23
0.91
2.96
5.33
6.88
7.52
7.63
7.57
7.2
6.75
6.27
5.68
5.12
4.37
3.52
2.8
2.16
1.52
0.67
-0.51
-1.36
-2.11
-2.85
-3.6
-4.56
-5.31
-5.76
-6.19
-6.56
-6.88
-7.07
-7.17
-7.2
-7.17
-7.07
-6.88
-6.77
-6.67
-6.56
-6.43
-6.21
-6.16
-6.05
-5.95
-5.84
-5.73
-5.68
-5.6
-5.57
-5.52
-5.44
-5.36
-5.31
-5.28
-5.2
-5.2
-5.12
-4.99
-4.61
-4.08
-2.45
0.21
2.48
4.53
6.03
6.96
7.52
7.73
7.6
7.2
6.77
6.08
5.36
4.77
4.16
3.6
2.75
1.76
1.04
0.35
-0.4
-1.33
-2.45
-3.28
-3.92
-4.56
-5.12
-5.84
-6.32
-6.64
-6.83
-6.93
-7.04
-7.04
-6.99
-6.88
-6.77
-6.61
-6.4
-6.29
-6.19
-6.08
-5.97
-5.87
-5.76
-5.68
-5.63
-5.6
-5.49
-5.44
-5.36
-5.33
-5.28
-5.28
-5.2
-5.15
-5.12
-5.09
-4.93
-4.64
-3.97
-2.85
-1.28
1.09
4.19
5.84
6.93
7.47
7.6
7.39
7.07
6.72
6.19
5.65
4.88
4.08
3.44
2.8
2.21
1.52
0.8
-0.27
-1.17
-1.92
-2.75
-3.76
-4.48
-5.09
-5.57
-6
-6.51
-6.83
-6.96
-7.04
-7.04
-7.04
-6.96
-6.91
-6.8
-6.69
-6.59
-6.48
-6.37
-6.32
-6.24
-6.13
-6.03
-6
-5.92
-5.87
-5.84
-5.73
-5.68
-5.68
-5.65
-5.6
-5.6
-5.52
-5.47
-5.44
-5.44
-5.33
-5.04
-4.37
-3.25
-1.76
0.61
3.76
5.52
6.69
7.23
7.36
7.17
6.91
6.48
5.97
5.44
4.64
3.84
3.2
2.56
1.89
0.99
-0.08
-0.83
-1.63
-2.4
-3.23
-4.29
-5.04
-5.57
-6.11
-6.56
-6.99
-7.31
-7.44
-7.52
-7.52
-7.52
-7.44
-7.44
-7.36
-7.17
-7.01
-6.72
-6.61
-6.51
-6.4
-6.29
-6.13
-6.08
-6
-5.95
-5.84
-5.73
-5.68
-5.6
-5.57
-5.52
-5.52
-5.44
-5.39
-5.28
-5.09
-4.24
-2.96
-1.15
0.77
2.88
4.51
6.21
6.88
7.09
6.99
6.72
6.08
5.49
4.96
4.35
3.76
2.88
1.97
1.28
0.56
-0.21
-1.01
-1.84
-2.99
-3.84
-4.48
-5.17
-5.97
-6.48
-6.8
-7.12
-7.36
-7.47
-7.52
-7.52
-7.49
-7.44
-7.36
-7.17
-7.01
-6.88
-6.77
-6.61
-6.4
-6.29
-6.24
-6.16
-6.05
-5.95
-5.84
-5.76
-5.71
-5.68
-5.57
-5.52
-5.44
-5.41
-5.36
-5.28
-5.12
-4.75
-4
-2.85
-0.45
2.64
4.45
5.89
7.04
7.39
7.55
7.36
6.99
6.51
6
5.15
4.4
3.76
3.12
2.43
1.36
0.37
-0.37
-1.2
-1.97
-2.93
-4
-4.64
-5.23
-5.76
-6.21
-6.75
-7.04
-7.23
-7.33
-7.36
-7.36
-7.31
-7.2
-7.09
-6.99
-6.88
-6.69
-6.59
-6.48
-6.37
-6.27
-6.08
-5.97
-5.92
-5.84
-5.81
-5.65
-5.6
-5.52
-5.47
-5.44
-5.33
-5.28
-5.28
-5.15
-4.83
-4.4
-3.01
-0.61
1.6
3.71
5.47
7.28
7.6
7.71
7.6
7.2
6.56
6
5.44
4.8
4.16
3.2
2.35
1.68
0.93
0.13
-0.64
-1.57
-2.75
-3.6
-4.24
-4.99
-5.84
-6.27
-6.64
-6.96
-7.17
-7.33
-7.36
-7.36
-7.31
-7.2
-7.07
-6.91
-6.72
-6.61
-6.51
-6.4
-6.21
-6.11
-6.08
-5.97
-5.87
-5.76
-5.73
-5.68
-5.6
-5.57
-5.47
-5.44
-5.36
-5.31
-5.28
-5.04
-4.56
-3.92
-2.53
-0.83
2
4.75
6.19
7.04
7.55
7.55
7.44
7.01
6.53
6.08
5.39
4.53
3.84
3.25
2.56
1.84
0.77
-0.19
-0.96
-1.79
-2.53
-3.52
-4.48
-5.12
-5.68
-6.11
-6.53
-6.96
-7.15
-7.25
-7.36
-7.33
-7.23
-7.12
-7.01
-6.91
-6.8
-6.59
-6.43
-6.32
-6.29
-6.24
-6.24
-6.13
-6.03
-6
-5.92
-5.87
-5.68
-5.65
-5.6
-5.52
-5.49
-5.33
-5.12
-4.69
-3.89
-2.48
0.51
2.96
4.88
6.16
7.07
7.44
7.6
7.33
6.96
6.51
5.81
5.04
4.4
3.76
3.12
2.37
1.31
0.48
-0.29
-1.09
-1.84
-2.99
-3.89
-4.56
-5.09
-5.63
-6.24
-6.69
-6.91
-7.04
-7.15
-7.2
-7.12
-7.09
-6.99
-6.8
-6.69
-6.53
-6.4
-6.24
-6.19
-6.08
-5.95
-5.84
-5.76
-5.73
-5.68
-5.6
-5.52
-5.47
-5.36
-5.28
-5.28
-5.2
-5.17
-5.07
-4.88
-4.21
-2.77
-0.88
1.17
3.31
5.04
6.64
7.55
7.84
7.65
7.44
6.88
6.27
5.73
5.12
4.56
3.76
2.88
2.16
1.47
0.8
-0.03
-0.77
-1.84
-2.91
-3.6
-4.24
-5.09
-5.73
-6.16
-6.48
-6.75
-6.96
-7.04
-7.04
-7.04
-6.93
-6.83
-6.64
-6.51
-6.35
-6.24
-6.13
-6.03
-5.92
-5.84
-5.79
-5.76
-5.65
-5.6
-5.52
-5.49
-5.44
-5.36
-5.28
-5.23
-5.2
-5.2
-5.15
-5.04
-4.83
-4.4
-3.68
-1.81
1.17
3.36
5.2
6.48
7.2
7.52
7.57
7.36
6.96
6.53
5.76
5.04
4.4
3.76
3.2
2.35
1.36
0.64
-0.05
-0.8
-1.65
-2.77
-3.6
-4.24
-4.88
-5.44
-6.05
-6.48
-6.72
-6.91
-7.01
-7.04
-6.96
-6.91
-6.8
-6.61
-6.51
-6.32
-6.21
-6.11
-6
-5.89
-5.79
-5.76
-5.68
-5.63
-5.6
-5.57
-5.52
-5.52
-5.49
-5.44
-5.44
-5.44
-5.44
-5.44
-5.36
-5.36
-5.28
-4.64
-3.68
-2.32
0
3.2
5.04
6.32
7.01
7.28
7.17
6.91
6.56
6.05
5.52
4.72
3.92
3.28
2.64
2
1.15
0.08
-0.67
-1.41
-2.16
-3.01
-4.13
-4.88
-5.41
-5.95
-6.4
-6.91
-7.23
-7.36
-7.47
-7.52
-7.44
-7.33
-7.23
-7.12
-7.01
-6.85
-6.64
-6.53
-6.43
-6.32
-6.21
-6.11
-6
-5.92
-5.87
-5.84
-5.92
-5.92
-5.84
-5.81
-5.76
-5.68
-5.6
-5.6
-5.6
-5.49
-5.12
-4.48
-3.2
-1.55
0.48
2.61
5.12
6.32
6.91
7.07
6.96
6.53
6.05
5.6
4.99
4.4
3.52
2.69
2
1.28
0.61
-0.35
-1.52
-2.27
-3.01
-3.76
-4.56
-5.47
-6.08
-6.48
-6.8
-7.12
-7.33
-7.49
-7.52
-7.52
-7.52
-7.44
-7.25
-7.09
-6.96
-6.85
-6.69
-6.48
-6.37
-6.32
-6.24
-6.13
-5.97
-5.92
-5.84
-5.79
-5.76
-5.65
-5.6
-5.52
-5.49
-5.44
-5.44
-5.36
-5.31
-5.12
-4.69
-3.36
-1.44
0.69
2.72
4.72
5.97
7.2
7.52
7.47
7.25
6.8
6.05
5.36
4.8
4.16
3.52
2.56
1.65
0.91
0.16
-0.61
-1.63
-2.8
-3.55
-4.24
-4.88
-5.55
-6.24
-6.64
-6.93
-7.15
-7.28
-7.39
-7.44
-7.44
-7.33
-7.23
-7.12
-6.93
-6.83
-6.72
-6.53
-6.43
-6.24
-6.13
-6.08
-6
-5.89
-5.79
-5.76
-5.65
-5.55
-5.52
-5.41
-5.36
-5.28
-5.28
-5.23
-4.88
-4.24
-3.28
-1.68
0.21
2.72
5.6
6.59
7.28
7.68
7.52
7.2
6.72
6.24
5.65
5.04
4.11
3.36
2.72
2
1.31
0.24
-0.85
-1.65
-2.4
-3.15
-4.05
-5.04
-5.57
-6.05
-6.48
-6.83
-7.2
-7.36
-7.44
-7.44
-7.44
-7.33
-7.23
-7.12
-6.99
-6.83
-6.72
-6.61
-6.45
-6.32
-6.24
-6.19
-6
-5.97
-5.92
-5.84
-5.81
-5.65
-5.6
-5.52
-5.47
-5.44
-5.33
-5.17
-4.88
-4.21
-3.09
-0.56
2.19
4.21
5.68
6.88
7.36
7.76
7.55
7.23
6.8
6.19
5.33
4.64
4.08
3.44
2.72
1.65
0.69
-0.08
-0.91
-1.71
-2.8
-3.76
-4.4
-5.04
-5.57
-6.16
-6.72
-7.01
-7.17
-7.28
-7.36
-7.31
-7.28
-7.17
-7.07
-6.96
-6.75
-6.59
-6.48
-6.37
-6.32
-6.24
-6.08
-6.03
-5.92
-5.84
-5.79
-5.68
-5.65
-5.6
-5.52
-5.49
-5.39
-5.36
-5.25
-4.77
-3.76
-1.2
1.15
3.36
4.99
6.27
7.04
7.55
7.39
7.12
6.75
6.11
5.36
4.75
4.16
3.6
2.8
1.84
1.04
0.27
-0.53
-1.36
-2.51
-3.41
-4.08
-4.72
-5.31
-5.92
-6.48
-6.75
-6.96
-7.15
-7.2
-7.2
-7.17
-7.07
-6.96
-6.83
-6.61
-6.48
-6.37
-6.27
-6.16
-6.05
-6
-5.92
-5.81
-5.76
-5.68
-5.6
-5.55
-5.52
-5.44
-5.39
-5.28
-5.25
-5.2
-5.12
-4.72
-3.76
-2.32
-0.59
1.6
3.6
5.76
7.15
7.68
7.68
7.52
7.04
6.59
6.05
5.44
4.88
4.13
3.28
2.56
1.92
1.28
0.53
-0.27
-1.36
-2.35
-3.09
-3.84
-4.77
-5.47
-5.92
-6.32
-6.59
-6.88
-7.07
-7.12
-7.12
-7.01
-6.91
-6.72
-6.61
-6.51
-6.32
-6.21
-6.11
-6
-5.92
-5.87
-5.84
-5.73
-5.68
-5.6
-5.57
-5.52
-5.44
-5.36
-5.31
-5.28
-5.2
-5.2
-5.12
-4.99
-4.67
-4.24
-2.72
-0.11
2.24
4.29
5.84
6.8
7.44
7.65
7.52
7.2
6.77
6
5.28
4.69
4.08
3.52
2.72
1.76
1.04
0.35
-0.4
-1.25
-2.37
-3.2
-3.92
-4.51
-5.12
-5.84
-6.32
-6.64
-6.83
-6.93
-7.04
-7.04
-6.99
-6.88
-6.77
-6.61
-6.4
-6.29
-6.19
-6.08
-5.97
-5.87
-5.84
-5.73
-5.63
-5.6
-5.49
-5.44
-5.36
-5.36
-5.36
-5.28
-5.2
-5.15
-5.12
-5.12
-5.07
-4.88
-4.43
-3.52
-2.24
-0.03
3.12
5.04
6.32
7.01
7.28
7.2
6.99
6.64
6.13
5.65
4.8
4
3.41
2.8
2.16
1.31
0.24
-0.48
-1.23
-2
-2.83
-3.89
-4.64
-5.25
-5.79
-6.24
-6.75
-7.07
-7.28
-7.36
-7.36
-7.36
-7.25
-7.15
-7.04
-6.93
-6.83
-6.72
-6.51
-6.4
-6.32
-6.21
-6.11
-6
-5.92
-5.87
-5.84
-5.73
-5.68
-5.6
-5.57
-5.52
-5.52
-5.44
-5.39
-5.36
-5.36
-5.25
-5.04
-4.37
-2.24
1.36
3.44
5.73
6.72
7.2
7.25
7.12
6.59
6.05
5.52
4.99
4.4
3.52
2.64
2
1.28
0.59
-0.43
-1.52
-2.35
-3.09
-3.84
-4.56
-5.47
-6.08
-6.48
-6.8
-7.12
-7.33
-7.49
-7.52
-7.49
-7.44
-7.28
-7.09
-6.99
-6.88
-6.69
-6.59
-6.4
-6.29
-6.24
-6.16
-6.05
-5.95
-5.92
-5.81
-5.71
-5.68
-5.57
-5.52
-5.44
-5.44
-5.44
-5.36
-5.12
-4.8
-4.08
-2.93
-0.59
2.4
4.21
5.65
6.72
7.07
7.23
7.04
6.67
6.19
5.68
4.83
4.08
3.52
2.8
2.11
1.12
0.13
-0.61
-1.44
-2.19
-3.15
-4.24
-4.88
-5.47
-5.92
-6.37
-6.91
-7.2
-7.31
-7.41
-7.44
-7.41
-7.31
-7.2
-7.09
-6.99
-6.88
-6.69
-6.53
-6.48
-6.37
-6.27
-6.08
-6.05
-6
-5.92
-5.81
-5.71
-5.68
-5.6
-5.55
-5.52
-5.41
-5.31
-5.2
-4.88
-4.24
-2.32
-0.03
2.16
4.08
5.71
6.67
7.6
7.52
7.36
7.04
6.45
5.71
5.04
4.48
3.84
3.2
2.16
1.31
0.56
-0.27
-1.07
-2.16
-3.23
-3.92
-4.56
-5.17
-5.81
-6.48
-6.8
-7.07
-7.2
-7.31
-7.36
-7.36
-7.25
-7.15
-7.04
-6.83
-6.67
-6.56
-6.45
-6.35
-6.24
-6.13
-6.03
-6
-5.92
-5.87
-5.76
-5.73
-5.63
-5.52
-5.52
-5.47
-5.44
-5.33
-5.23
-5.04
-4.08
-2.8
-1.12
1.04
3.12
5.2
6.91
7.39
7.52
7.44
7.01
6.48
5.95
5.36
4.8
4.08
3.12
2.4
1.73
0.99
0.16
-0.59
-1.55
-2.72
-3.47
-4.16
-4.8
-5.47
-6.16
-6.56
-6.85
-7.07
-7.28
-7.36
-7.36
-7.28
-7.17
-7.01
-6.88
-6.69
-6.59
-6.48
-6.35
-6.19
-6.08
-6.05
-6
-5.92
-5.81
-5.71
-5.68
-5.6
-5.55
-5.44
-5.41
-5.36
-5.36
-5.2
-4.88
-4.24
-3.2
-1.6
0.4
3.41
5.55
6.8
7.25
7.52
7.28
7.01
6.59
6.08
5.52
4.61
3.52
2.77
2.03
1.28
0.4
-0.83
-1.76
-2.51
-3.25
-4
-4.85
-5.55
-6
-6.4
-6.67
-6.88
-7.07
-7.12
-7.12
-7.01
-6.91
-6.72
-6.59
-6.43
-6.32
-6.21
-6.05
-6
-5.92
-5.87
-5.84
-5.73
-5.68
-5.6
-5.57
-5.52
-5.44
-5.36
-5.31
-5.28
-5.2
-5.09
-4.8
-4.13
-3.01
-1.52
0.85
4
5.76
6.85
7.44
7.6
7.39
7.07
6.72
6.19
5.65
4.8
4
3.41
2.8
2.13
1.17
0.08
-0.67
-1.47
-2.24
-3.07
-4.13
-4.88
-5.41
-5.89
-6.32
-6.75
-7.01
-7.12
-7.2
-7.2
-7.12
-6.93
-6.83
-6.72
-6.53
-6.43
-6.24
-6.13
-6.03
-5.92
-5.89
-5.79
-5.76
-5.68
-5.63
-5.6
-5.49
-5.44
-5.36
-5.33
-5.28
-5.28
-5.2
-5.15
-4.88
-4.45
-3.01
-0.88
1.36
3.44
5.36
6.4
7.41
7.68
7.6
7.33
6.96
6.21
5.52
4.96
4.35
3.76
2.88
1.97
1.28
0.56
-0.19
-1.15
-2.32
-3.04
-3.73
-4.4
-5.07
-5.81
-6.32
-6.61
-6.83
-6.96
-7.04
-7.04
-6.96
-6.85
-6.75
-6.56
-6.37
-6.27
-6.16
-6.08
-6.03
-5.84
-5.81
-5.76
-5.68
-5.65
-5.55
-5.52
-5.44
-5.44
-5.44
-5.33
-5.28
-5.2
-5.2
-5.2
-5.2
-5.07
-4.85
-4.32
-3.49
-1.36
1.6
3.65
5.36
6.72
7.23
7.65
7.6
7.33
6.91
6.4
5.57
4.88
4.24
3.63
3.04
2.08
1.17
0.48
-0.24
-1.01
-2.03
-3.12
-3.84
-4.48
-5.12
-5.68
-6.32
-6.72
-6.93
-7.09
-7.2
-7.2
-7.2
-7.12
-7.01
-6.91
-6.8
-6.61
-6.51
-6.48
-6.37
-6.27
-6.16
-6.05
-6
-5.92
-5.89
-5.79
-5.76
-5.68
-5.68
-5.68
-5.57
-5.52
-5.44
-5.44
-5.44
-5.44
-5.41
-5.31
-5.04
-4.56
-2.96
-0.64
1.6
3.63
5.44
6.37
7.23
7.36
7.28
6.96
6.48
5.73
5.04
4.4
3.79
3.2
2.24
1.17
-0.16
-1.04
-1.81
-2.61
-3.36
-4.43
-5.23
-5.76
-6.29
-6.83
-7.12
-7.31
-7.41
-7.44
-7.44
-7.39
-7.28
-7.15
-6.99
-6.8
-6.61
-6.51
-6.4
-6.29
-6.19
-6
-5.97
-5.92
-5.84
-5.81
-5.71
-5.68
-5.6
-5.55
-5.52
-5.41
-5.36
-5.36
-5.33
-5.28
-5.2
-5.01
-4.53
-3.6
-2.27
0.19
3.28
4.8
6.03
6.96
7.12
7.12
6.8
6.43
5.89
5.36
4.43
3.68
3.04
2.4
1.71
0.64
-0.37
-1.17
-1.92
-2.67
-3.57
-4.64
-5.25
-5.79
-6.24
-6.67
-7.09
-7.36
-7.47
-7.52
-7.52
-7.49
-7.39
-7.28
-7.17
-7.07
-6.88
-6.69
-6.53
-6.4
-6.29
-6.19
-6.08
-5.97
-5.92
-5.84
-5.81
-5.65
-5.6
-5.52
-5.47
-5.44
-5.41
-5.36
-5.36
-5.33
-5.17
-4.56
-3.65
-2.27
-0.4
1.71
4
6.56
7.23
7.65
7.84
7.47
6.99
6.48
5.92
5.33
4.72
3.76
2.91
2.24
1.49
0.69
-0.4
-1.49
-2.29
-3.04
-3.79
-4.64
-5.52
-6.03
-6.4
-6.72
-7.04
-7.31
-7.44
-7.44
-7.39
-7.36
-7.23
-7.07
-6.96
-6.85
-6.75
-6.64
-6.45
-6.35
-6.24
-6.13
-6.03
-5.92
-5.81
-5.76
-5.68
-5.65
-5.55
-5.52
-5.44
-5.39
-5.36
-5.33
-5.23
-5.04
-4.59
-3.73
-1.52
0.93
3.12
4.88
6.37
7.17
7.92
7.73
7.47
7.12
6.51
5.71
5.04
4.4
3.76
3.12
2.05
1.15
0.4
-0.43
-1.23
-2.32
-3.39
-4.08
-4.72
-5.33
-5.92
-6.56
-6.85
-7.07
-7.28
-7.36
-7.36
-7.36
-7.25
-7.15
-7.04
-6.91
-6.75
-6.56
-6.45
-6.35
-6.24
-6.13
-6.03
-6
-5.89
-5.79
-5.68
-5.65
-5.6
-5.52
-5.49
-5.39
-5.36
-5.28
-5.23
-5.12
-4.45
-3.44
-2.08
-0.05
2.03
4.16
5.65
7.15
7.68
7.79
7.41
6.96
6.43
5.89
5.36
4.64
3.68
2.96
2.29
1.55
0.8
-0.37
-1.39
-2.16
-3.65
-4.72
-5.52
-6.19
-6.56
-6.88
-7.09
-7.25
-7.36
-7.36
-7.31
-7.2
-7.09
-6.93
-6.8
-6.61
-6.51
-6.4
-6.27
-6.11
-6
-5.97
-5.87
-5.76
-5.68
-5.63
-5.6
-5.52
-5.47
-5.36
-5.33
-5.28
-5.2
-5.12
-4.8
-4.16
-3.12
-1.52
0.48
3.49
5.63
6.88
7.41
7.68
7.52
7.33
6.91
6.4
5.84
5.09
4.24
3.6
2.91
2.24
1.52
0.77
0
-0.83
-1.57
-2.64
-3.89
-4.75
-5.28
-5.79
-6.21
-6.64
-6.93
-7.09
-7.2
-7.2
-7.15
-6.96
-6.85
-6.75
-6.64
-6.53
-6.37
-6.24
-6.13
-6.03
-6
-5.89
-5.84
-5.76
-5.65
-5.6
-5.52
-5.44
-5.39
-5.36
-5.28
-5.28
-5.2
-5.09
-4.88
-4.56
-3.36
-1.12
1.12
3.25
5.12
6.4
7.36
7.84
7.84
7.52
7.15
6.48
5.76
5.17
4.56
4
3.15
2.16
1.44
0.75
0
-0.85
-2.03
-2.88
-3.55
-4.24
-4.88
-5.63
-6.16
-6.48
-6.69
-6.91
-7.04
-7.04
-7.04
-6.96
-6.85
-6.69
-6.48
-6.37
-6.27
-6.16
-6.13
-5.97
-5.92
-5.84
-5.79
-5.76
-5.65
-5.6
-5.52
-5.49
-5.44
-5.36
-5.28
-5.23
-5.2
-5.2
-5.2
-5.12
-4.99
-4.61
-4
-2.35
0.48
2.8
4.83
6.27
7.12
7.65
7.81
7.6
7.2
6.77
6
5.28
4.69
4.08
3.44
2.64
1.68
0.93
0.19
-0.56
-1.41
-2.53
-3.36
-4
-4.64
-5.2
-5.84
-6.32
-6.64
-6.83
-6.93
-7.04
-7.04
-6.99
-6.88
-6.8
-6.75
-6.56
-6.45
-6.4
-6.32
-6.21
-6.11
-6.08
-6
-5.95
-5.92
-5.81
-5.76
-5.76
-5.73
-5.68
-5.68
-5.6
-5.55
-5.52
-5.52
-5.52
-5.44
-5.41
-5.2
-4.88
-3.68
-1.44
0.8
2.93
4.8
6.08
7.04
7.47
7.44
7.12
6.75
6.08
5.36
4.77
4.16
3.52
2.72
1.76
1.01
0.27
-0.48
-1.33
-2.51
-3.36
-4.08
-4.72
-5.84
-6.77
-7.31
-7.52
-7.63
-7.68
-7.68
-7.65
-7.55
-7.44
-7.25
-7.09
-6.88
-6.77
-6.67
-6.48
-6.45
-6.29
-6.16
-6.08
-6.03
-6
-5.89
-5.84
-5.76
-5.73
-5.68
-5.6
-5.52
-5.47
-5.44
-5.44
-5.39
-5.36
-5.04
-4.45
-3.6
-1.68
1.25
3.36
5.07
6.19
6.8
7.04
7.04
6.8
6.29
5.81
5.04
4.24
3.6
2.96
2.29
1.39
0.32
-0.43
-1.23
-2
-2.85
-3.97
-4.72
-5.25
-5.79
-6.24
-6.77
-7.15
-7.28
-7.39
-7.49
-7.52
-7.44
-7.39
-7.28
-7.17
-7.01
-6.8
-6.69
-6.59
-6.48
-6.37
-6.21
-6.08
-6
-5.95
-5.92
-5.79
-5.68
-5.6
-5.57
-5.52
-5.52
-5.44
-5.39
-5.36
-5.28
-5.07
-4.64
-3.68
-2.35
-0.56
1.76
4.69
6.24
7.15
7.57
7.6
7.52
7.2
6.72
5.97
5.28
4.4
3.52
2.88
2.16
1.41
0.45
-0.64
-1.47
-2.21
-2.96
-3.76
-4.72
-5.36
-5.87
-6.29
-6.64
-6.96
-7.17
-7.28
-7.36
-7.36
-7.28
-7.17
-7.07
-6.96
-6.85
-6.75
-6.56
-6.45
-6.35
-6.24
-6.13
-6.03
-5.92
-5.84
-5.79
-5.76
-5.65
-5.6
-5.52
-5.49
-5.44
-5.36
-5.28
-5.28
-5.28
-5.17
-4.85
-4.24
-3.04
-1.39
0.64
2.93
5.71
7.04
7.73
7.95
7.84
7.41
6.93
6.4
5.87
5.28
4.4
3.49
2.8
2.08
1.39
0.37
-0.8
-1.63
-2.37
-3.12
-3.92
-4.88
-5.52
-5.95
-6.37
-6.72
-7.04
-7.25
-7.36
-7.36
-7.36
-7.28
-7.17
-7.07
-6.96
-6.77
-6.67
-6.48
-6.37
-6.27
-6.16
-6.05
-5.95
-5.84
-5.76
-5.71
-5.68
-5.57
-5.52
-5.44
-5.41
-5.36
-5.36
-5.28
-5.23
-5.12
-4.96
-4.21
-2.96
-1.15
0.88
3.12
4.96
6.88
7.6
7.89
7.84
7.52
6.91
6.32
5.76
5.15
4.56
3.68
2.77
2.08
1.36
0.59
-0.21
-1.04
-2.21
-3.17
-3.84
-4.69
-6.19
-6.8
-7.09
-7.25
-7.36
-7.47
-7.52
-7.44
-7.41
-7.31
-7.12
-7.01
-6.85
-6.72
-6.53
-6.43
-6.24
-6.13
-6.08
-6
-5.89
-5.79
-5.68
-5.6
-5.55
-5.52
-5.41
-5.36
-5.28
-5.25
-5.2
-5.12
-4.96
-4.64
-3.92
-2.85
-0.51
2.56
4.48
5.97
7.12
7.49
7.76
7.6
7.33
6.91
6.4
5.47
4.72
4.16
3.52
2.83
1.84
0.93
0.19
-0.64
-1.39
-2.35
-3.44
-4.08
-4.72
-5.28
-5.76
-6.35
-6.64
-6.85
-7.01
-7.12
-7.12
-7.12
-7.04
-6.93
-6.83
-6.72
-6.53
-6.37
-6.24
-6.16
-6.11
-5.92
-5.89
-5.79
-5.68
-5.65
-5.55
-5.52
-5.44
-5.39
-5.36
-5.25
-5.2
-5.12
-5.12
-5.07
-4.8
-4.35
-3.49
-2
-0.16
2.51
5.6
6.69
7.49
8
7.92
7.65
7.28
6.83
6.29
5.68
4.75
4
3.44
2.72
2.03
1.04
0.05
-0.69
-1.52
-2.27
-3.17
-4.16
-4.77
-5.31
-5.76
-6.19
-6.61
-6.88
-6.99
-7.04
-7.04
-7.01
-6.91
-6.8
-6.69
-6.59
-6.48
-6.29
-6.19
-6.08
-5.97
-5.87
-5.76
-5.73
-5.63
-5.52
-5.49
-5.39
-5.36
-5.28
-5.28
-5.28
-5.17
-5.12
-5.12
-5.09
-5.04
-4.96
-4.67
-4.13
-3.04
-1.47
1.2
4.4
5.92
7.04
7.76
7.81
7.76
7.44
7.07
6.59
6
5.15
4.4
3.76
3.12
2.48
1.52
0.61
-0.13
-0.96
-1.71
-2.61
-3.68
-4.29
-4.83
-5.36
-5.81
-6.35
-6.64
-6.83
-6.93
-6.96
-6.96
-6.91
-6.8
-6.77
-6.67
-6.56
-6.4
-6.35
-6.24
-6.16
-6.11
-6
-5.97
-5.92
-5.84
-5.81
-5.71
-5.68
-5.68
-5.63
-5.6
-5.57
-5.52
-5.52
-5.49
-5.44
-5.44
-5.41
-5.25
-4.8
-4.08
-2.05
0.72
2.88
4.75
6.24
6.93
7.47
7.44
7.25
6.88
6.4
5.92
5.17
4.32
3.68
3.04
2.08
1.17
0.48
-0.24
-1.01
-2.03
-3.12
-3.84
-4.85
-6.16
-6.56
-6.88
-7.28
-7.55
-7.6
-7.68
-7.65
-7.55
-7.44
-7.31
-7.15
-6.96
-6.77
-6.67
-6.56
-6.4
-6.35
-6.16
-6.05
-6
-5.92
-5.89
-5.79
-5.76
-5.68
-5.63
-5.6
-5.49
-5.44
-5.44
-5.41
-5.36
-5.36
-5.33
-5.17
-4.72
-4.03
-2.21
0.32
2.37
4.19
5.76
6.48
7.12
7.2
7.01
6.64
6.16
5.63
4.93
4.08
3.44
2.75
1.76
0.85
0.11
-0.72
-1.47
-2.21
-2.96
-4
-4.8
-5.36
-5.87
-6.29
-6.72
-7.09
-7.31
-7.44
-7.52
-7.52
-7.44
-7.33
-7.23
-7.12
-6.93
-6.83
-6.72
-6.53
-6.43
-6.24
-6.21
-6.11
-6
-5.97
-5.81
-5.76
-5.68
-5.63
-5.6
-5.49
-5.44
-5.36
-5.36
-5.36
-5.28
-5.07
-4.48
-3.44
-2
0.51
3.68
5.28
6.51
7.36
7.52
7.52
7.2
6.83
6.35
5.84
5.28
4.48
3.52
2.88
2.19
1.12
0.13
-0.61
-1.44
-2.19
-3.09
-4.16
-4.8
-5.39
-5.84
-6.27
-6.64
-6.96
-7.23
-7.28
-7.36
-7.36
-7.31
-7.2
-7.09
-6.99
-6.88
-6.69
-6.59
-6.48
-6.37
-6.27
-6.16
-6.05
-5.95
-5.84
-5.81
-5.71
-5.68
-5.6
-5.55
-5.52
-5.41
-5.36
-5.36
-5.33
-5.17
-4.96
-4.13
-2.43
-0.48
1.65
4
6.56
7.31
7.73
7.92
7.63
7.15
6.64
6.16
5.57
4.96
4.32
3.52
2.56
1.81
1.07
0
-1.09
-1.89
-2.64
-3.39
-4.24
-5.12
-5.65
-6.13
-6.48
-6.77
-6.99
-7.2
-7.28
-7.28
-7.28
-7.17
-7.07
-6.96
-6.85
-6.75
-6.64
-6.45
-6.35
-6.24
-6.13
-6.03
-6
-5.89
-5.79
-5.68
-5.65
-5.55
-5.52
-5.44
-5.39
-5.36
-5.33
-5.23
-5.12
-4.69
-4
-2.96
-0.83
2.32
4.4
6
6.91
7.76
7.68
7.52
7.2
6.61
5.87
5.2
4.64
4
3.36
2.69
1.79
0.72
-0.03
-0.83
-1.92
-2.91
-3.65
-4.32
-5.09
-6.11
-6.96
-7.17
-7.33
-7.44
-7.44
-7.44
-7.36
-7.25
-7.15
-7.04
-6.83
-6.67
-6.56
-6.45
-6.35
-6.24
-6.13
-6.03
-6
-5.92
-5.87
-5.76
-5.65
-5.6
-5.52
-5.49
-5.39
-5.36
-5.25
-5.15
-4.88
-3.89
-2.56
-0.88
1.28
3.31
5.2
6.35
7.47
7.76
7.68
7.25
6.72
6.19
5.6
5.04
4.32
3.41
2.72
2.05
1.31
0.56
-0.19
-1.15
-2.32
-3.04
-3.73
-4.56
-5.33
-5.81
-6.24
-6.53
-6.8
-7.04
-7.12
-7.12
-7.12
-7.09
-6.99
-6.88
-6.69
-6.59
-6.48
-6.35
-6.19
-6.08
-6.05
-5.95
-5.84
-5.76
-5.71
-5.68
-5.6
-5.55
-5.52
-5.41
-5.36
-5.28
-5.25
-5.15
-5.04
-4.75
-4.16
-3.04
-0.24
2.27
4.4
5.89
6.96
7.68
7.73
7.68
7.36
6.99
6.35
5.6
4.99
4.4
3.76
3.04
2.08
1.28
0.59
-0.21
-0.96
-1.71
-2.67
-3.76
-4.37
-4.91
-5.6
-6.16
-6.48
-6.72
-6.91
-7.01
-7.04
-7.01
-6.91
-6.8
-6.69
-6.59
-6.48
-6.29
-6.19
-6.16
-6.03
-5.92
-5.84
-5.81
-5.76
-5.68
-5.6
-5.55
-5.52
-5.44
-5.39
-5.36
-5.25
-5.2
-5.2
-5.15
-4.88
-4.32
-3.49
-2.11
-0.16
3.04
5.33
6.72
7.36
7.73
7.84
7.55
7.07
6.56
6.11
5.41
4.56
3.92
3.28
2.64
1.89
0.88
0.08
-0.67
-1.41
-2.16
-2.91
-3.76
-4.72
-5.25
-5.73
-6.24
-6.61
-6.77
-6.88
-6.96
-6.96
-6.88
-6.77
-6.67
-6.56
-6.45
-6.35
-6.24
-6.08
-6.03
-6
-5.89
-5.84
-5.84
-5.81
-5.76
-5.76
-5.68
-5.63
-5.6
-5.6
-5.55
-5.52
-5.52
-5.52
-5.44
-5.41
-5.31
-4.96
-4.37
-3.25
-1.44
1.76
4.16
5.84
6.69
7.23
7.52
7.33
6.96
6.48
6.03
5.33
4.48
3.84
3.2
2.56
1.81
0.8
0
-0.77
-1.57
-2.32
-3.07
-3.97
-4.96
-5.49
-5.97
-6.88
-7.63
-7.73
-7.76
-7.76
-7.71
-7.6
-7.47
-7.31
-7.2
-7.07
-6.91
-6.72
-6.53
-6.43
-6.4
-6.27
-6.16
-6.08
-5.97
-5.92
-5.84
-5.73
-5.63
-5.6
-5.6
-5.55
-5.52
-5.49
-5.44
-5.36
-5.17
-4.75
-3.92
-2.67
-0.85
1.2
3.97
5.84
6.88
7.2
7.31
7.28
6.88
6.24
5.6
5.04
4.24
3.36
2.64
1.95
1.28
0.43
-0.69
-1.6
-2.35
-3.09
-3.84
-4.48
-5.23
-6
-6.43
-6.8
-7.12
-7.39
-7.49
-7.6
-7.6
-7.55
-7.36
-7.25
-7.15
-6.96
-6.83
-6.67
-6.56
-6.37
-6.27
-6.16
-6.03
-5.87
-5.76
-5.73
-5.68
-5.6
-5.52
-5.47
-5.44
-5.36
-5.36
-5.36
-5.33
-5.23
-5.12
-4.37
-2.93
-1.12
0.83
2.91
4.64
6.24
7.15
7.44
7.33
7.07
6.72
6.11
5.31
4.64
4
3.2
2.24
1.52
0.77
0
-0.75
-1.55
-2.64
-3.63
-4.32
-4.96
-5.49
-6.08
-6.64
-6.93
-7.15
-7.36
-7.44
-7.44
-7.44
-7.33
-7.23
-7.04
-6.93
-6.83
-6.72
-6.61
-6.51
-6.4
-6.24
-6.19
-6.08
-5.97
-5.92
-5.84
-5.81
-5.76
-5.68
-5.6
-5.55
-5.52
-5.44
-5.39
-5.36
-5.23
-4.85
-4.32
-2.77
-0.11
2.16
4.24
5.89
6.96
7.65
7.92
7.84
7.41
6.93
6.48
5.79
4.93
4.24
3.6
2.75
1.68
0.93
0.13
-0.64
-1.57
-2.69
-3.52
-4.24
-4.88
-5.44
-5.95
-6.43
-6.88
-7.09
-7.25
-7.36
-7.36
-7.31
-7.28
-7.17
-7.07
-6.88
-6.75
-6.59
-6.48
-6.37
-6.27
-6.16
-6.05
-5.95
-5.92
-5.81
-5.76
-5.68
-5.57
-5.52
-5.44
-5.36
-5.36
-5.36
-5.28
-5.23
-5.04
-4.29
-3.28
-1.92
0.4
3.6
5.44
6.75
7.49
7.76
7.65
7.39
7.04
6.51
5.92
5.36
4.64
3.68
2.96
2.29
1.33
0.24
-0.59
-1.33
-2.08
-2.91
-3.97
-4.72
-5.33
-5.81
-6.24
-6.56
-7.09
-7.76
-7.76
-7.71
-7.6
-7.41
-7.31
-7.2
-7.01
-6.85
-6.64
-6.53
-6.43
-6.32
-6.21
-6.11
-6
-5.89
-5.79
-5.76
-5.65
-5.6
-5.52
-5.49
-5.44
-5.36
-5.25
-5.15
-4.88
-4.32
-3.31
-1.68
1.41
3.87
5.68
6.64
7.6
7.76
7.68
7.36
6.96
6.21
5.52
4.96
4.32
3.68
3.04
2.21
1.2
0.32
-0.43
-1.39
-2.56
-3.28
-3.92
-4.56
-5.23
-5.92
-6.32
-6.64
-6.91
-7.04
-7.15
-7.2
-7.12
-7.09
-6.99
-6.88
-6.77
-6.61
-6.48
-6.37
-6.27
-6.08
-6.05
-5.95
-5.84
-5.81
-5.76
-5.68
-5.52
-5.47
-5.44
-5.36
-5.31
-5.2
-5.2
-5.15
-4.96
-4.56
-3.87
-2.56
-0.83
1.31
3.36
5.71
7.15
7.76
7.79
7.63
7.28
6.83
6.35
5.76
4.91
4.16
3.52
2.88
2.19
1.52
0.67
-0.45
-1.28
-2.03
-2.93
-4
-4.61
-5.15
-5.68
-6.11
-6.53
-6.8
-6.91
-7.01
-7.04
-7.04
-6.99
-6.8
-6.69
-6.59
-6.48
-6.29
-6.19
-6.08
-6
-5.95
-5.76
-5.73
-5.68
-5.6
-5.57
-5.47
-5.36
-5.33
-5.23
-5.2
-5.17
-5.12
-5.12
-5.09
-4.99
-4.64
-4.05
-2.99
-1.36
0.64
2.88
4.72
6.53
7.55
7.84
7.68
7.36
6.88
6.43
5.89
5.28
4.43
3.68
3.04
2.4
1.71
1.04
0.29
-0.45
-1.52
-2.51
-3.36
-4.32
-4.93
-5.41
-5.84
-6.27
-6.64
-6.88
-6.96
-6.96
-6.96
-6.93
-6.83
-6.64
-6.53
-6.43
-6.32
-6.13
-6.03
-6
-5.89
-5.79
-5.68
-5.65
-5.6
-5.52
-5.49
-5.44
-5.44
-5.36
-5.31
-5.28
-5.28
-5.28
-5.28
-5.28
-5.28
-5.12
-4.8
-4.16
-2.96
-1.31
0.83
2.88
5.25
6.8
7.44
7.39
7.23
6.88
6.51
5.97
5.36
4.51
3.76
3.2
2.56
1.87
1.2
0.37
-0.69
-1.52
-2.27
-3.17
-4.24
-4.88
-5.47
-6
-6.45
-6.93
-7.2
-7.39
-7.44
-7.68
-7.81
-7.65
-7.44
-7.31
-7.15
-6.96
-6.77
-6.61
-6.48
-6.4
-6.35
-6.16
-6.05
-6
-5.92
-5.89
-5.84
-5.76
-5.6
-5.6
-5.6
-5.49
-5.44
-5.44
-5.44
-5.44
-5.28
-4.88
-4.24
-3.04
-1.41
0.61
2.56
4.91
6.4
7.04
7.07
6.91
6.56
6.11
5.63
5.12
4.19
3.44
2.88
2.16
1.47
0.8
-0.05
-1.23
-2.08
-2.83
-3.73
-4.72
-5.33
-5.81
-6.24
-6.67
-7.09
-7.36
-7.47
-7.52
-7.52
-7.52
-7.47
-7.28
-7.17
-7.07
-6.88
-6.69
-6.53
-6.4
-6.29
-6.19
-6
-5.97
-5.87
-5.76
-5.73
-5.63
-5.52
-5.44
-5.39
-5.36
-5.33
-5.28
-5.2
-5.17
-5.07
-4.56
-3.79
-2.56
-0.8
1.23
3.31
4.96
6.56
7.41
7.6
7.33
6.91
6.4
5.92
5.33
4.72
3.79
3.04
2.4
1.65
0.91
0.16
-0.67
-1.47
-2.56
-3.55
-4.24
-4.88
-5.63
-6.21
-6.64
-6.96
-7.23
-7.36
-7.47
-7.52
-7.52
-7.44
-7.39
-7.2
-7.07
-6.91
-6.72
-6.53
-6.43
-6.32
-6.24
-6.19
-6
-5.89
-5.84
-5.76
-5.73
-5.63
-5.52
-5.44
-5.39
-5.36
-5.33
-5.28
-5.28
-5.25
-5.15
-4.64
-3.76
-2.48
-0.64
1.41
3.6
5.28
6.88
7.79
8
7.71
7.23
6.72
6.24
5.65
5.04
4.08
3.23
2.56
1.84
1.15
0.4
-0.43
-1.23
-2.32
-3.31
-4.16
-5.04
-5.57
-6.05
-6.4
-6.72
-7.04
-7.2
-7.31
-7.36
-7.36
-7.28
-7.23
-7.12
-6.99
-6.83
-6.64
-6.45
-6.35
-6.24
-6.13
-6.03
-5.92
-5.81
-5.76
-5.68
-5.65
-5.6
-5.52
-5.44
-5.39
-5.36
-5.33
-5.28
-5.28
-5.25
-5.15
-4.64
-3.87
-2.64
-0.8
1.25
3.39
5.12
6.72
7.63
7.84
7.65
7.23
6.72
6.19
5.65
5.04
4.08
3.28
2.64
1.92
1.23
0.48
-0.35
-1.15
-2.24
-3.23
-4.08
-5.04
-5.55
-5.97
-6.4
-6.72
-7.15
-7.52
-7.68
-7.63
-7.6
-7.49
-7.33
-7.12
-6.99
-6.83
-6.64
-6.45
-6.35
-6.24
-6.16
-6.11
-5.92
-5.89
-5.84
-5.76
-5.65
-5.6
-5.52
-5.44
-5.44
-5.44
-5.33
-5.28
-5.2
-5.09
-4.88
-3.92
-2.51
-0.69
1.44
3.57
5.39
6.56
7.44
7.87
7.84
7.44
6.85
6.32
5.76
5.17
4.56
3.6
2.75
2.08
1.36
0.61
-0.16
-1.01
-2.19
-3.04
-3.68
-4.43
-5.28
-5.79
-6.16
-6.48
-6.77
-6.99
-7.12
-7.2
-7.2
-7.12
-7.04
-6.99
-6.8
-6.67
-6.51
-6.4
-6.21
-6.11
-6.08
-5.97
-5.87
-5.76
-5.65
-5.6
-5.52
-5.49
-5.44
-5.36
-5.28
-5.23
-5.2
-5.17
-5.12
-5.04
-4.93
-4.67
-4.16
-2.64
-0.03
2.24
4.32
5.97
7.04
7.71
8.03
7.92
7.44
6.8
6.24
5.68
5.09
4.48
3.52
2.72
2.08
1.33
0.59
-0.16
-1.01
-2.19
-3.04
-3.68
-4.43
-5.28
-5.79
-6.16
-6.48
-6.69
-6.91
-7.04
-7.04
-7.04
-7.04
-6.93
-6.83
-6.64
-6.51
-6.35
-6.24
-6.08
-6.03
-5.92
-5.84
-5.79
-5.6
-5.57
-5.52
-5.44
-5.41
-5.36
-5.28
-5.2
-5.2
-5.2
-5.17
-5.12
-5.04
-4.91
-4.59
-3.44
-1.84
0.13
2.24
4.32
5.92
6.96
7.6
7.87
7.76
7.44
7.01
6.56
5.95
5.09
4.4
3.47
2.67
2
1.28
0.59
-0.08
-1.01
-2.13
-2.96
-3.6
-4.35
-5.2
-5.71
-6.08
-6.4
-6.64
-6.91
-6.96
-6.96
-6.96
-6.96
-6.85
-6.69
-6.48
-6.37
-6.27
-6.16
-6
-5.95
-5.92
-5.84
-5.79
-5.68
-5.65
-5.6
-5.52
-5.52
-5.52
-5.52
-5.44
-5.44
-5.44
-5.41
-5.36
-5.36
-5.36
-5.31
-4.8
-4
-2.72
-0.88
1.25
3.44
5.12
6.61
7.41
7.6
7.33
6.91
6.4
5.95
5.41
4.8
3.87
3.12
2.48
1.76
1.07
0.4
-0.45
-1.57
-2.4
-3.15
-4
-4.96
-6.13
-6.88
-7.2
-7.41
-7.57
-7.68
-7.68
-7.63
-7.52
-7.41
-7.25
-7.04
-6.93
-6.83
-6.64
-6.45
-6.35
-6.32
-6.21
-6.11
-6
-5.97
-5.92
-5.84
-5.81
-5.76
-5.68
-5.6
-5.55
-5.52
-5.49
-5.44
-5.44
-5.33
-5.17
-4.4
-3.2
-1.6
0.32
2.37
4.24
5.52
6.59
7.12
7.2
6.83
6.29
5.76
5.2
4.61
4
3.07
2.27
1.6
0.85
0.11
-0.64
-1.49
-2.67
-3.52
-4.16
-4.91
-5.76
-6.19
-6.56
-6.88
-7.12
-7.39
-7.52
-7.52
-7.52
-7.44
-7.36
-7.31
-7.12
-6.99
-6.83
-6.72
-6.53
-6.43
-6.32
-6.24
-6.19
-6
-5.97
-5.92
-5.84
-5.73
-5.68
-5.6
-5.52
-5.52
-5.52
-5.41
-5.31
-5.12
-4.56
-3.6
-1.28
1.23
3.31
4.96
6.27
7.07
7.44
7.36
7.15
6.8
6.19
5.39
4.72
4.16
3.52
2.88
1.81
0.91
0.16
-0.67
-1.41
-2.16
-2.99
-4.05
-4.8
-5.33
-5.92
-6.56
-6.85
-7.07
-7.2
-7.31
-7.36
-7.36
-7.33
-7.23
-7.12
-7.01
-6.91
-6.72
-6.61
-6.51
-6.4
-6.29
-6.19
-6.16
-6.05
-5.95
-5.92
-5.81
-5.71
-5.6
-5.57
-5.52
-5.52
-5.44
-5.39
-5.2
-4.53
-3.52
-2.16
-0.11
2.03
4.48
6.59
7.33
7.68
7.79
7.63
7.28
6.64
6
5.44
4.72
3.81
3.04
2.37
1.68
0.88
0.11
-0.69
-1.44
-2.61
-3.52
-4.16
-4.85
-5.65
-6.16
-6.56
-6.88
-7.12
-7.23
-7.28
-7.28
-7.25
-7.15
-7.04
-6.93
-6.83
-6.72
-6.61
-6.51
-6.4
-6.29
-6.19
-6.08
-6
-5.95
-5.92
-5.81
-5.71
-5.6
-5.57
-5.52
-5.52
-5.49
-5.39
-5.04
-4.4
-3.39
-1.76
0.13
2.32
4.16
6.11
7.33
7.52
7.6
7.33
6.88
6.43
5.89
5.28
4.43
3.63
2.96
2.21
1.15
0.24
-0.53
-1.33
-2.08
-3.23
-4.08
-4.72
-5.33
-5.81
-6.24
-6.59
-6.96
-7.44
-7.73
-7.63
-7.6
-7.39
-7.23
-7.12
-6.99
-6.77
-6.64
-6.53
-6.43
-6.32
-6.24
-6.19
-6.08
-5.97
-5.92
-5.84
-5.76
-5.71
-5.68
-5.6
-5.55
-5.44
-5.2
-4.72
-4.08
-2.67
-0.85
2
4.67
6.05
6.88
7.41
7.57
7.36
6.96
6.53
5.84
5.12
4.53
3.92
3.28
2.64
1.92
0.85
-0.11
-0.88
-1.63
-2.37
-3.36
-4.32
-4.91
-5.44
-6.08
-6.56
-6.8
-6.99
-7.09
-7.12
-7.12
-7.07
-6.96
-6.85
-6.75
-6.56
-6.45
-6.35
-6.24
-6.13
-6.03
-6
-5.92
-5.87
-5.84
-5.76
-5.71
-5.6
-5.57
-5.52
-5.44
-5.36
-5.31
-5.28
-5.12
-4.8
-4.16
-2.11
0.03
2.24
4.16
5.71
6.88
7.76
7.76
7.6
7.33
6.75
6.08
5.47
4.88
4.32
3.6
2.69
1.92
1.25
0.51
-0.32
-1.47
-2.37
-3.12
-3.84
-4.48
-5.2
-5.87
-6.24
-6.56
-6.77
-6.93
-7.04
-7.04
-7.04
-6.96
-6.83
-6.61
-6.48
-6.37
-6.27
-6.16
-6.05
-6
-5.92
-5.89
-5.84
-5.76
-5.68
-5.63
-5.6
-5.52
-5.47
-5.36
-5.33
-5.28
-5.2
-5.2
-5.15
-5.04
-4.85
-4.37
-3.44
-0.85
1.55
3.76
5.39
6.67
7.36
7.89
7.79
7.52
7.15
6.51
5.76
5.15
4.56
3.92
3.2
2.24
1.44
0.77
0.03
-0.72
-1.87
-2.77
-3.44
-4.08
-4.72
-5.44
-6
-6.32
-6.56
-6.75
-6.85
-6.96
-6.93
-6.83
-6.72
-6.61
-6.45
-6.32
-6.21
-6.11
-6.08
-5.95
-5.84
-5.76
-5.73
-5.68
-5.6
-5.57
-5.47
-5.44
-5.36
-5.36
-5.28
-5.25
-5.2
-5.12
-5.12
-5.12
-5.12
-5.09
-4.99
-4.64
-3.12
-1.31
0.72
2.88
4.75
6.16
7.31
7.47
7.36
7.17
6.64
6
5.39
4.8
4.24
3.52
2.56
1.84
1.17
0.48
-0.24
-0.99
-1.89
-2.96
-3.71
-4.4
-5.2
-5.87
-6.29
-6.64
-6.93
-7.15
-7.36
-7.44
-7.49
-7.6
-7.47
-7.25
-7.12
-6.93
-6.77
-6.64
-6.51
-6.35
-6.24
-6.21
-6.11
-6
-5.92
-5.87
-5.84
-5.76
-5.71
-5.6
-5.57
-5.52
-5.52
-5.52
-5.47
-5.44
-5.33
-5.23
-4.88
-3.47
-1.76
0.16
2.21
4.03
5.6
6.93
7.15
7.04
6.88
6.4
5.76
5.15
4.56
4
3.28
2.37
1.6
0.93
0.19
-0.56
-1.31
-2.27
-3.36
-4.08
-4.72
-5.44
-6.11
-6.53
-6.88
-7.09
-7.31
-7.44
-7.44
-7.44
-7.36
-7.25
-7.09
-6.96
-6.77
-6.67
-6.56
-6.43
-6.27
-6.16
-6.05
-6
-5.92
-5.76
-5.71
-5.68
-5.6
-5.55
-5.44
-5.41
-5.36
-5.36
-5.36
-5.31
-5.2
-4.93
-4.45
-3.52
-1.07
1.23
3.36
4.96
6.19
6.88
7.39
7.23
6.88
6.51
5.87
5.12
4.51
3.92
3.28
2.53
1.52
0.72
-0.03
-0.77
-1.6
-2.67
-3.57
-4.24
-4.85
-5.39
-6
-6.56
-6.83
-7.04
-7.15
-7.25
-7.36
-7.33
-7.23
-7.12
-7.01
-6.85
-6.72
-6.61
-6.51
-6.4
-6.27
-6.11
-6
-5.97
-5.87
-5.76
-5.68
-5.63
-5.6
-5.52
-5.47
-5.36
-5.33
-5.28
-5.2
-4.83
-3.97
-2.64
-0.99
1.15
3.12
5.47
6.91
7.44
7.47
7.41
6.96
6.43
5.89
5.36
4.8
4
3.12
2.4
1.71
1.04
0.29
-0.51
-1.6
-2.59
-3.33
-4.08
-4.93
-5.63
-6.08
-6.48
-6.75
-7.04
-7.23
-7.28
-7.28
-7.2
-7.15
-6.96
-6.85
-6.75
-6.64
-6.53
-6.37
-6.24
-6.13
-6.03
-6
-5.89
-5.79
-5.68
-5.65
-5.6
-5.52
-5.44
-5.39
-5.36
-5.36
-5.31
-5.12
-4.8
-4.21
-3.28
-1.23
1.87
4
5.63
6.75
7.28
7.41
7.36
7.12
6.61
6.13
5.36
4.56
3.97
3.36
2.72
1.87
0.8
0.05
-0.75
-1.52
-2.37
-3.49
-4.24
-4.85
-5.39
-5.92
-6.45
-6.83
-7.04
-7.15
-7.25
-7.28
-7.17
-7.07
-6.96
-6.85
-6.75
-6.72
-6.61
-6.51
-6.4
-6.29
-6.19
-6.08
-6
-5.95
-5.84
-5.73
-5.68
-5.6
-5.57
-5.52
-5.44
-5.33
-5.23
-4.88
-4.29
-2.53
-0.08
2.05
3.97
5.68
6.51
7.31
7.44
7.28
6.96
6.56
5.81
5.12
4.56
3.95
3.36
2.48
1.57
0.83
0.08
-0.69
-1.71
-2.8
-3.52
-4.16
-4.8
-5.39
-6.08
-6.48
-6.77
-6.99
-7.12
-7.2
-7.15
-7.04
-7.01
-6.91
-6.72
-6.53
-6.43
-6.32
-6.21
-6.11
-6
-5.89
-5.84
-5.76
-5.73
-5.63
-5.6
-5.52
-5.47
-5.44
-5.33
-5.28
-5.2
-5.09
-4.88
-3.92
-2.61
-0.85
1.2
3.33
5.15
7.04
7.39
7.55
7.52
7.15
6.61
6.08
5.52
4.93
4.32
3.47
2.67
2
1.28
0.59
-0.16
-1.01
-2.13
-2.96
-3.68
-4.43
-5.28
-5.79
-6.16
-6.48
-6.72
-6.99
-7.04
-7.04
-6.99
-6.96
-6.75
-6.59
-6.48
-6.37
-6.27
-6.16
-6
-5.95
-5.92
-5.84
-5.79
-5.68
-5.65
-5.6
-5.52
-5.49
-5.39
-5.36
-5.28
-5.23
-5.2
-5.17
-5.07
-4.88
-4.32
-3.31
-0.88
1.81
3.95
5.52
6.72
7.25
7.68
7.49
7.23
6.88
6.27
5.47
4.8
4.24
3.65
3.04
2.08
1.23
0.56
-0.19
-0.93
-2
-2.99
-3.68
-4.32
-4.93
-5.52
-6.16
-6.48
-6.75
-6.88
-6.96
-6.96
-6.96
-6.85
-6.75
-6.64
-6.43
-6.27
-6.16
-6.05
-6
-5.92
-5.84
-5.79
-5.68
-5.6
-5.6
-5.52
-5.49
-5.44
-5.36
-5.33
-5.23
-5.2
-5.2
-5.15
-5.12
-4.99
-4.61
-4.08
-2.77
-1.07
1.76
4.51
5.95
6.8
7.39
7.39
7.28
6.88
6.45
6
5.31
4.45
3.76
3.12
2.53
1.84
0.8
-0.05
-0.8
-1.55
-2.29
-3.04
-3.84
-4.8
-5.44
-5.95
-6.43
-6.96
-7.15
-7.25
-7.36
-7.36
-7.31
-7.2
-7.09
-6.99
-6.88
-6.75
-6.59
-6.48
-6.37
-6.27
-6.16
-6.11
-6.21
-6.16
-6.08
-6.03
-5.92
-5.81
-5.76
-5.76
-5.73
-5.63
-5.6
-5.49
-5.39
-5.04
-3.55
-1.84
0.08
2.21
4.03
5.6
6.85
7.07
7.04
6.85
6.32
5.68
5.15
4.56
4
3.28
2.32
1.6
0.93
0.19
-0.56
-1.33
-2.29
-3.36
-4.08
-4.72
-5.52
-6.19
-6.61
-6.96
-7.17
-7.33
-7.44
-7.44
-7.44
-7.36
-7.25
-7.09
-6.96
-6.77
-6.67
-6.56
-6.43
-6.32
-6.24
-6.13
-6.08
-6
-5.92
-5.87
-5.76
-5.68
-5.63
-5.52
-5.52
-5.52
-5.44
-5.41
-5.31
-5.04
-4.59
-3.73
-2.32
0.59
2.99
4.88
5.97
6.77
7.04
7.12
6.85
6.4
5.95
5.25
4.4
3.79
3.2
2.56
1.73
0.67
-0.24
-0.99
-1.73
-2.56
-3.63
-4.48
-5.12
-5.65
-6.13
-6.64
-7.01
-7.23
-7.36
-7.44
-7.44
-7.36
-7.25
-7.15
-7.04
-6.93
-6.77
-6.64
-6.53
-6.43
-6.32
-6.21
-6.11
-6
-5.97
-5.92
-5.84
-5.68
-5.63
-5.6
-5.52
-5.52
-5.44
-5.41
-5.25
-5.04
-4.24
-2.64
-0.72
1.31
3.39
5.04
6.56
7.41
7.6
7.41
7.15
6.56
5.92
5.33
4.72
4.08
3.28
2.32
1.6
0.85
0.08
-0.75
-1.55
-2.64
-3.63
-4.32
-4.96
-5.71
-6.29
-6.64
-6.93
-7.15
-7.28
-7.36
-7.36
-7.36
-7.25
-7.09
-6.88
-6.77
-6.67
-6.56
-6.45
-6.29
-6.24
-6.13
-6.03
-6
-5.89
-5.79
-5.68
-5.65
-5.6
-5.52
-5.44
-5.44
-5.44
-5.33
-5.07
-4.64
-3.68
-2.35
-0.56
1.76
4.69
6.24
7.12
7.49
7.6
7.28
6.85
6.4
5.87
5.28
4.4
3.6
2.96
2.24
1.57
0.61
-0.48
-1.31
-2.11
-2.88
-3.68
-4.64
-5.36
-5.87
-6.29
-6.64
-7.04
-7.25
-7.36
-7.36
-7.36
-7.28
-7.09
-6.99
-6.88
-6.77
-6.61
-6.4
-6.37
-6.27
-6.16
-6.13
-5.97
-5.92
-5.84
-5.79
-5.76
-5.65
-5.6
-5.52
-5.63
-5.63
-5.44
-5.04
-4.4
-3.2
-1.65
0.91
4.08
5.49
6.61
7.36
7.41
7.31
6.96
6.51
6.03
5.52
4.67
3.92
3.28
2.64
1.95
0.88
-0.11
-0.85
-1.68
-2.43
-3.17
-3.92
-4.85
-5.55
-6.08
-6.51
-6.93
-7.2
-7.31
-7.36
-7.36
-7.23
-7.07
-6.96
-6.85
-6.75
-6.56
-6.37
-6.27
-6.16
-6.08
-6.03
-5.92
-5.81
-5.76
-5.68
-5.65
-5.55
-5.52
-5.44
-5.39
-5.36
-5.33
-5.28
-5.2
-4.99
-4.56
-3.04
-1.07
1.07
3.12
5.07
6.4
7.76
7.87
7.81
7.6
7.09
6.35
5.68
5.12
4.53
3.92
2.88
2.03
1.36
0.53
-0.21
-0.96
-1.87
-2.93
-3.76
-4.4
-5.09
-5.76
-6.16
-6.48
-6.72
-6.91
-7.01
-7.04
-7.01
-6.91
-6.88
-6.75
-6.59
-6.48
-6.45
-6.35
-6.24
-6.16
-6.11
-6.08
-5.97
-5.87
-5.76
-5.73
-5.68
-5.6
-5.57
-5.47
-5.44
-5.36
-5.31
-5.28
-4.96
-4.43
-3.68
-2.16
-0.29
2.56
5.25
6.48
7.2
7.6
7.49
7.36
6.93
6.45
6
5.31
4.45
3.76
3.2
2.56
1.84
0.77
-0.13
-0.88
-1.71
-2.45
-3.44
-4.4
-4.99
-5.52
-5.95
-6.37
-6.8
-6.99
-7.04
-7.04
-7.01
-6.91
-6.8
-6.69
-6.59
-6.48
-6.35
-6.19
-6.08
-6.05
-5.95
-5.84
-5.76
-5.71
-5.68
-5.6
-5.55
-5.44
-5.41
-5.36
-5.28
-5.28
-5.23
-5.2
-5.12
-5.12
-5.04
-4.72
-4.13
-3.2
-1.47
0.56
3.36
5.87
6.93
7.44
7.76
7.6
7.28
6.85
6.37
5.84
5.15
4.29
3.6
2.96
2.32
1.6
0.56
-0.29
-1.04
-1.87
-2.61
-3.6
-4.48
-5.07
-5.6
-6.03
-6.45
-6.8
-6.99
-7.09
-7.12
-7.12
-7.07
-6.96
-6.85
-6.75
-6.64
-6.51
-6.4
-6.32
-6.21
-6.16
-6.08
-6
-5.95
-5.92
-5.84
-5.79
-5.68
-5.65
-5.6
-5.52
-5.52
-5.47
-5.44
-5.36
-5.36
-5.44
-5.2
-4.56
-3.6
-1.87
0.16
2.4
4.24
6.21
6.96
7.28
7.12
6.8
6.29
5.81
5.28
4.64
3.73
3.04
2.4
1.76
1.04
-0.03
-0.99
-1.76
-2.51
-3.25
-4.24
-5.09
-5.63
-6.16
-6.56
-6.93
-7.28
-7.39
-7.49
-7.52
-7.49
-7.39
-7.28
-7.09
-6.93
-6.8
-6.59
-6.43
-6.32
-6.21
-6.11
-6
-5.89
-5.79
-5.76
-5.68
-5.63
-5.52
-5.49
-5.44
-5.36
-5.36
-5.31
-5.28
-5.28
-5.28
-5.28
-5.15
-4.83
-4.4
-3.33
-1.89
0.8
3.52
5.17
6.24
6.96
7.12
7.2
6.8
6.37
5.92
5.23
4.37
3.68
3.01
2.32
1.6
0.53
-0.37
-1.12
-1.95
-2.69
-3.68
-4.64
-5.23
-5.76
-6.19
-6.67
-7.12
-7.31
-7.41
-7.52
-7.52
-7.47
-7.36
-7.25
-7.09
-6.96
-6.75
-6.59
-6.4
-6.29
-6.19
-6.08
-5.89
-5.79
-5.76
-5.68
-5.63
-5.52
-5.49
-5.44
-5.36
-5.33
-5.23
-5.2
-5.2
-5.15
-5.04
-4.59
-3.79
-2.72
-0.88
1.15
3.76
6.05
6.96
7.44
7.65
7.39
6.96
6.45
5.97
5.44
4.72
3.76
3.04
2.37
1.68
0.88
-0.27
-1.23
-2
-2.75
-3.49
-4.4
-5.25
-5.79
-6.24
-6.64
-6.96
-7.28
-7.39
-7.44
-7.44
-7.41
-7.25
-7.12
-7.01
-6.85
-6.72
-6.51
-6.35
-6.16
-6.05
-5.95
-5.84
-5.68
-5.63
-5.6
-5.52
-5.47
-5.28
-5.25
-5.2
-5.2
-5.2
-5.15
-5.12
-5.01
-4.85
-4.48
-2.96
-1.2
0.8
2.85
4.67
6.24
7.49
7.71
7.6
7.41
6.83
6.16
5.63
5.04
4.4
3.68
2.72
1.92
1.25
0.51
-0.32
-1.09
-2.11
-3.2
-3.92
-4.56
-5.36
-6.03
-6.4
-6.72
-7.01
-7.17
-7.28
-7.28
-7.28
-7.2
-7.09
-6.93
-6.8
-6.61
-6.51
-6.4
-6.19
-6.03
-5.92
-5.81
-5.76
-5.68
-5.52
-5.47
-5.44
-5.36
-5.31
-5.2
-5.17
-5.12
-5.04
-4.99
-4.72
-4
-2.96
-1.31
0.72
3.63
5.65
6.8
7.23
7.44
7.2
6.93
6.51
6
5.44
4.69
3.84
3.2
2.56
1.92
1.07
-0.05
-0.96
-1.71
-2.45
-3.2
-4.24
-4.99
-5.52
-6.03
-6.4
-6.8
-7.07
-7.17
-7.28
-7.28
-7.23
-7.04
-6.93
-6.83
-6.72
-6.59
-6.37
-6.24
-6.05
-5.95
-5.92
-5.79
-5.68
-5.6
-5.57
-5.47
-5.36
-5.28
-5.23
-5.2
-5.12
-5.12
-5.12
-5.01
-4.91
-4.72
-3.95
-2.45
-0.56
1.47
3.55
5.2
6.69
7.49
7.68
7.49
7.23
6.64
6.03
5.49
4.88
4.32
3.52
2.64
2
1.31
0.56
-0.19
-0.99
-2
-2.99
-3.68
-4.32
-5.15
-5.73
-6.08
-6.37
-6.59
-6.8
-6.88
-6.88
-6.88
-6.77
-6.67
-6.48
-6.37
-6.32
-6.24
-6.13
-6.03
-6
-5.92
-5.87
-5.84
-5.73
-5.68
-5.6
-5.57
-5.52
-5.44
-5.33
-5.23
-5.2
-5.2
-5.15
-5.04
-4.93
-4.72
-4.32
-2.93
-0.53
1.68
3.79
5.49
6.64
7.39
7.71
7.68
7.36
6.99
6.32
5.63
5.09
4.48
3.92
3.12
2.16
1.52
0.83
0.08
-0.77
-1.89
-2.72
-3.36
-4
-4.64
-5.36
-5.84
-6.16
-6.45
-6.61
-6.72
-6.8
-6.8
-6.8
-6.72
-6.67
-6.48
-6.45
-6.35
-6.24
-6.21
-6.05
-6
-5.92
-5.87
-5.76
-5.65
-5.6
-5.52
-5.49
-5.39
-5.28
-5.2
-5.15
-5.12
-5.12
-5.12
-5.04
-5.01
-4.91
-4.72
-3.89
-2.19
-0.24
1.87
3.95
5.52
6.83
7.57
7.68
7.49
7.23
6.64
6.03
5.49
4.88
4.32
3.57
2.72
2.08
1.44
0.8
0.05
-0.69
-1.76
-2.75
-3.44
-4.08
-4.91
-5.49
-5.92
-6.24
-6.51
-6.8
-6.99
-7.04
-7.04
-7.04
-6.99
-6.88
-6.85
-6.75
-6.64
-6.61
-6.45
-6.4
-6.29
-6.19
-6.16
-6.05
-5.95
-5.84
-5.81
-5.76
-5.68
-5.6
-5.55
-5.52
-5.44
-5.44
-5.36
-5.36
-5.41
-5.52
-5.33
-4.85
-3.92
-2.56
-0.64
1.44
4.21
6.03
6.96
7.2
7.31
6.96
6.53
6.11
5.6
5.04
4.29
3.44
2.83
2.24
1.6
0.77
-0.29
-1.12
-1.87
-2.61
-3.36
-4.32
-5.07
-5.6
-6.11
-6.48
-6.8
-7.09
-7.31
-7.44
-7.52
-7.47
-7.36
-7.25
-7.15
-7.04
-6.93
-6.77
-6.64
-6.53
-6.43
-6.32
-6.19
-6.08
-6
-5.89
-5.84
-5.76
-5.6
-5.55
-5.52
-5.44
-5.39
-5.28
-5.28
-5.28
-5.2
-5.2
-5.15
-4.96
-4.53
-3.73
-2.4
0.4
2.75
4.64
5.81
6.61
6.96
7.12
6.85
6.48
6.03
5.33
4.56
3.95
3.36
2.8
2.05
0.99
0.16
-0.59
-1.33
-2.08
-3.15
-4
-4.64
-5.17
-5.71
-6.24
-6.72
-6.99
-7.2
-7.31
-7.41
-7.44
-7.41
-7.36
-7.28
-7.17
-7.01
-6.88
-6.77
-6.67
-6.56
-6.43
-6.32
-6.24
-6.13
-6.03
-5.92
-5.81
-5.71
-5.68
-5.57
-5.47
-5.36
-5.36
-5.36
-5.28
-5.25
-5.15
-5.04
-4.75
-4.16
-3.04
-0.37
1.97
4.08
5.57
6.69
7.28
7.63
7.47
7.12
6.75
6.05
5.28
4.67
4.08
3.52
2.77
1.71
0.88
0.13
-0.61
-1.44
-2.59
-3.44
-4.08
-4.69
-5.23
-5.84
-6.4
-6.67
-6.88
-7.09
-7.25
-7.36
-7.33
-7.28
-7.28
-7.17
-7.01
-6.88
-6.77
-6.67
-6.64
-6.51
-6.35
-6.24
-6.13
-6.03
-5.92
-5.81
-5.71
-5.68
-5.6
-5.55
-5.36
-5.33
-5.28
-5.28
-5.25
-5.15
-5.04
-4.75
-4.16
-3.04
-0.45
1.95
4.08
5.57
6.69
7.36
7.79
7.63
7.28
6.91
6.27
5.52
4.91
4.32
3.68
2.93
1.92
1.12
0.37
-0.37
-1.2
-2.35
-3.2
-3.84
-4.48
-5.07
-5.68
-6.24
-6.56
-6.8
-6.99
-7.09
-7.2
-7.2
-7.2
-7.2
-7.09
-6.99
-6.88
-6.77
-6.67
-6.56
-6.43
-6.27
-6.16
-6.13
-6.03
-5.92
-5.76
-5.71
-5.68
-5.6
-5.6
-5.52
-5.49
-5.44
-5.36
-5.17
-4.75
-4
-2.85
-1.09
0.96
3.84
5.81
6.88
7.33
7.55
7.28
7.01
6.59
6.08
5.63
4.93
4.08
3.44
2.8
2.16
1.31
0.19
-0.64
-1.39
-2.13
-2.88
-3.92
-4.67
-5.2
-5.71
-6.08
-6.48
-6.85
-7.01
-7.12
-7.12
-7.12
-7.12
-7.09
-6.99
-6.88
-6.77
-6.61
-6.56
-6.45
-6.35
-6.24
-6.13
-6.03
-5.92
-5.81
-5.76
-5.68
-5.52
-5.47
-5.44
-5.33
-5.28
-5.2
-5.17
-5.12
-5.04
-4.72
-4.03
-2.88
-1.41
0.61
2.64
5.2
6.8
7.52
7.73
7.73
7.36
6.91
6.43
5.92
5.39
4.85
4.24
3.31
2.56
1.92
1.07
-0.05
-0.88
-1.63
-2.37
-3.12
-4.08
-4.83
-5.28
-5.71
-6.08
-6.48
-6.75
-6.85
-6.96
-6.96
-6.96
-6.88
-6.85
-6.75
-6.64
-6.61
-6.45
-6.4
-6.29
-6.19
-6.08
-5.97
-5.87
-5.76
-5.73
-5.68
-5.6
-5.44
-5.39
-5.36
-5.28
-5.23
-5.12
-5.09
-5.04
-4.96
-4.75
-4.16
-3.12
-1.65
0.37
2.48
5.07
6.77
7.52
7.73
7.73
7.36
6.99
6.51
6
5.47
4.77
3.92
3.31
2.72
2.08
1.25
0.19
-0.64
-1.39
-2.13
-2.88
-3.81
-4.51
-5.04
-5.55
-5.92
-6.32
-6.59
-6.69
-6.8
-6.88
-6.88
-6.8
-6.69
-6.64
-6.56
-6.45
-6.35
-6.24
-6.16
-6.11
-6
-5.89
-5.79
-5.68
-5.65
-5.6
-5.52
-5.36
-5.31
-5.28
-5.2
-5.2
-5.12
-5.09
-5.04
-5.04
-5.01
-4.85
-4.56
-3.97
-2.85
-1.2
1.92
4.32
6
6.85
7.39
7.44
7.44
7.12
6.72
6.27
5.57
4.8
4.19
3.6
3.04
2.32
1.36
0.56
-0.11
-0.85
-1.6
-2.67
-3.52
-4.16
-4.77
-5.31
-5.92
-6.37
-6.59
-6.8
-6.91
-7.01
-7.04
-7.04
-7.04
-6.96
-6.85
-6.75
-6.72
-6.61
-6.51
-6.48
-6.37
-6.27
-6.16
-6.13
-6.08
-6.08
-6.05
-5.95
-5.92
-5.84
-5.79
-5.6
-5.6
-5.6
-5.52
-5.52
-5.47
-5.28
-4.99
-4.4
-3.28
-0.51
1.89
3.92
5.31
6.32
6.88
7.23
7.01
6.64
6.27
5.63
4.88
4.27
3.68
3.12
2.4
1.49
0.72
0.05
-0.69
-1.44
-2.59
-3.49
-4.16
-4.77
-5.31
-5.92
-6.48
-6.75
-6.96
-7.15
-7.25
-7.28
-7.28
-7.23
-7.12
-7.09
-6.93
-6.8
-6.69
-6.59
-6.48
-6.37
-6.32
-6.24
-6.13
-6.08
-6
-5.97
-5.87
-5.76
-5.68
-5.63
-5.52
-5.49
-5.44
-5.36
-5.36
-5.31
-5.28
-5.15
-4.93
-4.4
-2.69
-0.83
1.2
3.12
4.72
6
7.07
7.17
7.04
6.77
6.19
5.52
4.99
4.4
3.84
3.12
2.16
1.36
0.69
-0.05
-0.8
-1.55
-2.45
-3.52
-4.16
-4.8
-5.52
-6.11
-6.48
-6.72
-6.93
-7.15
-7.28
-7.28
-7.28
-7.2
-7.17
-7.01
-6.88
-6.77
-6.67
-6.64
-6.51
-6.4
-6.32
-6.21
-6.16
-6.08
-6
-5.95
-5.84
-5.76
-5.71
-5.6
-5.57
-5.52
-5.44
-5.44
-5.39
-5.28
-5.15
-4.88
-4.16
-2.13
-0.05
2.08
4
5.55
6.72
7.6
7.6
7.44
7.17
6.59
5.84
5.23
4.64
4.08
3.36
2.4
1.6
0.85
0.11
-0.72
-1.87
-2.77
-3.52
-4.16
-4.75
-5.44
-6.08
-6.4
-6.72
-6.93
-7.09
-7.2
-7.2
-7.2
-7.12
-7.09
-6.93
-6.8
-6.69
-6.59
-6.48
-6.37
-6.27
-6.16
-6.13
-6.08
-6
-5.89
-5.79
-5.76
-5.68
-5.63
-5.52
-5.49
-5.44
-5.36
-5.36
-5.31
-5.2
-4.91
-4.37
-3.36
-0.8
1.55
3.76
5.36
6.59
7.28
7.73
7.63
7.28
6.91
6.27
5.52
4.91
4.32
3.68
2.93
1.92
1.12
0.37
-0.37
-1.2
-2.35
-3.25
-3.92
-4.56
-5.15
-5.76
-6.32
-6.64
-6.88
-7.01
-7.17
-7.2
-7.2
-7.15
-7.04
-6.99
-6.77
-6.64
-6.53
-6.43
-6.4
-6.27
-6.21
-6.24
-6.21
-6.11
-6
-5.92
-5.87
-5.76
-5.68
-5.63
-5.52
-5.49
-5.44
-5.36
-5.17
-4.75
-3.92
-2.75
-0.93
1.12
4
5.97
7.04
7.39
7.55
7.28
7.01
6.59
6.08
5.52
4.77
3.92
3.31
2.67
2
1.15
0.03
-0.8
-1.57
-2.37
-3.12
-4.16
-4.91
-5.44
-5.95
-6.32
-6.72
-6.99
-7.09
-7.2
-7.2
-7.2
-7.12
-7.01
-6.91
-6.72
-6.61
-6.45
-6.32
-6.24
-6.19
-6.08
-5.95
-5.84
-5.76
-5.73
-5.63
-5.52
-5.44
-5.39
-5.36
-5.28
-5.23
-5.12
-5.12
-5.07
-4.88
-4.21
-2.83
-1.04
0.93
3.07
4.8
6.51
7.47
7.76
7.65
7.44
6.88
6.27
5.73
5.2
4.64
3.84
2.96
2.24
1.55
0.88
0.13
-0.67
-1.76
-2.75
-3.44
-4.08
-5.01
-5.65
-6.08
-6.4
-6.67
-6.88
-7.07
-7.12
-7.12
-7.04
-6.99
-6.88
-6.75
-6.59
-6.48
-6.37
-6.21
-6.08
-5.97
-5.87
-5.84
-5.71
-5.6
-5.52
-5.49
-5.44
-5.36
-5.28
-5.23
-5.2
-5.12
-5.07
-4.96
-4.83
-4.45
-3.84
-2.11
0.67
2.88
4.83
6.21
7.04
7.49
7.65
7.52
7.12
6.69
6
5.28
4.69
4.08
3.52
2.72
1.76
1.04
0.35
-0.4
-1.33
-2.45
-3.28
-3.92
-4.56
-5.12
-5.84
-6.32
-6.64
-6.83
-6.93
-7.04
-7.04
-6.99
-6.88
-6.77
-6.67
-6.48
-6.35
-6.19
-6.08
-5.97
-5.81
-5.76
-5.68
-5.63
-5.52
-5.41
-5.36
-5.28
-5.28
-5.28
-5.2
-5.12
-5.12
-5.12
-5.04
-5.04
-4.96
-4.75
-4.32
-3.6
-1.76
1.12
3.36
5.17
6.4
7.12
7.47
7.52
7.28
6.88
6.45
5.76
5.04
4.45
3.84
3.28
2.48
1.52
0.77
0.03
-0.72
-1.57
-2.69
-3.52
-4.16
-4.8
-5.36
-6.08
-6.56
-6.88
-7.09
-7.25
-7.28
-7.28
-7.28
-7.2
-7.09
-6.93
-6.72
-6.61
-6.51
-6.4
-6.29
-6.13
-6.08
-6
-5.95
-6
-5.97
-5.87
-5.76
-5.73
-5.68
-5.68
-5.6
-5.55
-5.52
-5.52
-5.47
-5.36
-5.12
-4.53
-3.6
-1.57
1.47
3.6
5.23
6.29
6.88
7.09
7.04
6.72
6.29
5.81
5.04
4.32
3.73
3.12
2.48
1.63
0.64
-0.11
-0.85
-1.6
-2.45
-3.57
-4.4
-5.01
-5.55
-6.08
-6.69
-7.07
-7.28
-7.47
-7.57
-7.6
-7.49
-7.39
-7.28
-7.17
-7.01
-6.72
-6.59
-6.43
-6.32
-6.21
-6.05
-6
-5.92
-5.87
-5.76
-5.65
-5.6
-5.52
-5.49
-5.44
-5.44
-5.36
-5.36
-5.36
-5.28
-5.23
-5.12
-4.8
-4.21
-3.28
-1.28
1.65
3.68
5.2
6.21
6.8
6.93
6.88
6.56
6.13
5.65
5.12
4.43
3.57
2.88
2.21
1.31
0.32
-0.51
-1.25
-2
-2.91
-3.97
-4.72
-5.25
-5.79
-6.24
-6.77
-7.15
-7.28
-7.39
-7.49
-7.52
-7.44
-7.39
-7.28
-7.17
-7.01
-6.72
-6.61
-6.51
-6.4
-6.29
-6.13
-6
-5.92
-5.87
-5.84
-5.71
-5.6
-5.52
-5.49
-5.44
-5.44
-5.36
-5.31
-5.28
-5.15
-4.61
-3.76
-2.27
-0.51
1.6
3.68
5.97
6.96
7.47
7.57
7.44
6.91
6.37
5.84
5.23
4.64
3.76
2.93
2.24
1.52
0.83
0.03
-0.8
-1.95
-2.85
-3.6
-4.4
-5.31
-5.84
-6.27
-6.64
-6.96
-7.17
-7.33
-7.36
-7.36
-7.36
-7.28
-7.09
-6.99
-6.88
-6.69
-6.59
-6.4
-6.29
-6.19
-6.08
-5.97
-5.87
-5.84
-5.76
-5.71
-5.6
-5.49
-5.44
-5.44
-5.41
-5.36
-5.36
-5.28
-5.23
-5.04
-4.72
-3.55
-1.76
0.29
2.37
4.48
5.87
7.25
7.68
7.79
7.57
7.2
6.48
5.84
5.28
4.64
4
3.12
2.21
1.47
0.72
-0.05
-0.85
-1.68
-2.83
-3.73
-4.4
-5.07
-5.81
-6.32
-6.64
-6.91
-7.12
-7.31
-7.36
-7.36
-7.33
-7.23
-7.12
-6.93
-6.77
-6.64
-6.53
-6.43
-6.24
-6.13
-6.03
-5.92
-5.92
-5.92
-5.84
-5.76
-5.71
-5.68
-5.57
-5.52
-5.44
-5.41
-5.31
-4.96
-4.29
-3.23
-1.6
0.29
2.75
5.6
6.59
7.28
7.6
7.44
7.12
6.64
6.19
5.65
5.04
4.19
3.39
2.72
2.08
1.39
0.32
-0.75
-1.49
-2.32
-3.07
-3.92
-4.88
-5.41
-5.95
-6.4
-6.75
-7.12
-7.28
-7.36
-7.36
-7.36
-7.25
-7.15
-6.96
-6.85
-6.75
-6.56
-6.37
-6.27
-6.16
-6.05
-5.95
-5.84
-5.81
-5.71
-5.6
-5.57
-5.47
-5.44
-5.36
-5.31
-5.28
-5.25
-5.15
-5.04
-4.83
-4.35
-2.8
-0.83
1.31
3.36
5.2
6.43
7.68
7.79
7.73
7.52
7.01
6.32
5.68
5.12
4.53
3.92
2.96
2.11
1.36
0.61
-0.13
-0.88
-1.81
-2.93
-3.76
-4.4
-5.09
-5.84
-6.24
-6.56
-6.8
-7.01
-7.17
-7.2
-7.12
-7.07
-6.96
-6.83
-6.67
-6.56
-6.45
-6.35
-6.24
-6.05
-5.95
-5.92
-5.84
-5.79
-5.68
-5.65
-5.55
-5.44
-5.44
-5.39
-5.36
-5.28
-5.23
-5.2
-5.09
-4.93
-4.64
-3.79
-2.51
0.16
2.96
4.88
6.24
7.23
7.71
7.84
7.55
7.23
6.8
6.19
5.39
4.72
4.08
3.49
2.8
1.84
0.99
0.24
-0.51
-1.25
-2.32
-3.31
-4
-4.64
-5.17
-5.76
-6.32
-6.61
-6.83
-6.96
-7.04
-7.04
-7.04
-6.93
-6.83
-6.72
-6.59
-6.43
-6.32
-6.21
-6.11
-6
-5.89
-5.79
-5.76
-5.68
-5.63
-5.52
-5.49
-5.44
-5.36
-5.36
-5.31
-5.28
-5.2
-5.2
-5.2
-4.99
-4.61
-4.08
-2.8
-1.15
1.76
4.53
6.03
6.96
7.55
7.6
7.6
7.2
6.77
6.32
5.71
4.85
4.16
3.6
2.96
2.32
1.28
0.43
-0.32
-1.07
-1.81
-2.8
-3.76
-4.4
-5.04
-5.55
-6.03
-6.56
-6.77
-6.99
-7.12
-7.12
-7.12
-7.12
-7.01
-6.91
-6.88
-6.75
-6.59
-6.48
-6.37
-6.32
-6.24
-6.13
-6.03
-6
-5.92
-5.87
-5.76
-5.87
-5.92
-5.84
-5.81
-5.71
-5.68
-5.68
-5.63
-5.52
-4.99
-4.13
-2.96
-1.04
0.99
3.6
5.89
6.8
7.2
7.41
7.15
6.8
6.29
5.81
5.28
4.56
3.65
2.96
2.32
1.68
0.96
-0.19
-1.09
-1.84
-2.59
-3.33
-4.24
-5.12
-5.71
-6.16
-6.56
-6.93
-7.28
-7.39
-7.49
-7.52
-7.49
-7.33
-7.2
-7.09
-6.99
-6.88
-6.67
-6.51
-6.4
-6.29
-6.19
-6.08
-5.97
-5.87
-5.84
-5.76
-5.71
-5.6
-5.57
-5.52
-5.44
-5.44
-5.39
-5.36
-5.28
-5.28
-5.28
-4.85
-4.21
-3.28
-1.65
0.21
2.8
5.2
6.21
6.8
7.12
6.96
6.64
6.13
5.65
5.12
4.43
3.57
2.88
2.21
1.52
0.8
-0.35
-1.31
-2.08
-2.83
-3.57
-4.48
-5.25
-5.79
-6.24
-6.64
-6.96
-7.28
-7.47
-7.52
-7.52
-7.52
-7.47
-7.36
-7.25
-7.15
-7.04
-6.83
-6.67
-6.56
-6.45
-6.35
-6.24
-6.13
-5.97
-5.92
-5.84
-5.79
-5.6
-5.57
-5.52
-5.44
-5.44
-5.39
-5.36
-5.25
-5.15
-4.8
-3.52
-1.97
-0.08
2.08
4.05
5.84
7.28
7.65
7.68
7.57
7.04
6.4
5.87
5.28
4.72
3.97
2.96
2.16
1.49
0.75
-0.08
-0.83
-1.79
-2.96
-3.68
-4.32
-5.12
-5.87
-6.29
-6.64
-6.93
-7.15
-7.36
-7.44
-7.44
-7.44
-7.33
-7.23
-7.12
-6.93
-6.83
-6.72
-6.59
-6.43
-6.32
-6.21
-6.11
-6
-5.89
-5.79
-5.76
-5.68
-5.63
-5.52
-5.49
-5.44
-5.36
-5.36
-5.31
-5.2
-4.96
-4.59
-3.68
-1.33
0.96
3.2
4.93
6.32
7.2
7.81
7.76
7.52
7.15
6.45
5.68
5.07
4.48
3.84
3.09
2.08
1.28
0.51
-0.29
-1.12
-2.27
-3.17
-3.84
-4.48
-5.12
-5.84
-6.4
-6.72
-6.96
-7.15
-7.25
-7.36
-7.36
-7.36
-7.28
-7.17
-7.01
-6.88
-6.69
-6.59
-6.48
-6.35
-6.19
-6.08
-6.05
-5.95
-5.84
-5.76
-5.71
-5.76
-5.73
-5.63
-5.52
-5.49
-5.44
-5.36
-5.04
-4.35
-3.2
-1.65
0.37
2.48
5.04
6.69
7.44
7.65
7.65
7.28
6.83
6.29
5.76
5.2
4.4
3.52
2.88
2.19
1.44
0.69
-0.05
-0.8
-1.73
-2.85
-3.68
-4.64
-5.39
-5.92
-6.32
-6.64
-6.96
-7.23
-7.33
-7.36
-7.36
-7.31
-7.2
-7.09
-6.99
-6.88
-6.75
-6.53
-6.4
-6.29
-6.19
-6.08
-5.97
-5.87
-5.76
-5.73
-5.68
-5.6
-5.49
-5.39
-5.36
-5.36
-5.31
-5.2
-5.09
-4.93
-4.64
-3.49
-1.41
0.72
2.88
4.8
6.16
7.23
7.76
7.84
7.55
7.23
6.56
5.84
5.25
4.64
4.08
3.23
2.24
1.52
0.83
0.08
-0.85
-1.97
-2.8
-3.52
-4.16
-4.8
-5.55
-6.13
-6.48
-6.69
-6.91
-7.04
-7.12
-7.12
-7.04
-6.96
-6.91
-6.72
-6.59
-6.43
-6.32
-6.21
-6.05
-5.92
-5.84
-5.79
-5.76
-5.63
-5.52
-5.44
-5.41
-5.36
-5.28
-5.2
-5.15
-5.12
-5.04
-4.93
-4.72
-4.27
-3.41
-2.16
0.13
3.28
5.2
6.59
7.33
7.68
7.68
7.52
7.2
6.69
6.21
5.44
4.64
4.05
3.44
2.77
1.87
0.88
0.13
-0.67
-1.44
-2.29
-3.41
-4.16
-4.77
-5.31
-5.76
-6.29
-6.67
-6.88
-6.99
-7.09
-7.12
-7.04
-6.99
-6.88
-6.77
-6.67
-6.56
-6.43
-6.27
-6.16
-6.13
-5.97
-5.92
-5.81
-5.71
-5.68
-5.57
-5.52
-5.44
-5.33
-5.28
-5.2
-5.12
-5.12
-5.12
-5.01
-4.8
-4.4
-3.52
-2.19
-0.4
2
4.93
6.4
7.31
7.73
7.76
7.68
7.25
6.72
6.19
5.6
4.8
4
3.36
2.72
2.08
1.23
0.16
-0.59
-1.33
-2.08
-2.91
-3.92
-4.64
-5.17
-5.65
-6.08
-6.51
-6.77
-6.88
-6.96
-6.96
-6.96
-6.88
-6.83
-6.72
-6.61
-6.51
-6.4
-6.29
-6.24
-6.16
-6.13
-6.03
-6
-5.92
-5.87
-5.84
-5.73
-5.68
-5.68
-5.65
-5.65
-5.76
-5.76
-5.71
-5.68
-5.57
-5.25
-4.72
-3.63
-2.08
-0.08
2.21
4.99
6.32
7.09
7.36
7.36
7.2
6.72
6.08
5.55
4.96
4.16
3.36
2.72
2
1.33
0.43
-0.64
-1.39
-2.19
-2.96
-3.68
-4.32
-5.12
-5.89
-6.37
-6.72
-7.12
-7.33
-7.44
-7.52
-7.52
-7.44
-7.33
-7.23
-7.12
-6.93
-6.83
-6.72
-6.51
-6.35
-6.24
-6.21
-6.05
-6
-5.92
-5.87
-5.84
-5.73
-5.63
-5.52
-5.52
-5.52
-5.44
-5.44
-5.39
-5.36
-5.25
-4.99
-4.56
-3.6
-2.27
-0.48
1.71
4.43
5.84
6.72
7.04
7.04
6.96
6.48
5.92
5.39
4.8
3.92
3.12
2.48
1.76
1.09
0.13
-0.96
-1.71
-2.45
-3.2
-3.92
-4.56
-5.36
-6.03
-6.45
-6.8
-7.12
-7.33
-7.44
-7.52
-7.52
-7.52
-7.41
-7.31
-7.2
-7.09
-6.93
-6.8
-6.67
-6.51
-6.4
-6.29
-6.19
-6.08
-6
-5.95
-5.84
-5.73
-5.68
-5.6
-5.57
-5.52
-5.44
-5.44
-5.39
-5.28
-5.15
-4.56
-3.52
-1.89
0.03
2.16
4.13
6.32
7.2
7.6
7.65
7.44
7.09
6.51
5.76
5.15
4.56
4
3.17
2.16
1.36
0.67
-0.13
-0.96
-2.11
-3.01
-3.68
-4.4
-4.99
-5.68
-6.27
-6.64
-6.88
-7.17
-7.33
-7.36
-7.36
-7.36
-7.28
-7.09
-6.99
-6.88
-6.77
-6.67
-6.56
-6.43
-6.27
-6.16
-6.05
-5.95
-5.84
-5.76
-5.71
-5.68
-5.57
-5.52
-5.44
-5.41
-5.36
-5.28
-5.23
-5.01
-4.64
-3.95
-2.08
0.56
2.69
4.56
6.16
6.96
7.65
7.68
7.49
7.12
6.64
6.19
5.49
4.64
4
3.36
2.4
1.47
0.67
-0.08
-0.85
-1.87
-2.96
-3.68
-4.32
-4.96
-5.49
-5.97
-6.4
-6.72
-7.04
-7.2
-7.28
-7.28
-7.28
-7.17
-7.07
-6.96
-6.77
-6.67
-6.56
-6.45
-6.35
-6.24
-6.13
-6.03
-5.92
-5.89
-5.73
-5.68
-5.6
-5.55
-5.52
-5.41
-5.41
-5.44
-5.33
-5.12
-4.8
-3.63
-1.49
0.64
2.72
4.75
6.88
7.33
7.6
7.6
7.23
6.69
6.16
5.6
5.01
4.4
3.84
2.99
2
1.28
0.53
-0.24
-1.09
-2.27
-3.12
-3.76
-4.56
-5.44
-5.95
-6.32
-6.64
-6.93
-7.09
-7.2
-7.28
-7.28
-7.2
-7.09
-6.99
-6.88
-6.77
-6.67
-6.56
-6.37
-6.27
-6.16
-6.08
-6.03
-5.92
-5.81
-5.76
-5.68
-5.57
-5.47
-5.44
-5.36
-5.31
-5.28
-5.17
-5.12
-5.04
-4.91
-4.48
-3.84
-2.11
0.67
2.88
4.75
6.19
7.68
7.79
7.73
7.6
7.09
6.4
5.84
5.28
4.69
4.08
3.44
2.59
1.6
0.85
0.05
-0.72
-1.57
-2.69
-3.52
-4.16
-4.91
-5.68
-6.11
-6.48
-6.72
-6.91
-7.01
-7.12
-7.12
-7.07
-7.04
-6.91
-6.75
-6.64
-6.51
-6.35
-6.24
-6.08
-6.03
-5.92
-5.84
-5.79
-5.68
-5.57
-5.52
-5.44
-5.41
-5.31
-5.28
-5.2
-5.15
-5.12
-5.09
-4.99
-4.88
-4.53
-3.84
-2.8
-0.67
2.48
4.56
6.16
7.07
7.92
7.84
7.68
7.36
6.85
6.11
5.44
4.88
4.29
3.68
3.04
2.19
1.2
0.45
-0.29
-1.36
-2.43
-3.12
-3.84
-4.45
-5.09
-5.84
-6.24
-6.51
-6.72
-6.91
-7.01
-7.04
-7.04
-6.99
-6.88
-6.75
-6.59
-6.4
-6.29
-6.19
-6.08
-5.97
-5.87
-5.84
-5.73
-5.63
-5.6
-5.49
-5.44
-5.36
-5.33
-5.23
-5.2
-5.12
-5.12
-5.12
-5.09
-5.04
-4.96
-4.83
-4.45
-3.84
-2.11
0.72
2.96
4.91
6.35
7.2
7.63
7.73
7.6
7.12
6.48
5.84
5.28
4.69
4.08
3.52
2.67
1.68
0.96
0.27
-0.48
-1.33
-2.45
-3.28
-3.92
-4.67
-5.44
-5.87
-6.24
-6.48
-6.69
-6.85
-6.96
-7.04
-6.99
-6.88
-6.75
-6.59
-6.48
-6.37
-6.32
-6.24
-6.16
-6.11
-6.08
-6
-5.95
-5.92
-5.81
-5.76
-5.68
-5.68
-5.63
-5.6
-5.55
-5.65
-5.68
-5.65
-5.6
-5.6
-5.49
-5.28
-4.96
-3.65
-1.31
0.96
3.09
4.96
6.88
7.23
7.39
7.36
6.99
6.45
5.92
5.36
4.77
4.16
3.6
2.8
1.84
1.12
0.43
-0.32
-1.17
-2.35
-3.2
-3.84
-4.64
-5.52
-6.03
-6.45
-6.8
-7.09
-7.25
-7.44
-7.52
-7.47
-7.44
-7.31
-7.15
-6.96
-6.85
-6.75
-6.56
-6.37
-6.27
-6.24
-6.13
-6.03
-6
-5.89
-5.79
-5.68
-5.65
-5.55
-5.52
-5.52
-5.47
-5.44
-5.41
-5.36
-5.36
-5.33
-5.28
-5.2
-4.83
-3.92
-2.56
-0.85
1.6
4.56
5.73
6.59
7.12
7.07
6.85
6.48
6.03
5.55
4.96
4.4
3.6
2.72
2
1.31
0.64
-0.19
-0.93
-2
-3.07
-3.92
-4.88
-5.41
-5.89
-6.32
-6.72
-6.99
-7.28
-7.47
-7.52
-7.52
-7.49
-7.39
-7.28
-7.17
-7.07
-6.88
-6.69
-6.59
-6.48
-6.37
-6.27
-6.16
-6.05
-5.95
-5.84
-5.81
-5.71
-5.68
-5.6
-5.55
-5.52
-5.41
-5.36
-5.36
-5.33
-5.17
-4.96
-4.16
-2.56
-0.72
1.31
3.6
6.24
6.99
7.47
7.68
7.41
6.99
6.48
6
5.41
4.8
4.24
3.39
2.4
1.68
0.99
-0.08
-1.15
-1.89
-2.64
-3.39
-4.24
-5.12
-5.65
-6.13
-6.48
-6.77
-6.99
-7.2
-7.39
-7.44
-7.44
-7.33
-7.23
-7.12
-7.01
-6.91
-6.72
-6.61
-6.45
-6.32
-6.21
-6.11
-6.08
-5.95
-5.84
-5.76
-5.73
-5.63
-5.6
-5.52
-5.47
-5.44
-5.33
-5.28
-5.2
-4.99
-4.56
-3.92
-2.19
0.59
2.8
4.75
6.13
7.6
7.73
7.73
7.6
7.09
6.4
5.76
5.2
4.56
3.92
3.28
2.43
1.44
0.61
-0.13
-0.88
-1.81
-2.93
-3.76
-4.4
-5.09
-5.84
-6.24
-6.56
-6.8
-7.01
-7.17
-7.28
-7.28
-7.23
-7.2
-7.07
-6.91
-6.8
-6.69
-6.59
-6.48
-6.29
-6.19
-6.16
-6.05
-5.95
-5.92
-5.79
-5.68
-5.6
-5.68
-5.68
-5.6
-5.57
-5.47
-5.36
-5.04
-4.45
-3.6
-1.97
-0.05
2.08
4.05
6.24
7.2
7.6
7.49
7.28
6.85
6.37
5.92
5.23
4.37
3.68
3.01
2.32
1.6
0.91
0.11
-0.64
-1.81
-2.77
-3.76
-4.64
-5.23
-5.76
-6.16
-6.53
-6.96
-7.15
-7.25
-7.28
-7.28
-7.28
-7.2
-7.01
-6.91
-6.8
-6.67
-6.51
-6.4
-6.29
-6.24
-6.16
-6
-5.95
-5.84
-5.76
-5.71
-5.68
-5.55
-5.44
-5.36
-5.33
-5.23
-5.2
-5.09
-4.93
-4.48
-2.85
-0.99
1.04
3.09
4.91
6.4
7.09
7.68
7.68
7.49
6.96
6.32
5.71
5.12
4.56
3.84
2.93
2.16
1.49
0.75
0
-0.77
-1.79
-2.88
-3.6
-4.24
-5.04
-5.71
-6.08
-6.4
-6.69
-6.91
-7.04
-7.12
-7.12
-7.04
-7.01
-6.91
-6.8
-6.61
-6.51
-6.4
-6.27
-6.16
-6.08
-5.97
-5.92
-5.84
-5.73
-5.63
-5.6
-5.52
-5.47
-5.44
-5.33
-5.28
-5.2
-5.17
-5.01
-4.72
-4.16
-3.15
-1.52
1.6
4.05
5.84
6.8
7.44
7.84
7.68
7.41
7.04
6.59
5.89
5.04
4.43
3.84
3.2
2.45
1.44
0.64
-0.13
-0.93
-1.68
-2.43
-3.33
-4.32
-4.85
-5.39
-6
-6.45
-6.67
-6.88
-6.99
-7.04
-7.04
-7.01
-6.91
-6.8
-6.69
-6.59
-6.48
-6.29
-6.19
-6.16
-6.03
-5.92
-5.84
-5.81
-5.71
-5.6
-5.52
-5.47
-5.44
-5.36
-5.31
-5.28
-5.25
-5.2
-5.2
-5.15
-4.93
-4.48
-3.76
-2.48
-0.64
2.56
4.91
6.4
7.17
7.65
7.84
7.57
7.2
6.72
6.27
5.57
4.72
4.11
3.52
2.88
2.13
1.12
0.32
-0.43
-1.17
-1.92
-2.67
-3.52
-4.48
-5.01
-5.49
-6
-6.45
-6.67
-6.8
-6.91
-6.96
-6.96
-6.85
-6.75
-6.64
-6.53
-6.43
-6.32
-6.16
-6.11
-6.08
-5.97
-5.92
-5.84
-5.81
-5.76
-5.76
-5.68
-5.63
-5.6
-5.6
-5.55
-5.6
-5.68
-5.68
-5.6
-5.49
-5.07
-4.32
-3.15
-1.33
0.72
3.71
5.68
6.72
7.15
7.31
7.28
6.91
6.37
5.84
5.28
4.53
3.68
3.07
2.43
1.76
1.04
0.35
-0.32
-1.25
-2.37
-3.2
-3.92
-4.72
-5.6
-6.11
-6.48
-6.88
-7.25
-7.41
-7.52
-7.52
-7.47
-7.36
-7.25
-7.15
-7.04
-6.93
-6.83
-6.64
-6.45
-6.35
-6.32
-6.19
-6.08
-6
-5.97
-5.92
-5.84
-5.73
-5.63
-5.6
-5.6
-5.55
-5.52
-5.49
-5.44
-5.36
-5.28
-4.96
-4.24
-3.23
-1.68
0.24
3.15
5.17
6.32
6.85
7.12
7.12
6.75
6.21
5.68
5.15
4.4
3.52
2.88
2.24
1.6
0.85
0.11
-0.64
-1.57
-2.69
-3.52
-4.16
-4.91
-5.76
-6.19
-6.56
-6.96
-7.25
-7.41
-7.52
-7.52
-7.52
-7.44
-7.33
-7.23
-7.12
-6.99
-6.83
-6.72
-6.53
-6.43
-6.32
-6.21
-6.11
-6
-5.97
-5.92
-5.84
-5.68
-5.63
-5.6
-5.52
-5.52
-5.52
-5.41
-5.25
-5.04
-4.13
-2.43
-0.48
1.55
3.57
5.12
6.61
7.41
7.6
7.41
7.15
6.72
6.11
5.31
4.64
4
3.2
2.24
1.52
0.77
0
-0.83
-1.57
-2.64
-3.6
-4.24
-4.88
-5.41
-6
-6.56
-6.85
-7.07
-7.28
-7.36
-7.36
-7.36
-7.28
-7.23
-7.04
-6.93
-6.83
-6.64
-6.53
-6.48
-6.4
-6.21
-6.11
-6.08
-5.95
-5.84
-5.76
-5.73
-5.68
-5.6
-5.52
-5.47
-5.44
-5.36
-5.31
-5.2
-4.53
-3.52
-2.24
-0.03
3.12
5.04
6.43
7.23
7.6
7.52
7.31
6.96
6.45
5.97
5.44
4.72
3.81
3.04
2.37
1.47
0.4
-0.43
-1.23
-2
-2.83
-3.89
-4.64
-5.17
-5.71
-6.16
-6.48
-6.8
-7.12
-7.23
-7.28
-7.28
-7.2
-7.15
-7.04
-6.93
-6.83
-6.64
-6.53
-6.43
-6.32
-6.29
-6.19
-6.08
-5.97
-5.87
-5.84
-5.73
-5.68
-5.6
-5.57
-5.52
-5.44
-5.36
-5.31
-5.2
-4.85
-4.11
-2.8
0.08
2.53
4.56
5.84
7.17
7.6
7.63
7.41
7.04
6.29
5.65
5.12
4.48
3.84
3.28
2.45
1.44
0.64
-0.13
-0.93
-1.68
-2.83
-3.73
-4.4
-5.01
-5.55
-6
-6.43
-6.85
-7.12
-7.23
-7.28
-7.28
-7.25
-7.15
-7.04
-6.85
-6.75
-6.64
-6.53
-6.43
-6.32
-6.21
-6.11
-6
-5.97
-5.92
-5.84
-5.68
-5.63
-5.6
-5.49
-5.44
-5.36
-5.36
-5.31
-5.12
-4.85
-4.37
-3.36
-1.92
0.05
2.16
4.83
6.59
7.44
7.6
7.6
7.36
6.99
6.51
6
5.15
4.4
3.76
3.12
2.43
1.76
0.91
-0.21
-1.12
-1.87
-2.77
-3.84
-4.48
-5.07
-5.6
-6.05
-6.53
-6.8
-6.99
-7.09
-7.12
-7.12
-7.07
-6.96
-6.93
-6.83
-6.64
-6.45
-6.35
-6.24
-6.16
-6.11
-5.92
-5.89
-5.84
-5.76
-5.65
-5.6
-5.52
-5.44
-5.39
-5.36
-5.25
-5.2
-5.2
-5.09
-4.93
-4.32
-3.31
-1.76
0.24
2.35
4.37
5.84
7.12
7.81
7.92
7.63
7.15
6.64
6.11
5.57
4.96
4.03
3.28
2.64
1.92
1.23
0.48
-0.27
-1.07
-2.08
-3.07
-3.92
-4.88
-5.39
-5.81
-6.24
-6.56
-6.83
-6.96
-7.04
-7.04
-7.04
-6.93
-6.83
-6.64
-6.53
-6.43
-6.32
-6.16
-6.11
-6
-5.92
-5.87
-5.68
-5.65
-5.6
-5.52
-5.49
-5.44
-5.36
-5.28
-5.23
-5.2
-5.17
-5.12
-5.04
-4.93
-4.67
-3.52
-1.92
0
2.08
4.16
5.76
6.8
7.44
7.71
7.6
7.2
6.56
6
5.44
4.85
4.24
3.31
2.56
1.92
1.2
0.51
-0.24
-1.07
-2.13
-2.96
-3.68
-4.43
-5.28
-5.71
-6.08
-6.4
-6.61
-6.83
-6.96
-6.96
-6.91
-6.88
-6.77
-6.67
-6.48
-6.37
-6.27
-6.16
-6
-5.95
-5.84
-5.76
-5.71
-5.6
-5.57
-5.52
-5.44
-5.41
-5.36
-5.36
-5.36
-5.31
-5.28
-5.28
-5.28
-5.28
-5.25
-4.67
-3.6
-1.47
1.63
3.76
5.39
6.45
6.96
7.09
7.04
6.8
6.29
5.55
4.88
4.32
3.73
3.12
2.19
1.39
0.72
-0.03
-0.77
-1.52
-2.35
-3.41
-4.24
-4.85
-5.49
-6.24
-6.64
-6.91
-7.12
-7.31
-7.41
-7.44
-7.44
-7.39
-7.28
-7.17
-7.01
-6.8
-6.69
-6.59
-6.48
-6.29
-6.19
-6.16
-6.05
-5.95
-5.84
-5.81
-5.76
-5.68
-5.65
-5.6
-5.52
-5.44
-5.44
-5.44
-5.41
-5.31
-5.2
-4.96
-4.37
-2.64
-0.61
1.47
3.36
5.07
6.13
6.72
6.96
6.96
6.72
6.13
5.39
4.8
4.24
3.6
2.96
2
1.15
0.48
-0.27
-1.07
-1.84
-2.67
-3.73
-4.48
-5.09
-5.73
-6.4
-6.72
-6.99
-7.2
-7.31
-7.41
-7.44
-7.44
-7.39
-7.28
-7.17
-7.01
-6.8
-6.69
-6.59
-6.48
-6.29
-6.19
-6.16
-6.05
-5.95
-5.84
-5.81
-5.76
-5.68
-5.57
-5.52
-5.52
-5.44
-5.39
-5.36
-5.15
-4.77
-4.24
-2.96
-1.36
1.36
4.05
5.6
6.56
7.25
7.47
7.36
6.93
6.45
6
5.31
4.45
3.76
3.12
2.48
1.76
0.61
-0.35
-1.12
-1.87
-2.61
-3.36
-4.16
-5.07
-5.68
-6.11
-6.53
-6.96
-7.15
-7.25
-7.36
-7.36
-7.36
-7.28
-7.17
-7.07
-6.96
-6.85
-6.75
-6.56
-6.45
-6.35
-6.24
-6.08
-6.03
-5.92
-5.84
-5.79
-5.68
-5.65
-5.6
-5.52
-5.49
-5.44
-5.36
-5.25
-5.15
-4.88
-3.71
-2.27
-0.48
1.68
3.71
5.6
7.2
7.57
7.68
7.6
7.28
6.8
6.05
5.36
4.8
4.08
3.12
2.32
1.65
0.91
0.16
-0.61
-1.63
-2.72
-3.47
-4.16
-4.8
-5.39
-6.08
-6.48
-6.77
-6.99
-7.2
-7.28
-7.28
-7.28
-7.17
-7.07
-6.96
-6.85
-6.75
-6.64
-6.53
-6.43
-6.24
-6.13
-6.08
-6
-5.89
-5.79
-5.76
-5.68
-5.63
-5.52
-5.49
-5.44
-5.36
-5.33
-5.28
-5.04
-4.53
-3.73
-2.32
-0.05
3.73
7.12
7.65
7.92
7.92
7.55
7.01
6.48
5.92
5.33
4.72
3.76
2.91
2.24
1.39
0.27
-0.64
-1.39
-2.13
-2.88
-3.92
-4.72
-5.28
-5.79
-6.21
-6.56
-6.8
-7.07
-7.2
-7.2
-7.2
-7.12
-7.01
-6.91
-6.8
-6.69
-6.53
-6.4
-6.29
-6.19
-6.16
-6.05
-5.95
-5.84
-5.81
-5.76
-5.68
-5.6
-5.55
-5.52
-5.44
-5.39
-5.28
-5.25
-5.15
-4.96
-4.51
-3.65
-2.4
-0.19
2.96
4.96
6.59
7.55
7.76
7.57
7.36
6.8
6.16
5.57
4.96
4.4
3.81
3.2
2.16
1.31
0.56
-0.19
-0.99
-2.08
-3.07
-3.76
-4.4
-4.93
-5.57
-6.24
-6.53
-6.75
-6.96
-7.07
-7.12
-7.12
-7.01
-6.91
-6.8
-6.67
-6.51
-6.4
-6.37
-6.21
-6.08
-6
-5.95
-5.84
-5.76
-5.71
-5.6
-5.57
-5.52
-5.44
-5.36
-5.31
-5.28
-5.2
-5.09
-4.88
-4.32
-3.36
-2.08
-0.05
1.97
4.4
6.51
7.31
7.6
7.73
7.47
7.04
6.53
6.05
5.52
4.83
3.97
3.28
2.61
1.92
1.2
0.13
-0.83
-1.6
-2.35
-3.09
-4
-4.85
-5.39
-5.84
-6.24
-6.56
-6.88
-6.99
-7.04
-7.04
-7.01
-6.91
-6.8
-6.69
-6.53
-6.4
-6.27
-6.16
-6.08
-5.97
-5.92
-5.84
-5.68
-5.63
-5.6
-5.52
-5.47
-5.36
-5.33
-5.28
-5.2
-5.2
-5.15
-5.12
-5.01
-4.85
-4.48
-2.96
-1.15
0.88
3.01
4.83
6.32
7.57
7.79
7.68
7.49
6.96
6.4
5.79
5.25
4.72
4
3.09
2.32
1.65
0.96
0.24
-0.51
-1.47
-2.56
-3.28
-3.92
-4.72
-5.47
-5.89
-6.24
-6.53
-6.75
-6.88
-6.96
-6.96
-6.88
-6.85
-6.69
-6.56
-6.45
-6.35
-6.24
-6.11
-5.95
-5.84
-5.81
-5.76
-5.68
-5.57
-5.47
-5.44
-5.36
-5.31
-5.2
-5.2
-5.2
-5.12
-5.12
-5.07
-5.04
-4.93
-4.83
-4.4
-2.77
-0.91
1.2
3.23
4.93
6.72
8.19
7.97
7.6
7.15
6.45
5.6
4.96
4.32
3.68
2.93
1.92
1.12
0.43
-0.37
-1.12
-2.27
-3.17
-3.92
-4.56
-5.15
-5.84
-6.4
-6.72
-6.96
-7.15
-7.25
-7.28
-7.28
-7.23
-7.12
-7.01
-6.85
-6.72
-6.61
-6.51
-6.4
-6.27
-6.16
-6.08
-5.97
-5.92
-5.84
-5.76
-5.71
-5.68
-5.6
-5.55
-5.44
-5.44
-5.44
-5.36
-5.36
-5.31
-5.28
-5.12
-4.8
-4.08
-1.92
0.21
2.32
4.13
5.57
6.56
7.25
7.2
6.96
6.67
6.03
5.28
4.67
4.08
3.52
2.8
1.84
1.04
0.29
-0.45
-1.2
-2.37
-3.33
-4
-4.64
-5.23
-5.92
-6.48
-6.8
-7.04
-7.25
-7.41
-7.52
-7.49
-7.44
-7.36
-7.23
-7.01
-6.88
-6.77
-6.67
-6.56
-6.43
-6.27
-6.16
-6.13
-6.03
-5.92
-5.84
-5.79
-5.68
-5.6
-5.55
-5.44
-5.44
-5.44
-5.36
-5.36
-5.31
-5.12
-4.8
-4.16
-2.96
-0.27
2.08
4.08
5.49
6.56
7.04
7.39
7.17
6.8
6.43
5.73
4.96
4.35
3.76
3.12
2.29
1.28
0.4
-0.35
-1.09
-1.92
-3.07
-3.92
-4.56
-5.17
-5.71
-6.24
-6.72
-6.99
-7.2
-7.31
-7.41
-7.44
-7.41
-7.31
-7.2
-7.09
-6.93
-6.8
-6.69
-6.53
-6.4
-6.29
-6.19
-6.08
-5.97
-5.92
-5.84
-5.68
-5.63
-5.6
-5.52
-5.47
-5.36
-5.36
-5.36
-5.28
-5.23
-4.96
-4.4
-3.57
-2.19
-0.32
2.8
5.09
6.48
7.15
7.57
7.52
7.33
6.91
6.4
5.92
5.12
4.24
3.6
2.96
2.32
1.47
0.35
-0.56
-1.31
-2.05
-2.8
-3.87
-4.72
-5.28
-5.79
-6.21
-6.64
-7.01
-7.17
-7.28
-7.31
-7.36
-7.28
-7.17
-7.07
-6.96
-6.85
-6.69
-6.56
-6.45
-6.35
-6.24
-6.11
-6
-5.92
-5.81
-5.76
-5.68
-5.6
-5.55
-5.52
-5.44
-5.39
-5.28
-5.25
-5.2
-5.12
-4.61
-3.55
-2
-0.19
2
3.92
5.97
7.52
8.56
8.16
7.73
6.96
6.24
5.6
4.96
4.32
3.47
2.4
1.65
0.91
0.16
-0.67
-1.47
-2.56
-3.52
-4.16
-4.8
-5.55
-6.08
-6.4
-6.69
-6.85
-6.96
-7.04
-7.04
-7.04
-6.96
-6.91
-6.72
-6.61
-6.51
-6.4
-6.29
-6.19
-6.08
-6
-5.95
-5.84
-5.73
-5.68
-5.6
-5.57
-5.52
-5.44
-5.36
-5.31
-5.28
-5.28
-5.17
-4.96
-4.51
-3.65
-2.48
-0.27
2.88
4.8
6.21
7.07
7.44
7.47
7.31
6.96
6.53
6.05
5.28
4.48
3.84
3.2
2.53
1.63
0.56
-0.19
-0.99
-1.76
-2.59
-3.65
-4.4
-4.93
-5.47
-5.92
-6.43
-6.75
-6.96
-7.07
-7.12
-7.12
-7.09
-6.99
-6.88
-6.77
-6.67
-6.48
-6.37
-6.27
-6.16
-6.13
-5.97
-5.92
-5.81
-5.71
-5.68
-5.57
-5.52
-5.44
-5.41
-5.36
-5.28
-5.2
-5.2
-5.2
-5.09
-4.72
-4.08
-2.88
-1.23
0.8
3.07
5.73
6.96
7.65
7.87
7.76
7.33
6.85
6.4
5.87
5.28
4.4
3.6
2.96
2.32
1.65
0.69
-0.4
-1.23
-1.97
-2.72
-3.52
-4.43
-5.04
-5.55
-5.97
-6.32
-6.72
-6.93
-7.04
-7.04
-7.04
-6.96
-6.85
-6.75
-6.64
-6.53
-6.43
-6.24
-6.13
-6.08
-6
-5.89
-5.79
-5.76
-5.65
-5.55
-5.52
-5.41
-5.36
-5.28
-5.25
-5.2
-5.2
-5.12
-5.12
-5.12
-4.99
-4.56
-3.84
-2.43
-0.61
1.52
3.65
6.11
7.2
7.71
7.81
7.68
7.17
6.69
6.24
5.71
5.12
4.24
3.44
2.85
2.16
1.49
0.59
-0.48
-1.23
-1.97
-2.72
-3.52
-4.43
-5.04
-5.55
-5.97
-6.32
-6.64
-6.85
-6.96
-6.96
-6.96
-6.88
-6.77
-6.67
-6.56
-6.45
-6.35
-6.16
-6.05
-5.95
-5.84
-5.81
-5.71
-5.68
-5.6
-5.55
-5.52
-5.41
-5.36
-5.28
-5.25
-5.2
-5.2
-5.12
-5.07
-5.04
-5.04
-4.88
-4.56
-3.71
-2.43
-0.72
1.63
4.61
6.16
7.07
7.49
7.76
7.44
6.96
6.4
5.76
5.12
4.24
3.33
2.64
1.92
1.25
0.29
-0.8
-1.63
-2.37
-3.04
-3.84
-4.8
-5.44
-5.87
-6.29
-6.64
-6.93
-7.09
-7.2
-7.2
-7.2
-7.12
-7.01
-6.91
-6.8
-6.69
-6.59
-6.4
-6.29
-6.19
-6.08
-6.05
-5.95
-5.92
-5.84
-5.79
-5.76
-5.65
-5.6
-5.52
-5.49
-5.44
-5.44
-5.36
-5.36
-5.36
-5.36
-5.31
-5.12
-4.67
-3.81
-2.56
-0.37
2.67
4.56
5.97
6.83
7.2
7.12
6.91
6.56
6.05
5.57
4.8
4
3.36
2.72
2.05
1.15
0.16
-0.67
-1.41
-2.16
-2.99
-4.05
-4.8
-5.33
-5.87
-6.32
-6.83
-7.15
-7.36
-7.47
-7.52
-7.52
-7.44
-7.39
-7.28
-7.09
-6.93
-6.72
-6.61
-6.51
-6.4
-6.29
-6.19
-6.08
-6
-5.95
-5.84
-5.73
-5.68
-5.6
-5.57
-5.52
-5.52
-5.44
-5.39
-5.36
-5.36
-5.31
-5.12
-4.77
-4.13
-3.2
-1.17
1.87
3.92
5.55
6.61
7.2
7.33
7.28
6.96
6.45
5.97
5.2
4.4
3.76
3.12
2.45
1.55
0.56
-0.27
-1.07
-1.84
-2.67
-3.73
-4.48
-5.01
-5.55
-6
-6.53
-6.91
-7.12
-7.31
-7.41
-7.44
-7.44
-7.39
-7.28
-7.17
-7.01
-6.8
-6.69
-6.59
-6.48
-6.37
-6.21
-6.08
-6
-5.95
-5.92
-5.79
-5.68
-5.6
-5.57
-5.52
-5.52
-5.44
-5.39
-5.36
-5.28
-5.23
-5.04
-4.61
-3.87
-2.8
-0.67
2.43
4.48
6.08
7.04
7.52
7.63
7.52
7.2
6.69
6.21
5.36
4.56
3.97
3.28
2.61
1.71
0.64
-0.11
-0.91
-1.68
-2.51
-3.57
-4.32
-4.93
-5.47
-5.92
-6.45
-6.83
-7.04
-7.15
-7.25
-7.28
-7.28
-7.23
-7.12
-7.01
-6.91
-6.72
-6.61
-6.51
-6.4
-6.29
-6.13
-6.08
-5.97
-5.87
-5.84
-5.73
-5.68
-5.6
-5.57
-5.52
-5.44
-5.36
-5.31
-5.28
-5.28
-5.17
-4.88
-4.21
-3.15
-1.76
0.99
5.89
7.6
8.19
8.29
8.16
7.63
7.09
6.56
5.95
5.36
4.48
3.57
2.88
2.16
1.47
0.45
-0.72
-1.47
-2.27
-3.04
-3.76
-4.72
-5.36
-5.79
-6.16
-6.48
-6.8
-7.01
-7.12
-7.2
-7.2
-7.12
-7.01
-6.91
-6.8
-6.69
-6.59
-6.4
-6.29
-6.19
-6.08
-6.05
-5.89
-5.84
-5.76
-5.71
-5.68
-5.57
-5.52
-5.44
-5.41
-5.36
-5.28
-5.2
-5.2
-5.12
-4.93
-4.08
-2.8
-0.96
1.07
3.2
4.93
6.8
7.52
7.73
7.68
7.44
6.83
6.29
5.76
5.15
4.56
3.68
2.85
2.16
1.44
0.69
-0.05
-0.8
-1.97
-2.93
-3.6
-4.29
-5.15
-5.68
-6.08
-6.4
-6.64
-6.93
-7.09
-7.12
-7.12
-7.07
-6.96
-6.85
-6.75
-6.64
-6.53
-6.43
-6.24
-6.13
-6.08
-6
-5.89
-5.79
-5.76
-5.65
-5.55
-5.52
-5.41
-5.36
-5.28
-5.25
-5.2
-5.2
-5.17
-5.01
-4.64
-4.08
-2.43
0
2.16
4.13
5.92
6.85
7.71
7.84
7.76
7.44
7.04
6.29
5.6
5.04
4.43
3.84
2.88
1.97
1.28
0.56
-0.19
-1.15
-2.24
-2.99
-3.68
-4.32
-4.91
-5.65
-6.16
-6.45
-6.67
-6.88
-6.99
-7.04
-7.04
-7.01
-6.91
-6.8
-6.61
-6.51
-6.4
-6.29
-6.19
-6
-5.97
-5.87
-5.76
-5.73
-5.63
-5.6
-5.52
-5.47
-5.44
-5.33
-5.28
-5.2
-5.2
-5.2
-5.2
-5.12
-5.07
-4.96
-4.69
-3.73
-2.24
-0.29
1.84
4.08
5.6
7.25
7.84
7.97
7.87
7.52
6.88
6.29
5.76
5.15
4.56
3.68
2.88
2.24
1.52
0.85
0.11
-0.64
-1.79
-2.69
-3.36
-4.05
-4.91
-5.52
-5.92
-6.24
-6.56
-6.77
-6.93
-6.96
-6.96
-6.96
-6.88
-6.69
-6.59
-6.48
-6.29
-6.19
-6.08
-5.97
-5.92
-5.84
-5.73
-5.63
-5.6
-5.52
-5.47
-5.44
-5.33
-5.28
-5.2
-5.2
-5.2
-5.2
-5.12
-5.07
-5.04
-5.04
-4.93
-4.72
-2.77
-0.69
1.44
3.55
5.95
6.96
7.47
7.57
7.44
6.93
6.45
6
5.39
4.8
3.92
3.12
2.53
1.84
1.17
0.27
-0.8
-1.55
-2.29
-2.96
-3.76
-4.72
-5.36
-5.87
-6.29
-6.64
-7.04
-7.25
-7.36
-7.44
-7.44
-7.36
-7.25
-7.15
-7.04
-6.85
-6.75
-6.56
-6.45
-6.35
-6.24
-6.21
-6.05
-6
-5.92
-5.87
-5.84
-5.73
-5.68
-5.6
-5.57
-5.52
-5.52
-5.44
-5.44
-5.44
-5.36
-5.36
-5.36
-5.23
-4.91
-4.48
-2.99
-0.48
1.68
3.68
5.28
6.32
6.99
7.31
7.2
6.88
6.45
5.68
4.99
4.45
3.84
3.2
2.35
1.36
0.64
-0.11
-0.88
-1.73
-2.85
-3.68
-4.32
-4.91
-5.44
-6.16
-6.64
-6.96
-7.17
-7.33
-7.44
-7.52
-7.52
-7.44
-7.33
-7.17
-6.96
-6.85
-6.75
-6.64
-6.53
-6.37
-6.24
-6.16
-6.11
-6
-5.89
-5.84
-5.76
-5.73
-5.68
-5.6
-5.52
-5.47
-5.44
-5.44
-5.39
-5.28
-5.17
-4.91
-4.48
-3.09
-0.75
1.44
3.47
5.17
6.32
7.09
7.47
7.44
7.12
6.69
6
5.28
4.69
4.08
3.44
2.59
1.6
0.85
0.11
-0.64
-1.57
-2.69
-3.52
-4.16
-4.75
-5.28
-6
-6.48
-6.8
-7.01
-7.23
-7.36
-7.44
-7.39
-7.36
-7.25
-7.15
-6.96
-6.85
-6.75
-6.64
-6.53
-6.37
-6.24
-6.16
-6.11
-6
-5.89
-5.84
-5.76
-5.73
-5.68
-5.6
-5.52
-5.47
-5.44
-5.36
-5.31
-5.2
-4.96
-4.43
-3.68
-1.84
1.09
3.28
5.12
6.4
7.12
7.55
7.65
7.44
7.01
6.53
5.76
5.04
4.4
3.76
3.12
2.27
1.2
0.45
-0.35
-1.12
-1.97
-3.09
-3.84
-4.48
-5.07
-5.6
-6.21
-6.64
-6.88
-7.07
-7.17
-7.28
-7.36
-7.31
-7.28
-7.17
-7.01
-6.8
-6.69
-6.59
-6.48
-6.37
-6.21
-6.08
-6
-5.95
-5.84
-5.73
-5.68
-5.6
-5.57
-5.52
-5.52
-5.44
-5.39
-5.44
-5.49
-5.12
-4.48
-3.28
-1.68
0.32
2.59
5.25
6.56
7.33
7.6
7.6
7.2
6.77
6.32
5.79
5.2
4.32
3.52
2.88
2.16
1.49
0.53
-0.56
-1.39
-2.13
-2.88
-3.68
-4.59
-5.2
-5.71
-6.13
-6.48
-6.8
-7.07
-7.2
-7.2
-7.2
-7.2
-7.09
-6.99
-6.88
-6.77
-6.67
-6.48
-6.37
-6.27
-6.16
-6.13
-5.97
-5.92
-5.84
-5.79
-5.76
-5.63
-5.52
-5.52
-5.49
-5.44
-5.44
-5.36
-5.31
-5.2
-4.93
-4.08
-2.72
-0.8
1.23
3.44
5.07
6.83
7.52
7.73
7.68
7.44
6.8
6.21
5.68
5.07
4.48
3.6
2.77
2.08
1.36
0.67
-0.13
-0.88
-2.03
-2.93
-3.68
-4.37
-5.17
-5.76
-6.16
-6.48
-6.72
-6.93
-7.09
-7.12
-7.09
-7.04
-6.96
-6.85
-6.75
-6.64
-6.53
-6.43
-6.24
-6.13
-6.08
-6
-5.89
-5.79
-5.76
-5.68
-5.63
-5.6
-5.49
-5.44
-5.36
-5.36
-5.36
-5.28
-5.2
-5.15
-4.96
-4.64
-3.41
-1.52
0.64
2.77
4.88
6.16
7.49
7.92
8.03
7.81
7.44
6.72
6.13
5.6
4.99
4.4
3.76
3.01
2
1.2
0.53
-0.21
-1.04
-2.19
-3.09
-3.76
-4.45
-5.25
-5.76
-6.16
-6.43
-6.64
-6.85
-7.01
-7.04
-7.01
-6.91
-6.8
-6.61
-6.51
-6.4
-6.29
-6.19
-6
-5.89
-5.84
-5.76
-5.73
-5.63
-5.6
-5.52
-5.47
-5.44
-5.41
-5.36
-5.28
-5.25
-5.2
-5.2
-5.12
-5.12
-5.12
-5.01
-4.64
-4
-2.72
-1.07
1.04
3.28
5.89
7.12
7.71
7.87
7.84
7.41
6.93
6.48
5.95
5.41
4.56
3.76
3.17
2.48
1.81
0.91
-0.08
-0.83
-1.57
-2.32
-3.12
-4.08
-4.72
-5.23
-5.65
-6.08
-6.48
-6.75
-6.88
-6.96
-6.96
-6.88
-6.77
-6.67
-6.56
-6.45
-6.35
-6.16
-6.05
-6
-5.92
-5.81
-5.71
-5.68
-5.6
-5.55
-5.44
-5.41
-5.36
-5.28
-5.25
-5.25
-5.28
-5.28
-5.28
-5.28
-5.28
-5.28
-5.2
-4.96
-4.32
-3.36
-1.31
1.84
4
5.6
6.61
7.2
7.33
7.28
6.96
6.53
6.05
5.28
4.56
3.97
3.36
2.72
1.92
0.96
0.24
-0.45
-1.2
-2.03
-3.09
-3.92
-4.56
-5.15
-5.68
-6.29
-6.72
-7.04
-7.23
-7.33
-7.36
-7.36
-7.31
-7.2
-7.09
-6.93
-6.72
-6.61
-6.51
-6.4
-6.29
-6.13
-6.08
-6
-5.95
-5.84
-5.73
-5.68
-5.6
-5.57
-5.52
-5.52
-5.44
-5.39
-5.36
-5.36
-5.36
-5.28
-5.28
-5.28
-5.2
-4.8
-3.79
-2.32
-0.61
1.47
3.36
5.41
6.69
7.2
7.2
7.04
6.56
6.03
5.55
4.96
4.4
3.6
2.72
2.08
1.39
0.72
-0.03
-0.77
-1.84
-2.83
-3.52
-4.16
-5.01
-5.71
-6.16
-6.56
-6.88
-7.2
-7.39
-7.44
-7.44
-7.44
-7.39
-7.2
-7.07
-6.91
-6.8
-6.67
-6.45
-6.32
-6.21
-6.11
-6.08
-5.95
-5.84
-5.76
-5.73
-5.68
-5.6
-5.52
-5.47
-5.44
-5.36
-5.36
-5.28
-5.28
-5.28
-5.2
-4.99
-4.45
-3.44
-2.11
-0.24
1.76
4.43
6.19
7.12
7.36
7.47
7.12
6.67
6.19
5.68
5.12
4.37
3.52
2.88
2.19
1.52
0.67
-0.45
-1.36
-2.11
-2.8
-3.52
-4.48
-5.23
-5.76
-6.16
-6.48
-6.88
-7.23
-7.33
-7.44
-7.44
-7.39
-7.28
-7.17
-7.07
-6.96
-6.83
-6.61
-6.48
-6.37
-6.27
-6.16
-6.05
-5.95
-5.84
-5.81
-5.76
-5.68
-5.6
-5.55
-5.52
-5.44
-5.44
-5.36
-5.33
-5.28
-5.2
-4.85
-4.11
-2.88
-1.33
0.75
2.8
5.25
6.8
7.52
7.65
7.65
7.2
6.75
6.27
5.76
5.2
4.4
3.52
2.88
2.19
1.52
0.67
-0.51
-1.36
-2.11
-2.85
-3.6
-4.53
-5.23
-5.76
-6.16
-6.48
-6.8
-7.07
-7.17
-7.28
-7.28
-7.23
-7.12
-7.01
-6.91
-6.8
-6.69
-6.53
-6.4
-6.29
-6.19
-6.16
-6.03
-5.97
-6
-5.89
-5.84
-5.76
-5.65
-5.55
-5.52
-5.44
-5.44
-5.36
-5.25
-5.04
-4.72
-3.55
-1.41
0.72
2.85
4.72
6
7.07
7.6
7.68
7.39
7.07
6.4
5.71
5.17
4.56
3.92
3.12
2.16
1.44
0.75
0
-0.93
-2.05
-2.88
-3.6
-4.24
-4.88
-5.63
-6.16
-6.48
-6.77
-6.99
-7.12
-7.2
-7.2
-7.2
-7.12
-7.07
-6.88
-6.77
-6.67
-6.48
-6.37
-6.21
-6.16
-6.05
-5.95
-5.92
-5.81
-5.71
-5.6
-5.57
-5.52
-5.44
-5.36
-5.36
-5.36
-5.28
-5.17
-4.96
-4.53
-3.79
-2.64
-0.43
2.67
4.64
6.05
6.96
7.44
7.55
7.44
7.12
6.61
6.13
5.36
4.64
4.05
3.44
2.77
1.87
0.88
0.13
-0.67
-1.44
-2.27
-3.33
-4.08
-4.69
-5.23
-5.68
-6.21
-6.59
-6.8
-6.99
-7.09
-7.12
-7.04
-6.99
-6.88
-6.77
-6.67
-6.48
-6.37
-6.27
-6.16
-6.13
-5.97
-5.92
-5.81
-5.71
-5.68
-5.57
-5.52
-5.44
-5.41
-5.36
-5.28
-5.2
-5.2
-5.2
-5.07
-4.64
-3.92
-2.61
-0.91
1.2
3.33
5.84
7.04
7.63
7.79
7.68
7.25
6.83
6.4
5.79
5.25
4.4
3.6
2.96
2.32
1.65
0.75
-0.32
-1.15
-1.89
-2.56
-3.36
-4.32
-4.96
-5.47
-5.89
-6.24
-6.64
-6.85
-6.96
-6.96
-6.96
-6.96
-6.85
-6.69
-6.56
-6.45
-6.35
-6.16
-6.05
-6
-5.92
-5.89
-5.73
-5.68
-5.6
-5.55
-5.52
-5.41
-5.36
-5.28
-5.25
-5.2
-5.2
-5.12
-5.12
-5.12
-5.01
-4.69
-4.16
-2.96
-1.36
0.64
2.91
5.57
6.8
7.49
7.71
7.68
7.28
6.85
6.4
5.89
5.36
4.56
3.76
3.12
2.48
1.84
0.99
-0.08
-0.83
-1.57
-2.32
-3.12
-4.08
-4.72
-5.23
-5.65
-6.08
-6.48
-6.75
-6.88
-6.96
-6.96
-6.88
-6.77
-6.67
-6.56
-6.45
-6.35
-6.16
-6.05
-6
-5.92
-5.81
-5.71
-5.68
-5.63
-5.68
-5.68
-5.57
-5.52
-5.44
-5.44
-5.44
-5.44
-5.44
-5.44
-5.44
-5.33
-4.96
-4.24
-2.85
-1.09
1.04
3.17
5.63
6.72
7.23
7.39
7.28
6.77
6.29
5.84
5.31
4.72
3.92
3.12
2.48
1.84
1.17
0.27
-0.8
-1.55
-2.29
-3.04
-3.84
-4.8
-5.44
-5.95
-6.32
-6.64
-7.04
-7.25
-7.36
-7.44
-7.44
-7.36
-7.25
-7.15
-7.04
-6.85
-6.75
-6.56
-6.45
-6.35
-6.24
-6.21
-6.05
-6
-5.92
-5.87
-5.84
-5.73
-5.68
-5.6
-5.57
-5.52
-5.52
-5.44
-5.44
-5.44
-5.44
-5.33
-5.04
-4.4
-3.39
-2
0.27
3.25
4.96
6.16
6.8
7.04
6.93
6.67
6.32
5.79
5.25
4.48
3.68
3.04
2.4
1.73
0.83
-0.16
-0.99
-1.73
-2.48
-3.31
-4.32
-4.96
-5.49
-5.97
-6.4
-6.83
-7.15
-7.28
-7.39
-7.44
-7.44
-7.36
-7.31
-7.2
-7.01
-6.91
-6.72
-6.61
-6.51
-6.4
-6.29
-6.13
-6.08
-5.97
-5.87
-5.84
-5.73
-5.68
-5.6
-5.57
-5.52
-5.52
-5.44
-5.39
-5.36
-5.25
-4.93
-4.32
-3.15
-1.65
0.24
2.48
5.09
6.4
7.09
7.36
7.36
6.96
6.53
6.08
5.55
4.96
4.16
3.33
2.64
1.92
1.25
0.29
-0.8
-1.63
-2.37
-3.12
-3.92
-4.83
-5.44
-5.95
-6.32
-6.64
-6.96
-7.23
-7.36
-7.36
-7.36
-7.36
-7.25
-7.15
-7.04
-6.93
-6.77
-6.56
-6.45
-6.35
-6.24
-6.21
-6.05
-6
-5.89
-5.79
-5.76
-5.65
-5.6
-5.52
-5.49
-5.44
-5.44
-5.36
-5.31
-5.28
-5.12
-4.43
-3.28
-1.55
0.43
2.56
4.43
6.51
7.36
7.68
7.68
7.44
6.91
6.37
5.84
5.23
4.64
3.76
2.88
2.24
1.52
0.77
-0.19
-1.36
-2.11
-2.85
-3.6
-4.32
-5.23
-5.76
-6.19
-6.56
-6.8
-7.09
-7.25
-7.28
-7.28
-7.28
-7.2
-7.01
-6.91
-6.8
-6.69
-6.59
-6.4
-6.29
-6.19
-6.08
-6.13
-6.03
-6
-5.89
-5.79
-5.76
-5.65
-5.6
-5.52
-5.49
-5.44
-5.36
-5.09
-4.67
-3.76
-2.51
-0.05
3.04
4.77
6.16
7.12
7.39
7.49
7.28
6.99
6.51
6
5.15
4.4
3.84
3.2
2.51
1.52
0.53
-0.21
-1.04
-1.79
-2.69
-3.76
-4.4
-4.99
-5.52
-5.97
-6.51
-6.8
-7.01
-7.17
-7.2
-7.2
-7.2
-7.12
-7.01
-6.91
-6.8
-6.61
-6.51
-6.4
-6.29
-6.19
-6.08
-5.97
-5.92
-5.84
-5.81
-5.65
-5.6
-5.52
-5.47
-5.44
-5.41
-5.36
-5.28
-5.25
-5.09
-4.4
-3.39
-1.89
0.08
2.16
4.29
6.64
7.2
7.57
7.68
7.39
6.91
6.4
5.92
5.33
4.72
3.87
3.12
2.48
1.76
1.07
0
-1.07
-1.81
-2.56
-3.31
-4.16
-5.04
-5.55
-5.97
-6.32
-6.64
-6.91
-7.04
-7.04
-7.04
-7.04
-6.93
-6.83
-6.72
-6.61
-6.51
-6.4
-6.21
-6.11
-6.08
-6
-5.95
-5.76
-5.73
-5.68
-5.6
-5.57
-5.47
-5.44
-5.36
-5.31
-5.28
-5.17
-5.07
-4.88
-4.35
-3.44
-1.12
1.41
3.55
5.2
6.51
7.15
7.76
7.65
7.39
7.04
6.45
5.71
5.04
4.48
3.89
3.28
2.32
1.47
0.8
0.05
-0.75
-1.84
-2.83
-3.52
-4.16
-4.69
-5.33
-6
-6.32
-6.59
-6.8
-6.91
-6.96
-6.96
-6.88
-6.83
-6.72
-6.59
-6.43
-6.32
-6.21
-6.11
-6
-5.92
-5.87
-5.84
-5.73
-5.63
-5.52
-5.49
-5.44
-5.36
-5.36
-5.31
-5.28
-5.2
-5.15
-5.12
-4.99
-4.67
-4.16
-2.96
-1.36
0.64
2.88
5.49
6.72
7.41
7.52
7.52
7.2
6.77
6.32
5.71
4.91
4.24
3.6
3.01
2.4
1.36
0.51
-0.24
-0.99
-1.73
-2.72
-3.68
-4.32
-4.88
-5.39
-5.87
-6.4
-6.61
-6.77
-6.88
-6.88
-6.83
-6.8
-6.69
-6.59
-6.48
-6.35
-6.19
-6.08
-6.05
-5.95
-5.84
-5.76
-5.71
-5.68
-5.6
-5.6
-5.6
-5.57
-5.52
-5.44
-5.44
-5.39
-5.36
-5.28
-5.28
-5.28
-4.85
-4.16
-3.2
-1.39
0.59
3.2
5.6
6.56
7.04
7.33
7.12
6.8
6.29
5.81
5.28
4.67
3.81
3.12
2.48
1.84
1.2
0.53
-0.21
-0.96
-2.11
-3.01
-3.92
-4.8
-5.39
-5.84
-6.27
-6.69
-7.04
-7.23
-7.33
-7.36
-7.33
-7.23
-7.12
-7.01
-6.91
-6.8
-6.67
-6.51
-6.4
-6.29
-6.24
-6.16
-6
-5.95
-5.92
-5.84
-5.79
-5.68
-5.65
-5.6
-5.52
-5.52
-5.47
-5.44
-5.44
-5.39
-5.36
-5.04
-4.45
-3.6
-2
-0.19
2.48
4.91
6.03
6.64
7.04
6.88
6.64
6.21
5.73
5.28
4.59
3.73
3.04
2.48
1.84
1.12
0.45
-0.29
-1.04
-2.19
-3.09
-4.08
-4.93
-5.47
-5.92
-6.35
-6.77
-7.12
-7.23
-7.33
-7.36
-7.36
-7.31
-7.2
-7.09
-6.93
-6.8
-6.67
-6.51
-6.4
-6.29
-6.19
-6.08
-5.97
-5.87
-5.84
-5.76
-5.71
-5.6
-5.57
-5.52
-5.44
-5.44
-5.39
-5.36
-5.28
-5.28
-5.2
-4.67
-3.87
-2.72
-0.88
1.09
3.6
5.89
6.75
7.12
7.33
7.07
6.72
6.21
5.73
5.2
4.48
3.57
2.88
2.21
1.52
0.8
0.11
-0.69
-1.44
-2.59
-3.49
-4.4
-5.17
-5.71
-6.16
-6.48
-6.8
-7.12
-7.23
-7.33
-7.36
-7.33
-7.23
-7.12
-7.01
-6.91
-6.8
-6.59
-6.43
-6.32
-6.21
-6.16
-6.08
-5.92
-5.87
-5.76
-5.68
-5.63
-5.52
-5.49
-5.44
-5.36
-5.36
-5.31
-5.28
-5.15
-4.88
-4.24
-2.4
-0.37
1.76
3.71
5.36
6.56
7.52
7.57
7.44
7.17
6.59
5.84
5.31
4.72
4.08
3.36
2.4
1.6
0.93
0.19
-0.64
-1.79
-2.69
-3.44
-4.08
-4.72
-5.44
-6.11
-6.48
-6.8
-6.99
-7.15
-7.28
-7.28
-7.28
-7.2
-7.09
-6.93
-6.8
-6.69
-6.59
-6.48
-6.35
-6.19
-6.08
-5.97
-5.92
-5.84
-5.76
-5.71
-5.76
-5.73
-5.63
-5.6
-5.52
-5.47
-5.36
-5.17
-4.69
-3.76
-2.43
-0.56
1.52
4.29
6.11
7.04
7.36
7.47
7.12
6.75
6.27
5.76
5.28
4.53
3.68
3.04
2.35
1.68
0.83
-0.29
-1.2
-1.95
-2.69
-3.44
-4.4
-5.15
-5.68
-6.11
-6.48
-6.8
-7.07
-7.17
-7.2
-7.2
-7.15
-7.04
-6.93
-6.83
-6.72
-6.61
-6.45
-6.32
-6.24
-6.19
-6.08
-5.97
-5.92
-5.84
-5.73
-5.68
-5.6
-5.52
-5.47
-5.44
-5.36
-5.36
-5.28
-5.25
-5.09
-4.8
-3.76
-1.79
0.24
2.32
4.29
5.68
6.88
7.52
7.6
7.31
6.99
6.32
5.71
5.17
4.56
4
3.2
2.24
1.52
0.83
0.08
-0.77
-1.95
-2.8
-3.47
-4.16
-4.8
-5.55
-6.08
-6.4
-6.69
-6.91
-7.04
-7.12
-7.12
-7.04
-6.96
-6.85
-6.64
-6.53
-6.43
-6.32
-6.21
-6.11
-6
-5.92
-5.87
-5.84
-5.73
-5.63
-5.52
-5.49
-5.44
-5.36
-5.28
-5.28
-5.28
-5.2
-5.04
-4.72
-4.05
-2.93
-1.44
0.91
3.95
5.68
6.85
7.39
7.6
7.41
7.15
6.8
6.29
5.76
4.96
4.16
3.57
2.96
2.29
1.39
0.4
-0.43
-1.17
-1.92
-2.75
-3.76
-4.48
-5.09
-5.57
-6
-6.43
-6.75
-6.88
-6.99
-7.04
-6.96
-6.88
-6.83
-6.72
-6.61
-6.51
-6.32
-6.21
-6.11
-6
-5.97
-5.81
-5.76
-5.68
-5.63
-5.6
-5.49
-5.44
-5.36
-5.33
-5.28
-5.28
-5.2
-5.15
-5.12
-5.09
-4.72
-4
-2.72
-1.07
1.04
3.2
5.76
6.88
7.49
7.71
7.6
7.17
6.69
6.24
5.71
5.12
4.32
3.52
2.88
2.24
1.57
0.67
-0.4
-1.15
-1.89
-2.64
-3.44
-4.4
-5.04
-5.47
-5.89
-6.24
-6.64
-6.85
-6.88
-6.96
-6.96
-6.88
-6.77
-6.61
-6.48
-6.37
-6.27
-6.08
-5.97
-5.92
-5.84
-5.81
-5.71
-5.6
-5.52
-5.47
-5.44
-5.41
-5.36
-5.28
-5.25
-5.25
-5.28
-5.28
-5.28
-5.2
-5.01
-4.16
-2.88
-1.04
0.99
3.2
4.83
6.59
7.2
7.41
7.31
7.04
6.4
5.81
5.28
4.67
4.08
3.2
2.4
1.76
1.12
0.45
-0.29
-1.04
-2.19
-3.09
-3.76
-4.48
-5.39
-6
-6.4
-6.72
-6.96
-7.25
-7.36
-7.36
-7.36
-7.36
-7.28
-7.09
-6.93
-6.8
-6.69
-6.59
-6.4
-6.29
-6.24
-6.16
-6.05
-6
-5.92
-5.89
-5.79
-5.76
-5.65
-5.6
-5.52
-5.49
-5.44
-5.44
-5.36
-5.36
-5.36
-5.36
-5.2
-4.8
-3.92
-2.59
-0.88
1.44
4.32
5.84
6.75
7.17
7.2
6.88
6.51
6.08
5.55
4.96
4.16
3.36
2.72
2.08
1.41
0.45
-0.64
-1.39
-2.13
-2.88
-3.68
-4.64
-5.36
-5.87
-6.29
-6.64
-7.04
-7.31
-7.44
-7.52
-7.52
-7.44
-7.33
-7.23
-7.12
-6.93
-6.77
-6.56
-6.45
-6.35
-6.24
-6.21
-6.05
-6
-5.89
-5.79
-5.76
-5.65
-5.6
-5.52
-5.49
-5.44
-5.44
-5.36
-5.36
-5.36
-5.25
-4.88
-4.16
-2.88
-1.28
0.64
2.77
5.28
6.48
7.15
7.31
7.2
6.77
6.29
5.84
5.23
4.64
3.76
2.96
2.32
1.6
0.85
-0.11
-1.2
-2.03
-2.77
-3.44
-4.24
-5.15
-5.76
-6.19
-6.56
-6.88
-7.17
-7.33
-7.44
-7.44
-7.44
-7.36
-7.17
-7.07
-6.96
-6.85
-6.69
-6.48
-6.37
-6.32
-6.24
-6.13
-5.97
-5.92
-5.84
-5.79
-5.68
-5.57
-5.52
-5.44
-5.41
-5.36
-5.36
-5.28
-5.23
-5.12
-4.85
-3.89
-2.32
-0.37
1.65
3.76
5.36
6.96
7.52
7.71
7.55
7.28
6.56
5.97
5.44
4.83
4.24
3.28
2.37
1.68
0.96
0.19
-0.61
-1.36
-2.51
-3.41
-4.08
-4.77
-5.57
-6.08
-6.48
-6.75
-6.96
-7.17
-7.28
-7.28
-7.28
-7.23
-7.12
-6.93
-6.83
-6.72
-6.61
-6.51
-6.32
-6.21
-6.11
-6
-5.97
-5.87
-5.76
-5.68
-5.63
-5.6
-5.6
-5.6
-5.52
-5.49
-5.44
-5.36
-5.12
-4.75
-3.84
-2.59
-0.19
2.88
4.61
6
7.04
7.31
7.47
7.28
6.99
6.51
6
5.17
4.48
3.84
3.2
2.51
1.52
0.53
-0.21
-1.04
-1.79
-2.69
-3.76
-4.4
-5.04
-5.6
-6.05
-6.59
-6.88
-7.07
-7.17
-7.28
-7.25
-7.2
-7.12
-7.01
-6.91
-6.8
-6.61
-6.51
-6.4
-6.29
-6.19
-6.08
-5.97
-5.92
-5.84
-5.73
-5.63
-5.6
-5.52
-5.47
-5.44
-5.33
-5.28
-5.28
-5.25
-5.15
-4.72
-4.05
-2.93
-1.2
0.75
3.09
5.84
6.72
7.36
7.68
7.49
7.12
6.64
6.19
5.65
5.04
4.19
3.44
2.8
2.08
1.39
0.64
-0.11
-0.91
-2
-2.99
-3.84
-4.8
-5.31
-5.73
-6.16
-6.51
-6.88
-7.04
-7.07
-7.12
-7.12
-7.01
-6.91
-6.8
-6.69
-6.59
-6.48
-6.29
-6.19
-6.08
-6
-5.95
-5.84
-5.73
-5.68
-5.6
-5.57
-5.47
-5.44
-5.36
-5.31
-5.28
-5.17
-5.12
-5.04
-4.8
-4.27
-2.64
-0.67
1.47
3.44
5.25
6.43
7.68
7.71
7.65
7.44
6.93
6.24
5.6
5.04
4.45
3.84
2.91
2.11
1.44
0.69
-0.05
-1.12
-2.11
-2.85
-3.6
-4.24
-4.93
-5.68
-6.08
-6.4
-6.64
-6.85
-7.01
-7.04
-7.04
-6.99
-6.88
-6.75
-6.59
-6.48
-6.37
-6.27
-6.16
-6
-5.95
-5.84
-5.76
-5.71
-5.6
-5.57
-5.52
-5.44
-5.41
-5.36
-5.28
-5.2
-5.15
-5.12
-5.09
-5.04
-4.96
-4.64
-4
-2.08
0.13
2.32
4.24
5.87
6.93
7.44
7.65
7.6
7.36
6.77
6.08
5.44
4.88
4.29
3.68
2.72
1.92
1.28
0.53
-0.21
-0.96
-1.81
-2.93
-3.68
-4.32
-5.01
-5.76
-6.08
-6.4
-6.64
-6.83
-6.93
-6.96
-6.93
-6.83
-6.72
-6.61
-6.51
-6.32
-6.21
-6.11
-6
-5.89
-5.79
-5.76
-5.68
-5.63
-5.52
-5.49
-5.44
-5.36
-5.33
-5.23
-5.28
-5.36
-5.31
-5.28
-5.25
-5.15
-5.04
-4.61
-3.87
-2.72
-0.51
2.59
4.56
6.05
6.91
7.28
7.31
7.2
6.88
6.29
5.55
4.88
4.32
3.73
3.12
2.16
1.31
0.64
-0.11
-0.85
-1.6
-2.43
-3.49
-4.24
-4.85
-5.49
-6.24
-6.56
-6.88
-7.12
-7.23
-7.33
-7.36
-7.33
-7.23
-7.12
-6.99
-6.83
-6.72
-6.59
-6.43
-6.32
-6.21
-6.11
-6.08
-5.97
-5.87
-5.76
-5.73
-5.68
-5.6
-5.57
-5.52
-5.52
-5.44
-5.39
-5.36
-5.36
-5.36
-5.36
-5.33
-5.23
-4.8
-4.11
-2.88
-1.12
0.91
2.99
4.64
6.16
7.07
7.28
7.09
6.67
6.16
5.68
5.09
4.48
3.63
2.88
2.24
1.52
0.83
0.08
-0.67
-1.41
-2.48
-3.47
-4.32
-5.2
-5.71
-6.13
-6.56
-6.88
-7.2
-7.36
-7.44
-7.44
-7.44
-7.36
-7.25
-7.04
-6.93
-6.83
-6.64
-6.45
-6.35
-6.24
-6.13
-6.03
-5.92
-5.89
-5.79
-5.68
-5.65
-5.6
-5.52
-5.44
-5.44
-5.44
-5.33
-5.28
-5.28
-5.25
-5.2
-4.88
-4.32
-3.31
-1.76
0.03
2.11
3.92
5.84
6.96
7.36
7.2
6.88
6.4
5.95
5.41
4.88
3.95
3.2
2.56
1.84
1.15
0.48
-0.45
-1.57
-2.4
-3.15
-4
-4.96
-5.49
-5.97
-6.4
-6.75
-7.12
-7.28
-7.39
-7.44
-7.44
-7.36
-7.31
-7.12
-7.01
-6.91
-6.72
-6.53
-6.43
-6.32
-6.21
-6.11
-6
-5.89
-5.84
-5.76
-5.73
-5.68
-5.6
-5.52
-5.47
-5.44
-5.33
-5.28
-5.28
-5.17
-4.96
-4.08
-2.88
-1.23
0.8
2.93
4.75
6.08
7.07
7.6
7.6
7.23
6.69
6.16
5.6
5.01
4.4
3.47
2.67
2
1.25
0.51
-0.24
-1.17
-2.29
-3.12
-3.76
-4.56
-5.44
-5.87
-6.24
-6.56
-6.85
-7.07
-7.2
-7.28
-7.28
-7.28
-7.17
-7.07
-6.88
-6.77
-6.67
-6.56
-6.37
-6.27
-6.16
-6.08
-6.03
-5.84
-5.81
-5.81
-5.84
-5.73
-5.68
-5.6
-5.52
-5.47
-5.44
-5.23
-4.85
-4.32
-3.04
-1.44
1.36
4.05
5.6
6.56
7.25
7.52
7.44
7.04
6.61
6.08
5.47
4.61
3.92
3.36
2.72
2
0.93
0.03
-0.72
-1.55
-2.29
-2.96
-3.76
-4.72
-5.36
-5.79
-6.27
-6.72
-6.93
-7.09
-7.12
-7.2
-7.15
-7.12
-7.01
-6.91
-6.8
-6.69
-6.59
-6.4
-6.29
-6.24
-6.16
-6
-5.95
-5.92
-5.81
-5.71
-5.6
-5.57
-5.52
-5.44
-5.41
-5.36
-5.36
-5.25
-5.15
-4.96
-4
-2.72
-1.12
1.01
3.04
5.12
6.91
7.39
7.52
7.55
7.33
6.96
6.24
5.6
5.04
4.32
3.41
2.72
2.05
1.36
0.64
-0.13
-1.15
-2.24
-2.99
-3.68
-4.32
-4.99
-5.73
-6.16
-6.48
-6.8
-7.04
-7.12
-7.12
-7.04
-7.01
-6.85
-6.72
-6.61
-6.51
-6.4
-6.29
-6.19
-6
-5.97
-5.92
-5.84
-5.68
-5.63
-5.6
-5.52
-5.47
-5.36
-5.36
-5.36
-5.28
-5.25
-5.2
-5.12
-4.96
-4.59
-3.76
-1.41
0.83
3.04
4.77
6.16
7.04
7.73
7.68
7.44
7.09
6.67
6.16
5.33
4.64
4.08
3.36
2.4
1.6
0.93
0.19
-0.64
-1.79
-2.69
-3.36
-4
-4.64
-5.2
-5.73
-6.27
-6.56
-6.77
-6.93
-6.96
-6.96
-6.96
-6.88
-6.77
-6.61
-6.48
-6.37
-6.27
-6.16
-6.05
-5.95
-5.84
-5.81
-5.76
-5.68
-5.6
-5.55
-5.52
-5.44
-5.39
-5.28
-5.25
-5.2
-5.2
-5.17
-5.12
-5.04
-4.85
-4.43
-3.52
-1.04
1.36
3.6
5.23
6.51
7.28
7.81
7.71
7.44
7.09
6.67
6.16
5.31
4.56
4
3.28
2.32
1.52
0.85
0.11
-0.64
-1.79
-2.69
-3.36
-4
-4.59
-5.12
-5.65
-6.19
-6.56
-6.75
-6.85
-6.96
-6.96
-6.91
-6.8
-6.69
-6.53
-6.4
-6.29
-6.19
-6.08
-6
-5.95
-5.76
-5.73
-5.68
-5.6
-5.44
-5.39
-5.36
-5.28
-5.33
-5.36
-5.33
-5.28
-5.28
-5.28
-5.28
-5.2
-5.04
-4.72
-3.92
-1.68
0.56
2.8
4.53
5.92
6.8
7.49
7.44
7.2
6.91
6.43
5.92
5.09
4.4
3.84
3.12
2.16
1.44
0.77
0.03
-0.72
-1.87
-2.77
-3.52
-4.16
-4.8
-5.36
-5.92
-6.51
-6.88
-7.09
-7.25
-7.36
-7.36
-7.36
-7.28
-7.17
-7.01
-6.88
-6.69
-6.59
-6.48
-6.37
-6.27
-6.08
-6.05
-5.95
-5.84
-5.76
-5.71
-5.68
-5.6
-5.6
-5.52
-5.49
-5.44
-5.44
-5.41
-5.36
-5.36
-5.36
-5.36
-5.36
-5.12
-4.59
-3.76
-2.24
-0.37
2.4
4.93
6.16
6.88
7.28
7.28
7.12
6.59
6.05
5.52
4.88
3.97
3.28
2.64
2
1.28
0.21
-0.69
-1.44
-2.27
-3.01
-3.68
-4.45
-5.31
-5.92
-6.35
-6.77
-7.2
-7.39
-7.49
-7.52
-7.49
-7.39
-7.28
-7.17
-7.07
-6.96
-6.77
-6.61
-6.4
-6.29
-6.24
-6.16
-6
-5.95
-5.84
-5.76
-5.71
-5.6
-5.57
-5.52
-5.44
-5.44
-5.44
-5.44
-5.36
-5.31
-5.2
-4.85
-4.21
-3.28
-1.57
0.29
2.88
5.31
6.37
6.96
7.28
7.28
7.04
6.43
5.89
5.36
4.67
3.81
3.12
2.45
1.76
1.04
0.35
-0.45
-1.2
-2.35
-3.25
-3.92
-4.61
-5.47
-6
-6.4
-6.77
-7.12
-7.31
-7.41
-7.44
-7.44
-7.39
-7.28
-7.17
-7.07
-6.96
-6.77
-6.67
-6.48
-6.37
-6.27
-6.16
-6.05
-5.95
-5.92
-5.81
-5.71
-5.6
-5.57
-5.52
-5.44
-5.44
-5.44
-5.44
-5.33
-5.23
-4.96
-3.87
-2.43
-0.72
1.44
3.47
5.44
7.07
7.55
7.68
7.6
7.28
6.88
6.13
5.44
4.88
4.16
3.2
2.4
1.73
1.04
0.24
-0.53
-1.55
-2.64
-3.36
-4
-4.64
-5.31
-6
-6.4
-6.69
-6.96
-7.2
-7.28
-7.28
-7.28
-7.25
-7.09
-6.96
-6.85
-6.75
-6.64
-6.53
-6.43
-6.24
-6.13
-6.08
-6
-5.87
-5.92
-5.92
-5.84
-5.79
-5.68
-5.65
-5.6
-5.52
-5.41
-5.25
-4.56
-3.57
-2.13
-0.24
2.85
5.09
6.48
7.12
7.49
7.44
7.25
6.88
6.4
5.87
5.33
4.72
3.79
3.04
2.4
1.55
0.43
-0.48
-1.23
-1.97
-2.72
-3.79
-4.64
-5.2
-5.71
-6.13
-6.48
-6.8
-7.07
-7.2
-7.2
-7.2
-7.12
-7.09
-6.99
-6.88
-6.77
-6.61
-6.48
-6.37
-6.27
-6.24
-6.13
-6.03
-5.92
-5.89
-5.79
-5.68
-5.6
-5.55
-5.52
-5.44
-5.44
-5.36
-5.33
-5.23
-5.12
-4.88
-4.29
-2.56
-0.43
1.71
3.6
5.76
7.09
7.6
7.63
7.52
7.04
6.51
6.03
5.44
4.88
4.29
3.68
3.04
2.19
1.12
0.37
-0.37
-1.44
-2.43
-3.17
-3.84
-4.77
-5.47
-5.92
-6.24
-6.56
-6.8
-6.99
-7.04
-7.04
-7.04
-6.99
-6.8
-6.69
-6.59
-6.48
-6.37
-6.21
-6.16
-6.08
-6.03
-5.92
-5.84
-5.79
-5.68
-5.65
-5.6
-5.52
-5.44
-5.39
-5.36
-5.28
-5.23
-5.12
-4.91
-4.48
-3.84
-2.45
-0.75
2.08
4.75
6.19
7.04
7.49
7.65
7.52
7.12
6.69
6
5.28
4.69
4.08
3.52
2.88
2.16
1.09
0.19
-0.56
-1.41
-2.53
-3.36
-4
-4.59
-5.12
-5.84
-6.32
-6.56
-6.77
-6.93
-6.96
-6.96
-6.96
-6.88
-6.77
-6.67
-6.48
-6.37
-6.27
-6.16
-6.13
-5.97
-5.92
-5.84
-5.79
-5.76
-5.65
-5.55
-5.44
-5.41
-5.36
-5.36
-5.28
-5.23
-5.2
-5.12
-5.07
-4.88
-4.45
-3.65
-2.48
-0.56
1.47
4
6.29
7.15
7.52
7.55
7.44
7.12
6.69
6.21
5.44
4.64
4.05
3.44
2.85
2.16
1.52
0.45
-0.45
-1.2
-2.03
-3.09
-3.84
-4.48
-5.07
-5.52
-6.05
-6.43
-6.64
-6.75
-6.85
-6.88
-6.85
-6.75
-6.64
-6.53
-6.43
-6.24
-6.13
-6.08
-6
-5.89
-5.79
-5.68
-5.6
-5.55
-5.52
-5.44
-5.39
-5.28
-5.39
-5.44
-5.36
-5.28
-5.23
-5.2
-5.17
-4.85
-4.32
-3.23
-1.68
0.24
2.37
4.24
5.84
7.17
7.44
7.44
7.04
6.61
6.16
5.63
5.04
4.24
3.44
2.85
2.16
1.52
0.88
0.16
-0.59
-1.55
-2.64
-3.44
-4.4
-5.12
-5.65
-6.13
-6.48
-6.88
-7.09
-7.2
-7.28
-7.28
-7.28
-7.17
-7.01
-6.88
-6.77
-6.67
-6.48
-6.37
-6.32
-6.24
-6.13
-6.03
-5.92
-5.84
-5.79
-5.76
-5.68
-5.63
-5.52
-5.52
-5.52
-5.44
-5.44
-5.39
-5.36
-5.36
-5.36
-5.28
-5.04
-4.51
-3.68
-2.05
-0.19
2.48
5.01
6.19
6.8
7.04
7.04
6.8
6.37
5.89
5.12
4.4
3.81
3.2
2.56
1.92
1.2
0.13
-0.77
-1.52
-2.37
-3.49
-4.24
-4.85
-5.39
-5.92
-6.53
-6.91
-7.12
-7.31
-7.41
-7.44
-7.41
-7.31
-7.2
-7.09
-6.93
-6.72
-6.61
-6.51
-6.4
-6.29
-6.13
-6.08
-5.97
-5.87
-5.84
-5.76
-5.71
-5.6
-5.57
-5.52
-5.44
-5.36
-5.36
-5.36
-5.28
-5.23
-5.12
-4.67
-3.87
-2.8
-0.99
0.93
2.96
4.59
6.35
7.04
7.07
6.96
6.64
6.13
5.65
4.88
4.08
3.49
2.88
2.21
1.52
0.8
-0.35
-1.31
-2.08
-2.91
-3.97
-4.72
-5.25
-5.73
-6.16
-6.69
-7.07
-7.2
-7.31
-7.41
-7.44
-7.41
-7.31
-7.2
-7.09
-6.93
-6.72
-6.61
-6.51
-6.4
-6.29
-6.13
-6
-5.92
-5.87
-5.84
-5.76
-5.71
-5.6
-5.57
-5.52
-5.44
-5.36
-5.36
-5.36
-5.25
-4.99
-4.48
-3.41
-1.97
-0.16
1.97
3.89
5.68
7.2
7.52
7.52
7.2
6.77
6.32
5.79
5.2
4.4
3.6
2.96
2.24
1.57
0.83
0
-0.77
-1.79
-2.88
-3.68
-4.64
-5.28
-5.79
-6.21
-6.56
-6.88
-7.09
-7.2
-7.28
-7.28
-7.28
-7.17
-7.07
-6.96
-6.77
-6.67
-6.48
-6.37
-6.27
-6.16
-6.13
-5.97
-5.92
-5.81
-5.71
-5.76
-5.76
-5.71
-5.6
-5.57
-5.52
-5.44
-5.31
-5.04
-4.4
-3.47
-1.28
1.6
3.55
5.2
6.48
7.12
7.44
7.28
7.09
6.72
6.24
5.41
4.72
4.16
3.52
2.88
1.92
1.01
0.27
-0.56
-1.33
-2.13
-2.88
-3.92
-4.72
-5.28
-5.84
-6.43
-6.72
-6.93
-7.09
-7.2
-7.2
-7.2
-7.12
-7.01
-6.91
-6.8
-6.69
-6.53
-6.4
-6.32
-6.27
-6.08
-6.05
-5.95
-5.84
-5.81
-5.71
-5.68
-5.6
-5.55
-5.52
-5.44
-5.39
-5.28
-5.25
-5.09
-4.56
-3.68
-2.35
-0.48
1.55
3.79
6.24
6.91
7.39
7.6
7.39
7.07
6.48
5.87
5.33
4.72
3.79
3.04
2.4
1.68
0.99
0.24
-0.51
-1.31
-2.32
-3.31
-4
-4.64
-5.39
-5.97
-6.32
-6.64
-6.91
-7.04
-7.12
-7.12
-7.04
-6.93
-6.83
-6.64
-6.53
-6.43
-6.32
-6.21
-6.11
-6
-5.92
-5.87
-5.84
-5.76
-5.71
-5.6
-5.57
-5.47
-5.44
-5.36
-5.31
-5.28
-5.2
-5.09
-4.88
-4.43
-3.57
-1.44
1.01
3.15
4.88
6.27
6.96
7.68
7.57
7.36
7.04
6.53
6.05
5.28
4.56
3.92
3.28
2.32
1.47
0.8
0.05
-0.75
-1.84
-2.83
-3.52
-4.16
-4.77
-5.31
-5.76
-6.29
-6.67
-6.88
-6.99
-7.04
-7.04
-6.93
-6.83
-6.72
-6.59
-6.43
-6.32
-6.21
-6.11
-6
-5.97
-5.81
-5.76
-5.68
-5.63
-5.52
-5.49
-5.44
-5.36
-5.33
-5.23
-5.2
-5.12
-5.12
-5.12
-5.01
-4.64
-3.92
-2.61
-0.91
1.92
4.59
6.03
6.88
7.47
7.47
7.44
7.04
6.61
6.16
5.63
5.09
4.32
3.52
2.88
2.24
1.2
0.35
-0.4
-1.15
-1.89
-2.88
-3.84
-4.48
-5.04
-5.55
-5.97
-6.32
-6.64
-6.85
-6.88
-6.96
-6.91
-6.8
-6.69
-6.59
-6.48
-6.35
-6.19
-6.08
-6.05
-5.95
-5.84
-5.81
-5.71
-5.6
-5.52
-5.47
-5.36
-5.33
-5.28
-5.28
-5.25
-5.15
-5.2
-5.28
-5.28
-5.2
-5.07
-4.48
-3.52
-1.89
0.03
2.8
5.39
6.51
7.12
7.52
7.41
7.2
6.77
6.29
5.76
5.23
4.64
3.76
2.96
2.32
1.6
0.56
-0.29
-1.04
-1.79
-2.53
-3.52
-4.48
-5.07
-5.6
-6.03
-6.4
-6.72
-7.04
-7.25
-7.28
-7.28
-7.23
-7.12
-7.01
-6.91
-6.8
-6.67
-6.51
-6.4
-6.29
-6.24
-6.16
-6.05
-5.95
-5.92
-5.84
-5.79
-5.6
-5.6
-5.6
-5.52
-5.49
-5.39
-5.36
-5.36
-5.36
-5.36
-5.36
-5.31
-5.12
-4.67
-3.87
-1.76
0.69
2.83
4.48
5.89
6.64
7.28
7.17
6.91
6.56
6.05
5.57
4.8
4
3.41
2.8
1.84
0.99
0.24
-0.51
-1.25
-2
-2.83
-3.89
-4.64
-5.25
-5.79
-6.24
-6.77
-7.15
-7.28
-7.39
-7.49
-7.52
-7.41
-7.31
-7.2
-6.99
-6.83
-6.72
-6.59
-6.43
-6.32
-6.21
-6.11
-6
-5.92
-5.87
-5.76
-5.73
-5.68
-5.6
-5.57
-5.47
-5.44
-5.36
-5.36
-5.36
-5.28
-5.23
-5.04
-4.59
-3.73
-1.6
0.75
2.77
4.4
5.79
6.48
7.2
7.09
6.83
6.48
5.97
5.49
4.72
3.92
3.33
2.72
1.68
0.83
0.08
-0.75
-1.49
-2.56
-3.55
-4.24
-4.88
-5.41
-5.89
-6.32
-6.75
-7.07
-7.28
-7.39
-7.44
-7.44
-7.41
-7.31
-7.2
-6.99
-6.83
-6.72
-6.61
-6.51
-6.4
-6.29
-6.13
-6
-5.92
-5.87
-5.76
-5.73
-5.68
-5.6
-5.57
-5.47
-5.44
-5.36
-5.36
-5.36
-5.25
-4.88
-4.16
-2.96
-1.36
1.44
4.21
5.71
6.64
7.33
7.44
7.44
7.04
6.61
6.16
5.55
4.96
4.08
