0
0
0
0
0
0
0
0
0
0
0
0
0
0
0
0
0
0
0
0
0
0
0
0
0
0
0
0
0
0
0
0
0
0
0
0
0
0
0
0
0
0
0
0
0
0
0
0
0
0
0
0
0
0
0
0
0
0
0
0
0
0
0
0
0
0
0
0
0
0
0
0
0
0
0
0
0
0
0
0
0
0
0
0
0
0
0
0
0
0
0
0
0
0
0
0
0
0
0
0
0
0
0
0
0
0
0
0
0
0
0
0
0
0
0
0
0
0
0
0
0
0
0
0
0
0
0
0
0
0
0
0
0
0
0
0
0
0
0
0
0
0
0
0
0
0
0
0
0
0
-0.77
-1.25
-1.52
-1.73
-1.95
-2.16
-2.37
-2.53
-2.72
-2.96
-3.23
-3.44
-3.73
-3.95
-4.16
-4.37
-4.59
-4.88
-5.01
-5.23
-5.36
-5.57
-5.79
-5.92
-6
-5.84
-5.36
-4.03
-2.16
0.08
2.37
4.4
5.92
6.99
7.41
7.52
7.25
6.77
6.08
5.33
4.64
3.92
3.28
2.64
2.08
1.55
1.01
0.56
0.05
-0.37
-0.72
-1.12
-1.44
-1.68
-1.89
-2.11
-2.32
-2.53
-2.75
-2.96
-3.17
-3.39
-3.52
-3.73
-3.95
-4.08
-4.27
-4.37
-4.48
-4.51
-4.13
-3.44
-2.32
-0.93
0.48
1.84
2.8
3.36
3.6
3.55
3.28
2.83
2.29
1.76
1.23
0.75
0.32
-0.03
-0.45
-0.88
-1.09
-1.31
-1.52
-1.73
-2
-2.24
-2.53
-2.8
-3.04
-3.33
-3.55
-3.84
-3.97
-4.19
-4.4
-4.61
-4.83
-4.96
-5.12
-5.17
-5.04
-4.37
-3.31
-1.84
0.19
2.16
3.76
5.04
5.68
5.92
5.87
5.49
4.88
4.24
3.6
2.88
2.27
1.68
1.2
0.69
0.21
-0.24
-0.75
-1.07
-1.36
-1.68
-1.95
-2.16
-2.45
-2.67
-2.88
-3.09
-3.31
-3.52
-3.73
-3.95
-4.08
-4.29
-4.51
-4.64
-4.85
-5.01
-5.04
-4.99
-4.51
-3.6
-1.95
0.03
2
3.76
4.99
5.76
6.11
6.16
5.92
5.39
4.8
4.08
3.44
2.8
2.24
1.73
1.25
0.8
0.27
-0.21
-0.72
-1.12
-1.39
-1.68
-1.97
-2.19
-2.4
-2.61
-2.83
-3.04
-3.25
-3.47
-3.68
-3.89
-4.11
-4.24
-4.45
-4.61
-4.8
-5.01
-5.12
-5.12
-4.83
-4.19
-3.12
-1.57
0.08
1.6
2.77
3.52
4
3.87
3.55
3.12
2.56
1.92
1.36
0.85
0.37
-0.08
-0.51
-0.93
-1.28
-1.49
-1.71
-1.92
-2.11
-2.21
-2.4
-2.69
-2.91
-3.2
-3.41
-3.63
-3.84
-4.05
-4.27
-4.4
-4.61
-4.77
-4.96
-5.17
-5.33
-5.52
-5.47
-5.15
-4.4
-3.04
-1.07
1.12
3.12
4.83
6.16
6.69
6.96
6.96
6.59
6
5.36
4.69
4
3.36
2.72
2.13
1.6
1.15
0.67
0.16
-0.27
-0.69
-1.12
-1.41
-1.63
-1.92
-2.05
-2.27
-2.48
-2.69
-2.91
-3.04
-3.25
-3.41
-3.6
-3.81
-3.97
-4.16
-4.35
-4.51
-4.64
-4.72
-4.61
-4.16
-3.25
-1.97
-0.4
1.07
2.35
3.28
3.73
3.95
3.92
3.57
3.09
2.64
2.08
1.55
1.04
0.61
0.19
-0.24
-0.61
-0.83
-1.04
-1.17
-1.44
-1.76
-2
-2.27
-2.56
-2.77
-3.04
-3.28
-3.49
-3.71
-3.92
-4.13
-4.29
-4.48
-4.67
-4.83
-4.96
-4.88
-4.45
-3.52
-2.13
-0.37
1.6
3.17
4.4
5.2
5.57
5.57
5.2
4.75
4.16
3.52
2.85
2.21
1.68
1.15
0.67
0.24
-0.19
-0.67
-1.12
-1.44
-1.76
-2.08
-2.29
-2.51
-2.8
-3.01
-3.28
-3.44
-3.65
-3.87
-4.08
-4.32
-4.53
-4.72
-4.91
-5.07
-5.28
-5.44
-5.49
-5.36
-4.75
-3.63
-2
0.11
2.13
3.92
5.09
5.89
6.16
6.16
5.79
5.2
4.53
3.84
3.2
2.56
1.92
1.36
0.85
0.43
0
-0.51
-0.88
-1.2
-1.44
-1.71
-2
-2.21
-2.48
-2.72
-2.93
-3.09
-3.28
-3.52
-3.73
-3.92
-4.11
-4.27
-4.48
-4.67
-4.83
-5.04
-5.15
-5.25
-5.36
-5.12
-4.59
-3.6
-2.21
-0.51
0.96
2.24
3.04
3.52
3.55
3.23
2.8
2.27
1.73
1.2
0.61
0.13
-0.32
-0.67
-1.09
-1.52
-1.73
-1.95
-2.08
-2.21
-2.43
-2.56
-2.67
-2.77
-2.96
-3.2
-3.41
-3.6
-3.81
-4.03
-4.24
-4.43
-4.59
-4.72
-4.85
-5.07
-5.28
-5.39
-5.44
-5.28
-4.67
-3.44
-1.68
0.45
2.53
4.4
5.73
6.53
6.96
6.93
6.67
6.16
5.52
4.83
4.16
3.52
2.93
2.32
1.87
1.39
0.88
0.45
0.03
-0.4
-0.75
-1.12
-1.52
-1.76
-2.03
-2.24
-2.45
-2.67
-2.88
-3.07
-3.23
-3.44
-3.57
-3.79
-4
-4.13
-4.35
-4.48
-4.59
-4.69
-4.56
-4.16
-3.36
-2.24
-0.83
0.61
1.92
2.69
3.17
3.36
3.2
2.83
2.4
1.89
1.41
0.8
0.37
-0.05
-0.48
-0.88
-1.2
-1.44
-1.65
-1.81
-2
-2.13
-2.35
-2.64
-2.88
-3.15
-3.36
-3.63
-3.79
-4
-4.29
-4.51
-4.72
-4.93
-5.15
-5.28
-5.39
-5.49
-5.36
-4.75
-3.73
-2.32
-0.45
1.41
2.96
4.05
4.69
4.96
4.85
4.43
3.84
3.12
2.48
1.76
1.23
0.69
0.16
-0.24
-0.56
-0.8
-1.07
-1.44
-1.76
-2
-2.27
-2.48
-2.77
-2.99
-3.2
-3.49
-3.71
-3.92
-4.13
-4.35
-4.56
-4.69
-4.91
-5.04
-5.25
-5.47
-5.52
-5.44
-4.96
-4
-2.32
-0.24
2
3.87
5.36
6.16
6.64
6.59
6.24
5.76
5.07
4.32
3.68
3.04
2.4
1.87
1.28
0.8
0.37
-0.11
-0.56
-0.99
-1.31
-1.52
-1.76
-2.03
-2.24
-2.51
-2.67
-2.88
-3.09
-3.31
-3.52
-3.65
-3.87
-4
-4.21
-4.43
-4.48
-4.56
-4.51
-4.16
-3.33
-2.11
-0.64
1.01
2.4
3.44
4.03
4.19
4.08
3.73
3.2
2.56
2.03
1.49
0.96
0.51
0.03
-0.32
-0.61
-0.88
-1.28
-1.6
-1.87
-2.08
-2.32
-2.64
-2.88
-3.15
-3.31
-3.52
-3.73
-3.95
-4.24
-4.37
-4.59
-4.72
-4.93
-5.15
-5.28
-5.44
-5.39
-5.12
-4.29
-2.85
-0.88
1.44
3.63
5.28
6.56
7.2
7.52
7.47
7.15
6.56
5.92
5.23
4.48
3.84
3.2
2.64
2.13
1.65
1.2
0.69
0.27
-0.16
-0.56
-0.93
-1.28
-1.65
-1.92
-2.16
-2.37
-2.59
-2.88
-2.99
-3.15
-3.36
-3.55
-3.71
-3.84
-4.05
-4.21
-4.24
-4.27
-3.89
-3.2
-2.08
-0.69
0.72
2.08
2.99
3.52
3.76
3.71
3.44
2.99
2.51
2
1.47
0.99
0.56
0.13
-0.24
-0.64
-0.88
-1.15
-1.36
-1.68
-1.95
-2.24
-2.53
-2.75
-3.04
-3.33
-3.55
-3.84
-3.97
-4.19
-4.4
-4.61
-4.83
-4.96
-5.12
-5.07
-4.72
-3.81
-2.48
-0.8
1.12
2.93
4.24
5.15
5.52
5.6
5.25
4.77
4.08
3.44
2.8
2.16
1.63
1.04
0.56
0.05
-0.37
-0.8
-1.2
-1.47
-1.76
-2.08
-2.35
-2.56
-2.85
-3.07
-3.28
-3.49
-3.71
-3.92
-4.13
-4.35
-4.48
-4.69
-4.91
-5.04
-5.15
-5.2
-5.04
-4.27
-3.04
-1.36
0.75
2.72
4.32
5.52
6.11
6.32
6.24
5.81
5.2
4.56
3.92
3.28
2.67
2.08
1.52
1.01
0.53
0.08
-0.37
-0.85
-1.2
-1.44
-1.76
-2
-2.21
-2.43
-2.64
-2.93
-3.15
-3.36
-3.57
-3.79
-3.92
-4.13
-4.35
-4.48
-4.61
-4.77
-4.8
-4.64
-4.11
-3.2
-1.79
-0.19
1.36
2.69
3.49
4
4.16
3.95
3.52
2.99
2.4
1.84
1.31
0.77
0.32
-0.11
-0.53
-0.96
-1.2
-1.41
-1.6
-1.81
-2.08
-2.32
-2.61
-2.83
-3.04
-3.33
-3.55
-3.76
-3.97
-4.19
-4.32
-4.53
-4.75
-4.96
-5.15
-5.25
-5.44
-5.49
-5.23
-4.56
-3.17
-1.25
0.96
3.15
4.8
6.08
6.85
7.23
7.28
6.93
6.4
5.76
5.04
4.35
3.68
3.07
2.53
2
1.49
1.07
0.64
0.21
-0.21
-0.64
-1.04
-1.36
-1.76
-2.05
-2.27
-2.48
-2.69
-2.91
-3.04
-3.25
-3.47
-3.6
-3.81
-3.97
-4.16
-4.37
-4.48
-4.56
-4.4
-3.97
-3.04
-1.81
-0.37
1.04
2.19
3.04
3.6
3.63
3.57
3.2
2.75
2.16
1.68
1.17
0.69
0.24
-0.19
-0.56
-0.88
-1.12
-1.39
-1.6
-1.81
-2.08
-2.32
-2.64
-2.91
-3.2
-3.41
-3.63
-3.92
-4.13
-4.35
-4.56
-4.77
-4.93
-5.12
-5.23
-5.17
-4.88
-3.95
-2.61
-0.88
1.09
2.8
4.16
4.96
5.39
5.52
5.17
4.64
4
3.36
2.67
2.08
1.47
0.93
0.48
-0.03
-0.45
-0.8
-1.12
-1.44
-1.76
-2.05
-2.27
-2.48
-2.77
-2.99
-3.2
-3.41
-3.63
-3.84
-4.05
-4.27
-4.4
-4.61
-4.77
-4.96
-5.17
-5.28
-5.36
-4.96
-4.21
-2.8
-0.93
1.09
2.96
4.4
5.36
6
6.03
5.87
5.44
4.8
4.11
3.52
2.88
2.29
1.76
1.23
0.75
0.24
-0.19
-0.61
-1.04
-1.33
-1.55
-1.76
-2.08
-2.35
-2.56
-2.77
-2.99
-3.2
-3.41
-3.63
-3.76
-3.97
-4.13
-4.32
-4.53
-4.69
-4.88
-4.99
-4.99
-4.64
-4.05
-2.93
-1.44
0.19
1.68
2.96
3.49
3.81
3.84
3.49
2.96
2.4
1.84
1.25
0.8
0.27
-0.21
-0.64
-1.04
-1.31
-1.52
-1.71
-1.87
-2.08
-2.29
-2.51
-2.8
-3.01
-3.23
-3.44
-3.65
-3.87
-4
-4.11
-4.21
-4.32
-4.45
-4.56
-4.64
-4.64
-4.64
-4.48
-4.03
-3.12
-1.68
0.21
2.29
4.4
5.76
6.77
7.28
7.44
7.28
6.88
6.43
5.89
5.36
4.83
4.35
3.92
3.52
3.15
2.8
2.48
2.16
1.84
1.52
1.2
0.88
0.64
0.37
0.08
-0.24
-0.56
-0.8
-0.99
-1.09
-1.2
-1.33
-1.49
-1.6
-1.71
-1.81
-1.92
-2
-2.05
-2.08
-1.73
-1.15
-0.32
0.67
1.68
2.56
3.23
3.6
3.68
3.52
3.2
2.8
2.37
1.95
1.44
1.01
0.59
0.16
-0.27
-0.75
-1.52
-2.37
-3.33
-4.4
-5.36
-6.37
-7.36
-8.24
-9.15
-9.76
-10.16
-10.16
-10.16
-10.16
-10.16
-10.16
-10.16
-10.16
-10.16
-10.16
-10.16
-10.16
-10.16
-9.63
-8.24
-5.31
-2.75
-0.64
0.77
1.52
1.68
1.36
0.67
-0.16
-1.04
-1.95
-2.72
-3.55
-4.24
-4.88
-5.49
-6.03
-6.32
-6.43
-6.53
-6.72
-6.85
-7.01
-7.12
-7.15
-7.31
-7.36
-7.44
-7.49
-7.52
-7.63
-7.68
-7.68
-7.71
-7.76
-7.84
-7.84
-7.79
-7.52
-6.83
-5.65
-4
-1.84
0.35
2.32
3.87
4.93
5.44
5.68
5.63
5.44
5.01
4.59
4.08
3.68
3.31
2.96
2.59
2.37
2.16
1.73
1.36
0.96
0.64
0.27
-0.08
-0.48
-0.85
-1.12
-1.41
-1.57
-1.76
-2
-2.21
-2.4
-2.61
-2.83
-3.04
-3.25
-3.47
-3.6
-3.68
-3.63
-3.28
-2.37
-1.09
0.4
2.03
3.41
4.32
4.88
5.15
5.12
4.69
4.21
3.68
3.15
2.61
2.08
1.49
1.07
0.64
0.21
-0.21
-0.72
-1.17
-1.65
-2.08
-2.48
-2.8
-3.04
-3.25
-3.52
-3.76
-4
-4.21
-4.4
-4.61
-4.83
-5.04
-5.31
-5.47
-5.68
-5.76
-5.76
-5.6
-4.69
-3.31
-1.36
0.88
3.07
4.72
5.89
6.59
6.96
6.91
6.59
6.16
5.49
4.8
4.16
3.47
2.88
2.4
1.89
1.41
0.88
0.43
-0.05
-0.48
-0.85
-1.12
-1.36
-1.57
-1.84
-2.08
-2.29
-2.45
-2.64
-2.85
-3.07
-3.2
-3.39
-3.55
-3.76
-3.89
-4.11
-4.32
-4.43
-4.48
-4.24
-3.68
-2.67
-1.28
0.21
1.65
2.96
3.71
4.13
4.32
4.16
3.79
3.36
2.75
2.21
1.68
1.17
0.69
0.24
-0.16
-0.43
-0.72
-1.12
-1.44
-1.68
-2
-2.32
-2.64
-2.88
-3.15
-3.44
-3.76
-4.08
-4.4
-4.69
-4.96
-5.28
-5.6
-5.92
-6.24
-6.37
-6.37
-5.84
-4.83
-3.23
-1.36
0.59
2.19
3.44
4.05
4.32
4.32
3.87
3.28
2.64
1.92
1.23
0.56
-0.05
-0.59
-1.2
-1.52
-1.84
-2.16
-2.45
-2.72
-2.96
-3.17
-3.33
-3.52
-3.84
-4.11
-4.32
-4.56
-4.83
-5.04
-5.31
-5.47
-5.68
-5.89
-6.11
-6.32
-6.53
-6.69
-6.8
-6.48
-5.73
-4.24
-2.29
0
2.24
4.03
5.31
6
6.29
6.35
6
5.44
4.8
4.08
3.36
2.72
2.08
1.52
0.99
0.48
0
-0.32
-0.48
-0.72
-1.04
-1.36
-1.68
-1.95
-2.16
-2.4
-2.67
-2.88
-3.09
-3.31
-3.52
-3.65
-3.87
-4.08
-4.29
-4.51
-4.64
-4.75
-4.91
-4.88
-4.56
-3.76
-2.56
-0.83
0.93
2.64
3.84
4.69
5.12
5.25
5.09
4.72
4.29
3.81
3.28
2.85
2.43
2.08
1.68
1.36
1.04
0.75
0.48
0.16
-0.08
-0.35
-0.56
-0.8
-1.07
-1.28
-1.49
-1.71
-1.92
-2.13
-2.35
-2.56
-2.69
-2.91
-3.04
-3.25
-3.47
-3.6
-3.63
-3.31
-2.56
-1.12
0.69
2.72
4.56
6
6.96
7.57
7.79
7.68
7.33
6.85
6.24
5.68
5.09
4.56
4.03
3.55
3.12
2.69
2.21
1.76
1.33
0.91
0.56
0.16
-0.21
-0.56
-0.96
-1.28
-1.6
-1.95
-2.32
-2.64
-2.88
-3.25
-3.52
-3.73
-3.95
-4.08
-4.29
-4.45
-4.48
-4.43
-4.05
-3.36
-2.21
-0.72
0.8
2.19
3.2
3.84
4.11
4.16
4
3.57
3.15
2.64
2.11
1.57
1.12
0.69
0.32
-0.08
-0.32
-0.59
-0.88
-1.2
-1.52
-1.76
-2.05
-2.27
-2.48
-2.69
-2.91
-3.2
-3.33
-3.55
-3.76
-3.97
-4.19
-4.4
-4.61
-4.77
-4.88
-4.91
-4.53
-3.92
-2.59
-0.99
0.8
2.48
3.65
4.48
4.85
4.96
4.72
4.19
3.6
2.96
2.35
1.76
1.2
0.67
0.13
-0.32
-0.67
-1.04
-1.36
-1.68
-2
-2.24
-2.53
-2.75
-2.96
-3.17
-3.39
-3.68
-3.81
-4.03
-4.16
-4.29
-4.51
-4.64
-4.75
-4.85
-5.04
-5.15
-5.2
-5.04
-4.51
-3.44
-1.76
0.32
2.56
4.56
6
6.96
7.6
7.63
7.52
7.12
6.56
5.87
5.2
4.56
3.97
3.44
2.91
2.43
2
1.57
1.15
0.72
0.32
0
-0.4
-0.75
-1.12
-1.52
-1.76
-2.03
-2.24
-2.45
-2.67
-2.8
-3.01
-3.17
-3.36
-3.57
-3.73
-3.92
-4.03
-4.13
-4.24
-4.05
-3.52
-2.56
-1.2
0.4
2
3.07
3.92
4.4
4.56
4.4
4
3.57
3.09
2.56
2.03
1.55
1.2
0.77
0.35
0
-0.37
-0.64
-0.96
-1.25
-1.47
-1.76
-1.97
-2.19
-2.4
-2.61
-2.88
-3.04
-3.25
-3.41
-3.6
-3.81
-3.97
-4.08
-4.19
-4.24
-4.24
-3.92
-3.17
-1.92
-0.13
1.89
3.92
5.39
6.51
7.2
7.44
7.33
6.96
6.51
5.97
5.36
4.72
4.13
3.52
3.07
2.53
2
1.49
1.01
0.56
0.05
-0.32
-0.72
-1.12
-1.49
-1.84
-2.16
-2.48
-2.72
-3.01
-3.17
-3.28
-3.49
-3.65
-3.76
-3.87
-4.03
-4.16
-4.32
-4.32
-4.16
-3.63
-2.61
-1.28
0.4
1.95
3.28
4.24
4.77
4.88
4.72
4.35
3.92
3.47
2.99
2.56
2.13
1.71
1.36
1.07
0.8
0.4
0.11
-0.11
-0.4
-0.61
-0.83
-0.96
-1.17
-1.39
-1.52
-1.65
-1.81
-1.92
-2.05
-2.21
-2.32
-2.43
-2.59
-2.8
-2.99
-3.09
-3.2
-3.28
-3.07
-2.56
-1.87
-0.96
-0.08
0.69
1.23
1.36
1.39
1.07
0.64
0.16
-0.43
-1.04
-1.65
-2.24
-2.8
-3.52
-4.48
-5.44
-6.37
-7.17
-8
-8.67
-9.31
-9.76
-10.11
-10.16
-10.16
-10.16
-10.16
-10.16
-10.16
-10.16
-10.16
-10.16
-10.16
-10.16
-10.16
-10.16
-10.16
-10.16
-10.16
-10.16
-10.16
-10.16
-10.16
-9.92
-8.69
-6.64
-4.69
-3.52
-2.96
-3.15
-3.73
-4.56
-5.44
-6.4
-7.36
-8.37
-9.23
-9.92
-10.16
-10.16
-10.16
-10.16
-10.16
-10.16
-10.16
-10.16
-10.16
-10.16
-10.16
-10.16
-10.16
-10.16
-10.16
-10.16
-10.16
-10.16
-10.16
-10.16
-10.16
-10.16
-10.16
-10.16
-10.16
-10.16
-10.16
-10.16
-10.16
-10.16
-10.11
-9.57
-8.4
-7.33
-6.59
-6.16
-6.13
-6.19
-6.48
-6.83
-7.25
-7.68
-8.03
-8.4
-8.72
-8.96
-9.23
-9.52
-9.81
-10.03
-10.08
-10.16
-10.16
-10.16
-10.16
-10.16
-10.16
-10.16
-10.16
-10.16
-10.16
-10.16
-10.16
-10.16
-10.16
-10.16
-10.16
-10.16
-10.16
-10
-9.2
-7.52
-5.57
-3.65
-1.92
-0.88
-0.29
0
-0.27
-0.69
-1.28
-1.89
-2.43
-2.96
-3.47
-3.95
-4.4
-4.8
-5.07
-5.28
-5.49
-5.71
-5.84
-5.95
-6.05
-6.16
-6.29
-6.4
-6.48
-6.59
-6.64
-6.72
-6.83
-6.93
-6.96
-7.04
-7.09
-7.2
-7.23
-7.28
-7.36
-7.2
-6.83
-6.08
-4.88
-3.23
-1.36
0.48
2.08
3.28
3.84
4
3.76
3.41
2.93
2.32
1.76
1.12
0.48
0.03
-0.45
-0.88
-1.09
-1.36
-1.52
-1.71
-1.87
-2.16
-2.4
-2.67
-2.88
-3.12
-3.39
-3.6
-3.81
-4.03
-4.24
-4.45
-4.67
-4.88
-5.01
-5.23
-5.36
-5.47
-5.63
-5.68
-5.41
-4.83
-3.84
-2.51
-1.07
0.32
1.41
2.16
2.48
2.51
2.19
1.76
1.28
0.69
0.08
-0.45
-0.93
-1.36
-1.79
-2.21
-2.48
-2.69
-2.85
-3.04
-3.25
-3.41
-3.52
-3.63
-3.73
-3.84
-4.03
-4.13
-4.16
-4.37
-4.59
-4.8
-4.93
-5.15
-5.36
0
0
0
0
0
0
0
0
0
0
0
0
0
0
0
0
0
0
0
0
0
0
0
0
0
0
0
0
0
0
0
0
0
0
0
0
0
0
0
0
0
0
0
0
0
0
0
0
0
0
0
0
0
0
0
0
0
0
0
0
0
0
0
0
0
0
0
0
0
0
0
0
0
0
0
0
0
0
0
0
0
0
0
0
0
0
0
0
0
0
0
0
0
0
0
0
0
0
0
0
0
0
0
0
0
0
0
0
0
0
0
0
0
0
0
0
0
0
0
0
0
0
0
0
0
0
0
0
0
0
0
0
0
0
0
0
0
0
0
0
0
0
0
0
0
0
0
0
0
0
-5.52
-5.79
-6.08
-6.29
-6.51
-6.56
-6.45
-5.87
-4.88
-3.09
-0.96
1.36
3.41
5.01
5.92
6.29
6.13
5.76
5.12
4.43
3.68
3.04
2.4
1.76
1.23
0.69
0.24
-0.05
-0.27
-0.48
-0.72
-0.99
-1.2
-1.41
-1.63
-1.76
-1.97
-2.19
-2.4
-2.53
-2.75
-2.96
-3.09
-3.31
-3.44
-3.63
-3.79
-3.92
-4.11
-4.21
-4.32
-4.27
-3.89
-3.28
-2.4
-1.39
-0.4
0.45
0.99
1.28
1.36
1.31
1.04
0.72
0.35
-0.08
-0.48
-0.85
-1.12
-1.44
-1.76
-2.08
-2.32
-2.59
-2.8
-3.01
-3.23
-3.44
-3.65
-3.87
-4.08
-4.21
-4.53
-4.96
-5.23
-5.65
-6
-6.43
-6.85
-7.28
-7.6
-7.87
-7.92
-7.33
-6.32
-5.04
-3.47
-2.08
-0.96
-0.29
-0.24
-0.56
-1.15
-1.95
-2.88
-3.87
-4.88
-5.84
-6.72
-7.63
-8.4
-9.09
-9.63
-10.08
-10.16
-10.16
-10.16
-10.16
-10.16
-10.16
-10.16
-10.16
-10.16
-10.16
-10.16
-10.16
-10.16
-10.16
-10.16
-10.16
-10.16
-10.16
-10.16
-10.16
-10.16
-10.16
-10.16
-10.16
-10.05
-9.41
-7.84
-5.65
-4.11
-3.12
-2.8
-2.91
-3.28
-4.03
-4.83
-5.68
-6.51
-7.31
-8.08
-8.8
-9.39
-10
-10.16
-10.16
-10.16
-10.16
-10.16
-10.16
-10.16
-10.16
-10.16
-10.16
-10.16
-10.16
-10.16
-10.16
-10.16
-10.16
-10.16
-10.16
-10.16
-10.16
-10.16
-10.16
-10.16
-10.16
-10.13
-9.92
-8.88
-7.17
-5.52
-4.16
-3.23
-2.59
-2.24
-2.27
-2.48
-2.8
-3.12
-3.49
-3.84
-4.13
-4.4
-4.64
-4.85
-5.01
-5.12
-5.23
-5.33
-5.44
-5.6
-5.65
-5.68
-5.79
-5.89
-6
-6.03
-6.08
-6.16
-6.19
-6.24
-6.24
-6.32
-6.37
-6.4
-6.43
-6.48
-6.4
-6
-5.25
-3.92
-2.19
-0.05
2.16
4.13
5.68
6.8
7.04
7.09
6.72
6.29
5.76
5.2
4.67
4.13
3.68
3.25
2.93
2.56
2.13
1.71
1.36
0.96
0.64
0.32
-0.03
-0.4
-0.72
-0.96
-1.28
-1.6
-1.92
-2.24
-2.48
-2.8
-3.12
-3.36
-3.57
-3.73
-3.84
-3.95
-4
-4
-3.71
-3.07
-2.24
-1.15
-0.08
0.96
1.6
2.08
2.32
2.29
2.13
1.84
1.49
1.12
0.72
0.37
0.05
-0.24
-0.56
-0.83
-1.04
-1.23
-1.33
-1.52
-1.63
-1.73
-1.92
-1.95
-2.11
-2.32
-2.53
-2.8
-2.96
-3.17
-3.39
-3.6
-3.81
-3.97
-4.16
-4.13
-3.97
-3.36
-2.19
-0.59
1.28
3.31
5.12
6.72
7.44
7.81
7.76
7.31
6.72
6.08
5.41
4.72
4.08
3.52
2.99
2.48
2.03
1.55
1.2
0.8
0.48
0.16
-0.19
-0.56
-0.88
-1.12
-1.44
-1.76
-2.08
-2.4
-2.64
-2.93
-3.09
-3.28
-3.41
-3.57
-3.76
-3.87
-3.97
-4
-3.71
-3.07
-1.92
-0.37
1.39
3.28
4.61
5.63
6.16
6.13
5.87
5.36
4.8
4.21
3.6
3.04
2.51
2
1.55
1.01
0.48
0.05
-0.37
-0.8
-1.15
-1.52
-1.92
-2.13
-2.35
-2.48
-2.69
-2.96
-3.12
-3.33
-3.49
-3.68
-3.89
-4.05
-4.16
-4.35
-4.51
-4.64
-4.8
-4.8
-4.64
-4.03
-3.07
-1.84
-0.43
0.96
2.08
2.85
3.28
3.36
3.17
2.75
2.32
1.76
1.23
0.72
0.29
-0.13
-0.48
-0.88
-1.2
-1.44
-1.57
-1.73
-1.92
-2.03
-2.13
-2.24
-2.45
-2.72
-2.96
-3.17
-3.33
-3.52
-3.73
-3.89
-4.08
-4.27
-4.43
-4.64
-4.83
-4.99
-5.12
-5.17
-4.85
-4.24
-2.83
-1.07
1.04
3.33
5.41
6.72
7.55
7.81
7.68
7.2
6.56
5.92
5.25
4.56
3.92
3.31
2.77
2.32
1.89
1.47
1.04
0.72
0.35
0
-0.29
-0.56
-0.88
-1.17
-1.44
-1.76
-1.97
-2.13
-2.24
-2.43
-2.53
-2.72
-2.91
-3.01
-3.12
-3.23
-3.33
-3.52
-3.63
-3.57
-3.28
-2.67
-1.76
-0.72
0.43
1.39
2.24
2.67
2.88
2.96
2.75
2.48
2.16
1.76
1.44
1.04
0.72
0.4
0.08
-0.16
-0.43
-0.56
-0.75
-0.91
-1.12
-1.36
-1.68
-1.92
-2.24
-2.51
-2.72
-3.04
-3.36
-3.6
-3.89
-4.11
-4.4
-4.72
-4.99
-5.28
-5.23
-4.8
-3.84
-2.13
0.32
3.12
5.79
7.97
9.6
10.08
10.24
10.24
10.16
9.63
8.88
8.05
7.31
6.64
5.89
5.25
4.8
4.69
4.53
4.24
3.84
3.52
3.28
3.07
2.85
2.64
2.4
2.13
1.92
1.71
1.49
1.28
0.99
0.77
0.56
0.43
0.21
0
-0.13
-0.24
-0.32
-0.19
0.45
1.6
3.09
4.91
6.8
8.27
9.33
10
10.19
10.24
10
9.57
9.15
8.72
8.37
8
7.6
7.39
7.17
6.96
6.72
6.4
6.16
5.95
5.68
5.44
5.2
4.93
4.72
4.48
4.21
4
3.71
3.49
3.28
3.15
2.93
2.64
2.51
2.29
2.16
1.97
1.87
1.92
2.27
2.85
3.68
4.67
5.63
6.4
6.8
6.96
6.88
6.53
6.05
5.52
5.01
4.53
4
3.68
3.36
3.04
2.83
2.56
2.16
1.81
1.44
1.04
0.69
0.32
0
-0.32
-0.69
-1.04
-1.33
-1.55
-1.84
-2.19
-2.51
-2.8
-3.12
-3.44
-3.76
-4.08
-4.4
-4.64
-4.8
-4.8
-4.48
-3.65
-2.27
-0.48
1.41
3.17
4.4
5.25
5.47
5.28
4.85
4.32
3.68
3.01
2.32
1.76
1.23
0.64
0.16
-0.27
-0.64
-0.96
-1.28
-1.55
-1.76
-2.08
-2.35
-2.64
-2.93
-3.15
-3.36
-3.68
-3.95
-4.16
-4.37
-4.59
-4.8
-5.01
-5.23
-5.36
-5.57
-5.73
-5.84
-6.05
-6.16
-6
-5.52
-4.72
-3.6
-2.35
-1.17
-0.24
0.43
0.75
0.96
0.83
0.51
0.08
-0.37
-0.91
-1.36
-1.87
-2.24
-2.64
-3.07
-3.39
-3.6
-3.81
-4.03
-4.16
-4.35
-4.51
-4.64
-4.75
-4.85
-5.04
-5.15
-5.2
-5.28
-5.39
-5.55
-5.6
-5.68
-5.73
-5.76
-5.84
-5.79
-5.52
-4.69
-3.41
-1.68
0.32
2.24
3.92
5.01
5.55
5.76
5.41
4.88
4.16
3.41
2.67
2
1.36
0.77
0.32
-0.24
-0.61
-0.8
-0.93
-1.2
-1.44
-1.65
-1.87
-2.08
-2.29
-2.51
-2.72
-2.85
-3.07
-3.2
-3.41
-3.63
-3.76
-3.97
-4.13
-4.24
-4.45
-4.61
-4.8
-4.91
-4.96
-4.8
-4.24
-3.23
-1.84
-0.11
1.71
3.44
4.48
5.17
5.44
5.25
4.83
4.24
3.57
2.83
2.16
1.49
0.8
0.16
-0.48
-1.12
-1.68
-2.19
-2.61
-3.04
-3.47
-3.84
-4.16
-4.4
-4.72
-5.04
-5.28
-5.6
-5.84
-6.16
-6.48
-6.8
-7.04
-7.25
-7.44
-7.55
-7.6
-7.68
-7.68
-7.25
-6.48
-5.01
-3.2
-1.12
0.8
2.4
3.44
3.97
4.08
3.84
3.36
2.77
2.16
1.52
0.93
0.4
-0.03
-0.45
-0.8
-1.15
-1.25
-1.36
-1.47
-1.57
-1.76
-1.79
-1.84
-1.92
-1.95
-2.05
-2.08
-2.08
-2.13
-2.16
-2.21
-2.37
-2.56
-2.67
-2.83
-2.96
-3.07
-3.17
-3.2
-2.93
-2.24
-1.04
0.93
3.23
5.52
7.41
8.91
9.76
10.24
10.24
10.24
9.89
9.41
8.8
8.19
7.6
7.04
6.53
6.05
5.6
5.17
4.75
4.32
4
3.68
3.36
2.96
2.64
2.4
2.08
1.76
1.44
1.12
0.85
0.64
0.32
0.05
-0.24
-0.53
-0.75
-0.96
-1.25
-1.47
-1.76
-1.87
-1.81
-1.44
-0.69
0.48
1.84
3.12
4.29
5.2
5.79
6
6
5.65
5.23
4.8
4.29
3.87
3.44
3.01
2.64
2.32
1.97
1.55
1.12
0.72
0.35
-0.08
-0.4
-0.72
-1.12
-1.44
-1.76
-2.08
-2.37
-2.59
-2.72
-2.91
-3.07
-3.2
-3.31
-3.41
-3.52
-3.39
-2.96
-2
-0.4
1.57
3.52
5.33
6.72
7.68
8.19
8.4
8.32
7.89
7.41
6.8
6.19
5.6
5.12
4.61
4.13
3.68
3.25
2.83
2.4
2
1.68
1.36
1.01
0.64
0.32
0
-0.32
-0.64
-0.88
-1.2
-1.52
-1.81
-2.08
-2.4
-2.69
-2.91
-3.2
-3.33
-3.44
-3.52
-3.41
-2.93
-2.08
-0.8
0.85
2.56
3.95
5.01
5.68
5.97
6.03
5.76
5.33
4.85
4.4
3.87
3.33
2.88
2.56
2.19
1.84
1.49
1.07
0.64
0.29
-0.08
-0.4
-0.72
-0.99
-1.28
-1.57
-1.73
-1.92
-2.11
-2.21
-2.32
-2.45
-2.61
-2.8
-2.91
-3.07
-3.2
-3.23
-3.23
-2.8
-2.05
-0.77
0.88
2.59
4.08
5.2
5.89
6.27
6.32
6.05
5.63
5.2
4.67
4.13
3.52
3.12
2.75
2.4
2.08
1.71
1.36
1.01
0.64
0.24
-0.08
-0.35
-0.64
-0.88
-1.15
-1.36
-1.65
-1.87
-2
-2.08
-2.13
-2.32
-2.43
-2.48
-2.56
-2.67
-2.83
-2.88
-2.91
-2.48
-1.68
-0.11
1.87
4
5.95
7.55
8.72
9.41
9.68
9.76
9.49
9.07
8.48
7.92
7.28
6.72
6.27
5.73
5.36
5.04
4.72
4.32
4
3.73
3.52
3.31
3.09
2.88
2.69
2.53
2.32
2.19
1.97
1.76
1.63
1.41
1.2
0.99
0.77
0.56
0.35
0.13
-0.08
-0.21
-0.32
-0.24
0.21
0.85
1.68
2.72
3.63
4.32
4.8
5.01
4.96
4.72
4.35
3.92
3.49
3.07
2.72
2.4
2.08
1.84
1.6
1.23
0.8
0.37
-0.05
-0.4
-0.8
-1.17
-1.6
-1.92
-2.29
-2.72
-3.04
-3.36
-3.68
-4.08
-4.45
-4.8
-5.15
-5.52
-5.84
-5.97
-6.03
-5.68
-4.75
-3.31
-1.36
0.83
2.8
4.24
5.12
5.55
5.6
5.15
4.51
3.76
3.01
2.21
1.52
0.88
0.24
-0.4
-0.96
-1.39
-1.6
-1.92
-2.19
-2.56
-2.96
-3.33
-3.76
-4.11
-4.53
-4.96
-5.31
-5.73
-6.08
-6.48
-6.85
-7.2
-7.55
-7.92
-8.32
-8.64
-8.91
-9.2
-9.49
-9.6
-9.44
-8.72
-7.28
-5.28
-3.01
-0.88
0.96
1.97
2.56
2.8
2.51
1.92
1.2
0.35
-0.51
-1.36
-2.21
-2.96
-3.68
-4.29
-4.77
-5.12
-5.41
-5.68
-5.92
-6.21
-6.43
-6.72
-6.85
-7.07
-7.28
-7.49
-7.71
-7.84
-8.05
-8.21
-8.4
-8.61
-8.77
-8.96
-9.07
-9.23
-9.36
-9.55
-9.65
-9.68
-9.41
-8.77
-7.68
-6.16
-4.56
-3.04
-1.89
-1.2
-1.04
-1.04
-1.41
-1.92
-2.59
-3.28
-4
-4.53
-5.07
-5.6
-6.11
-6.53
-6.88
-7.17
-7.39
-7.6
-7.73
-7.89
-8
-8.19
-8.35
-8.48
-8.59
-8.69
-8.8
-8.91
-8.96
-9.04
-9.07
-9.12
-9.2
-9.2
-9.2
-9.2
-9.2
-9.25
-9.28
-8.8
-7.84
-6.16
-3.71
-0.88
1.76
3.97
5.63
6.8
7.44
7.76
7.76
7.33
6.91
6.32
5.71
5.12
4.48
3.97
3.49
2.96
2.64
2.27
1.92
1.6
1.28
1.04
0.83
0.61
0.4
0.27
0.16
0.08
0.05
-0.05
-0.16
-0.32
-0.37
-0.4
-0.48
-0.53
-0.72
-0.75
-0.8
-0.88
-0.88
-0.83
-0.64
-0.03
0.93
2.16
3.49
4.88
6
6.77
7.25
7.44
7.47
7.25
7.04
6.69
6.32
6
5.79
5.57
5.28
5.07
4.85
4.56
4.24
3.92
3.6
3.28
3.01
2.72
2.4
2.08
1.76
1.36
0.99
0.56
0.13
-0.29
-0.72
-1.15
-1.57
-2.08
-2.51
-2.93
-3.12
-3.23
-2.8
-1.84
-0.21
1.6
3.6
5.23
6.51
7.28
7.76
7.81
7.68
7.23
6.64
6
5.44
4.85
4.32
3.87
3.39
3.04
2.61
2.19
1.76
1.33
0.96
0.64
0.24
-0.08
-0.4
-0.8
-1.12
-1.44
-1.79
-2.16
-2.48
-2.72
-3.04
-3.36
-3.65
-3.87
-4
-4.19
-4.29
-4.32
-4.35
-3.92
-3.12
-1.73
0.08
2
3.79
5.17
6.16
6.61
6.77
6.64
6.21
5.73
5.2
4.59
4
3.44
2.93
2.51
2.08
1.55
1.12
0.72
0.32
0
-0.32
-0.61
-0.88
-1.2
-1.41
-1.63
-1.84
-1.97
-2.19
-2.4
-2.61
-2.88
-3.12
-3.36
-3.68
-3.92
-4.16
-4.43
-4.72
-4.93
-5.15
-5.28
-4.99
-4.29
-3.12
-1.79
-0.4
0.88
1.52
1.95
2
1.73
1.2
0.64
0
-0.64
-1.28
-1.92
-2.51
-3.12
-3.65
-4.13
-4.56
-4.93
-5.2
-5.6
-5.95
-6.32
-6.64
-6.99
-7.41
-7.92
-8.37
-8.85
-9.28
-9.71
-10.03
-10.08
-10.16
-10.16
-10.16
-10.16
-10.16
-10.16
-10.16
-10.16
-10.16
-10.16
-10.16
-10.16
-7.6
-4.99
-2.48
-0.51
0.88
1.6
2
1.89
1.52
0.83
-0.03
-0.88
-1.73
-2.59
-3.36
-4.08
-4.72
-5.28
-5.65
-5.87
-6.08
-6.21
-6.43
-6.56
-6.75
-6.91
-6.96
-7.07
-7.17
-7.2
-7.31
-7.36
-7.44
-7.47
-7.52
-7.6
-7.68
-7.73
-7.76
-7.84
-7.89
-8
-8
-7.89
-7.6
-6.96
-5.89
-4.48
-2.99
-1.55
-0.24
0.59
1.07
1.28
1.15
0.88
0.56
0.16
-0.16
-0.48
-0.8
-1.07
-1.36
-1.6
-1.87
-2.16
-2.35
-2.51
-2.64
-2.77
-2.93
-2.96
-3.09
-3.25
-3.36
-3.39
-3.49
-3.68
-3.89
-4.11
-4.32
-4.45
-4.67
-4.88
-5.09
-5.25
-5.36
-5.44
-5.28
-4.72
-3.63
-2.08
-0.24
1.57
3.01
4.08
4.56
4.72
4.64
4.19
3.65
3.04
2.51
1.97
1.36
0.93
0.51
0.16
-0.05
-0.32
-0.48
-0.69
-0.96
-1.2
-1.44
-1.71
-1.92
-2.13
-2.35
-2.56
-2.77
-2.99
-3.12
-3.33
-3.55
-3.76
-3.97
-4.19
-4.48
-4.77
-5.04
-5.28
-5.49
-5.65
-5.68
-5.09
-3.92
-2.16
0.29
2.75
4.8
6.51
7.52
8.08
8.32
8.11
7.68
7.12
6.48
5.84
5.2
4.56
4.08
3.57
3.09
2.64
2.21
1.79
1.44
1.04
0.72
0.4
0.03
-0.24
-0.56
-0.88
-1.2
-1.52
-1.65
-1.81
-1.92
-2.11
-2.27
-2.4
-2.59
-2.69
-2.88
-3.01
-3.17
-3.28
-3.31
-3.36
-3.04
-2.29
-1.17
0.24
1.84
3.28
4.56
5.09
5.47
5.6
5.33
4.91
4.48
3.97
3.49
3.04
2.53
2.16
1.84
1.41
0.99
0.56
0.13
-0.24
-0.64
-0.99
-1.36
-1.76
-1.89
-2.11
-2.32
-2.53
-2.75
-2.88
-3.09
-3.25
-3.44
-3.57
-3.73
-3.92
-4.03
-4.13
-4.24
-4.4
-4.45
-4.4
-3.92
-2.96
-1.52
0.51
2.59
4.48
6.03
7.09
7.68
7.92
7.87
7.52
7.04
6.45
5.84
5.31
4.72
4.16
3.65
3.23
2.8
2.37
2
1.6
1.28
0.91
0.56
0.24
-0.08
-0.32
-0.64
-0.96
-1.28
-1.6
-1.87
-2.16
-2.27
-2.37
-2.56
-2.75
-2.85
-2.88
-2.99
-3.09
-3.28
-3.28
-3.23
-2.96
-2.4
-1.33
0
1.49
2.88
4
4.72
5.15
5.36
5.23
5.01
4.72
4.32
4
3.68
3.36
3.09
2.8
2.67
2.45
2.16
1.84
1.52
1.28
0.99
0.77
0.56
0.35
0.19
0
-0.19
-0.35
-0.56
-0.75
-0.91
-1.12
-1.25
-1.47
-1.76
-1.89
-2.11
-2.32
-2.43
-2.43
-2
-1.2
0.19
1.84
3.47
4.91
6
6.59
6.91
6.96
6.61
6.13
5.6
4.96
4.37
3.76
3.31
2.77
2.24
1.71
1.17
0.72
0.21
-0.21
-0.56
-0.91
-1.28
-1.6
-1.92
-2.24
-2.56
-2.85
-3.07
-3.36
-3.65
-3.87
-4.08
-4.21
-4.43
-4.56
-4.75
-4.91
-5.04
-5.25
-5.41
-5.44
-5.31
-4.83
-3.92
-2.4
-0.69
1.04
2.51
3.57
4.24
4.48
4.48
4.24
3.81
3.33
2.8
2.27
1.68
1.2
0.69
0.27
-0.16
-0.51
-0.83
-1.2
-1.6
-1.92
-2.24
-2.61
-2.88
-3.2
-3.52
-3.84
-4.16
-4.29
-4.45
-4.56
-4.67
-4.77
-4.88
-4.96
-5.01
-5.04
-5.15
-5.2
-5.28
-5.2
-4.83
-4.08
-2.91
-1.36
0.32
1.79
2.96
3.84
4.08
4.13
3.92
3.49
3.01
2.56
2.05
1.63
1.2
0.77
0.35
0
-0.24
-0.51
-0.72
-0.99
-1.15
-1.44
-1.76
-2.03
-2.32
-2.53
-2.75
-2.96
-3.17
-3.39
-3.6
-3.81
-3.97
-4.16
-4.37
-4.53
-4.64
-4.75
-4.91
-5.04
-5.15
-5.25
-5.12
-4.53
-3.52
-2
0.03
2.05
3.84
5.15
6.11
6.48
6.61
6.4
6
5.44
4.85
4.24
3.6
2.96
2.4
1.79
1.25
0.8
0.37
-0.05
-0.48
-0.91
-1.33
-1.68
-1.89
-2.16
-2.32
-2.53
-2.69
-2.88
-3.09
-3.25
-3.44
-3.57
-3.79
-3.92
-4.13
-4.35
-4.56
-4.69
-4.91
-5.12
-5.23
-5.28
-5.12
-4.59
-3.63
-2.24
-0.53
1.07
2.48
3.41
4
4.32
4.19
3.87
3.44
2.91
2.37
1.84
1.33
0.91
0.48
0.16
-0.21
-0.48
-0.69
-0.96
-1.12
-1.31
-1.47
-1.76
-2
-2.27
-2.48
-2.72
-2.99
-3.2
-3.47
-3.63
-3.84
-4.05
-4.21
-4.4
-4.53
-4.75
-4.88
-5.07
-5.17
-5.04
-4.51
-3.39
-1.76
0.29
2.27
4.08
5.31
6.21
6.64
6.77
6.56
6.16
5.68
5.04
4.32
3.79
3.25
2.72
2.29
1.87
1.44
1.01
0.64
0.24
-0.11
-0.43
-0.72
-0.93
-1.15
-1.36
-1.55
-1.71
-1.92
-2.13
-2.35
-2.56
-2.69
-2.91
-3.04
-3.25
-3.47
-3.6
-3.81
-3.97
-4.16
-4.27
-4.27
-4.08
-3.39
-2.43
-1.2
0.03
1.09
2
2.48
2.69
2.64
2.29
1.87
1.44
0.91
0.37
-0.08
-0.59
-1.01
-1.44
-1.79
-2.16
-2.48
-2.72
-2.99
-3.28
-3.6
-3.92
-4.24
-4.53
-4.8
-5.12
-5.33
-5.6
-5.92
-6.21
-6.48
-6.72
-7.04
-7.36
-7.6
-7.92
-8.13
-8.32
-8.29
-8.03
-7.28
-5.97
-4.21
-2.24
-0.48
0.85
1.92
2.16
2.21
1.84
1.17
0.43
-0.24
-0.99
-1.68
-2.32
-2.96
-3.49
-3.92
-4.24
-4.51
-4.8
-5.07
-5.23
-5.44
-5.73
-5.95
-6.16
-6.29
-6.51
-6.64
-6.83
-6.99
-7.12
-7.25
-7.41
-7.52
-7.65
-7.76
-7.84
-7.95
-8.05
-8.16
-8.13
-7.97
-7.52
-6.45
-4.75
-2.64
-0.43
1.55
3.12
4.08
4.67
4.8
4.53
4.11
3.52
2.85
2.16
1.52
0.99
0.45
-0.08
-0.51
-0.88
-1.12
-1.23
-1.33
-1.52
-1.63
-1.68
-1.76
-1.79
-1.89
-2
-2.08
-2.13
-2.16
-2.4
-2.61
-2.8
-2.99
-3.15
-3.36
-3.55
-3.71
-3.92
-4.03
-4.19
-4.4
-4.35
-4.03
-3.44
-2.4
-1.01
0.4
1.71
2.61
3.2
3.41
3.41
3.12
2.67
2.19
1.68
1.17
0.75
0.32
-0.03
-0.4
-0.72
-0.85
-1.07
-1.2
-1.41
-1.68
-1.92
-2.13
-2.4
-2.64
-2.88
-3.09
-3.28
-3.49
-3.71
-3.92
-4.19
-4.35
-4.56
-4.77
-4.99
-5.2
-5.33
-5.49
-5.6
-5.47
-4.88
-3.68
-2.03
0.05
2.16
3.87
5.15
5.92
6.21
6.21
5.84
5.28
4.64
4
3.36
2.72
2.08
1.55
1.07
0.64
0.19
-0.29
-0.56
-0.85
-1.12
-1.36
-1.6
-1.87
-2.08
-2.29
-2.51
-2.72
-3.01
-3.23
-3.44
-3.73
-3.95
-4.24
-4.37
-4.59
-4.8
-5.01
-5.28
-5.44
-5.52
-5.52
-5.36
-4.69
-3.79
-2.64
-1.41
-0.4
0.32
0.72
0.72
0.56
0.13
-0.29
-0.88
-1.33
-1.81
-2.32
-2.72
-3.09
-3.52
0
0
0
0
0
0
0
0
0
0
0
0
0
0
0
0
0
0
0
0
0
0
0
0
0
0
0
0
0
0
0
0
0
0
0
0
0
0
0
0
0
0
0
0
0
0
0
0
0
0
0
0
0
0
0
0
0
0
0
0
0
0
0
0
0
0
0
0
0
0
0
0
0
0
0
0
0
0
0
0
0
0
0
0
0
0
0
0
0
0
0
0
0
0
0
0
0
0
0
0
0
0
0
0
0
0
0
0
0
0
0
0
0
0
0
0
0
0
0
0
0
0
0
0
0
0
0
0
0
0
0
0
0
0
0
0
0
0
0
0
0
0
0
0
0
0
0
0
0
0
-3.09
-3.31
-3.44
-3.65
-3.92
-4.08
-4.29
-4.45
-4.64
-4.77
-4.93
-5.04
-4.8
-4.32
-3.52
-2.88
-3.04
-4.16
-5.65
-6.99
-8.08
-8.43
-8.05
-6.8
-5.17
-3.73
-2.8
-2.24
-1.97
-1.92
-1.89
-2.05
-2.16
-2.35
-2.51
-2.72
-2.91
-3.07
-3.28
-3.49
-3.65
-3.84
-3.95
-4.05
-4.16
-4.19
-4.35
-4.48
-4.56
-4.61
-4.72
-4.83
-4.83
-4.64
-3.92
-2.69
-0.72
1.68
4.24
6.64
8.59
9.76
10.24
10.24
10.24
10.24
10.24
10.24
9.92
9.36
8.77
8.24
7.68
7.15
6.72
6.27
5.73
5.2
4.77
4.4
4
3.57
3.2
2.8
2.56
2.19
1.84
1.44
1.12
0.88
0.53
0.16
-0.16
-0.48
-0.75
-1.04
-1.33
-1.49
-1.6
-1.36
-0.67
0.4
1.71
3.09
4.4
5.23
5.81
6.08
6.08
5.92
5.52
4.96
4.37
3.76
3.09
2.45
1.92
1.39
0.8
0.24
-0.24
-0.56
-0.88
-1.2
-1.52
-1.84
-2.08
-2.35
-2.64
-2.93
-3.15
-3.36
-3.6
-3.92
-4.16
-4.4
-4.61
-4.8
-5.01
-5.23
-5.36
-5.49
-5.33
-4.88
-3.97
-2.75
-1.2
0.19
1.41
2.32
2.88
3.15
3.12
2.77
2.29
1.84
1.28
0.75
0.24
-0.19
-0.61
-1.04
-1.49
-1.76
-2
-2.21
-2.43
-2.72
-2.83
-2.99
-3.12
-3.23
-3.39
-3.6
-3.81
-4.03
-4.24
-4.48
-4.69
-4.88
-5.09
-5.31
-5.52
-5.71
-5.81
-5.68
-5.15
-4.03
-2.4
-0.16
2.08
4.16
5.79
7.07
7.76
8.08
8.08
7.84
7.36
6.72
6.08
5.41
4.72
4.08
3.47
2.93
2.4
1.89
1.41
0.96
0.53
0.11
-0.32
-0.88
-1.89
-3.12
-4.11
-4.64
-4.48
-3.92
-3.55
-3.36
-3.36
-3.41
-3.52
-3.71
-3.87
-4.08
-4.19
-4.29
-4.32
-4.16
-3.68
-2.8
-1.6
-0.27
0.96
2.05
2.8
3.28
3.49
3.55
3.36
2.93
2.45
1.92
1.36
0.67
-0.48
-3.49
-7.12
-10.16
-10.16
-10.16
-10.16
-10.16
-10.16
-10.16
-10.16
-10.16
-10.16
-10.16
-10.16
-10.16
-10.16
-10.16
-10.16
-10.16
-10.16
-10.16
-10.16
-10.16
-10.16
-10.16
-10.16
-10.16
-10.16
-10.16
-10.16
-10.16
-10.16
-10.16
-10.16
-10.16
-10.16
-10.16
-10.16
-10.16
-10.16
-10.16
-10.16
-10.16
-10.16
-10.16
-10.16
-10.16
-10.16
-10.16
-10.16
-10.16
-10.16
-10.16
-10.16
-10.16
-10.16
-10.16
-10.16
-10.16
-10.16
-10.16
-10.16
-10.16
-10.16
-10.16
-10.16
-10.16
-10.16
-10.16
-10.16
-10.16
-10.16
-10.16
-10.16
-10.16
-9.47
-8.77
-8.32
-8.21
-8.21
-8.4
-8.72
-9.04
-9.44
-9.76
-9.97
-10.16
-10.16
-10.16
-10.16
-10.16
-10.16
-10.16
-10.16
-10.16
-10.16
-10.16
-10.16
-10.16
-10.16
-10.16
-10.16
-10.16
-10.16
-10.16
-10.16
-10.16
-10.16
-10.16
-10.16
-10.16
-10.16
-10.16
-10.16
-10.16
-10.16
-10.16
-10.16
-10.11
-9.84
-8.61
-7.6
-6.88
-6.37
-6.21
-6.16
-6.29
-6.56
-6.88
-7.09
-7.31
-7.44
-7.57
-7.79
-8.16
-8.59
-8.96
-9.2
-9.41
-9.68
-10
-10.11
-10.16
-10.16
-10.16
-10.16
-10.16
-10.16
-10.11
-9.84
-9.17
-8.53
-8.08
-7.81
-7.65
-7.6
-7.68
-7.57
-7.12
-5.89
-4.08
-1.6
1.39
4.27
6.56
8.24
9.09
9.44
9.36
8.93
8.32
7.76
7.12
6.48
5.95
5.47
5.12
4.69
4.32
3.92
3.57
3.2
2.88
2.48
2.16
1.84
1.55
1.28
0.96
0.64
0.32
-0.08
-0.32
-0.64
-0.96
-1.25
-1.52
-1.68
-1.89
-2.05
-2.08
-2.16
-2.05
-1.76
-1.17
-0.27
0.96
2.32
3.55
4.48
5.07
5.39
5.52
5.41
5.25
5.04
4.72
4.4
4.16
3.87
3.6
3.36
3.12
2.91
2.72
2.32
1.95
1.6
1.2
0.88
0.56
0.24
-0.08
-0.4
-0.64
-1.01
-1.36
-1.57
-1.84
-2.08
-2.29
-2.45
-2.56
-2.77
-2.88
-2.96
-2.91
-2.59
-1.92
-1.01
0.11
1.36
2.37
3.07
3.52
3.55
3.55
3.36
3.15
2.88
2.64
2.32
2
1.6
1.28
1.01
0.72
0.37
-0.16
-0.8
-1.39
-1.81
-2.24
-2.56
-2.88
-3.28
-3.6
-3.87
-4.08
-4.27
-4.43
-4.56
-4.83
-5.25
-5.68
-6.03
-6.35
-6.56
-6.59
-6.64
-6.32
-5.73
-4.45
-2.4
0.35
3.39
6.4
8.45
9.73
10.24
10.24
10.24
10.24
10.24
9.97
9.2
8.45
7.76
7.12
6.48
5.89
5.28
4.61
4.24
3.84
3.49
3.12
2.8
2.48
2.11
1.68
1.25
0.83
0.48
0.13
-0.24
-0.48
-0.72
-0.99
-1.2
-1.44
-1.71
-2
-2.29
-2.56
-2.8
-2.88
-2.83
-2.48
-1.79
-0.72
0.48
1.68
2.64
3.2
3.55
3.65
3.6
3.28
2.96
2.64
2.24
1.87
1.52
1.23
0.96
0.72
0.4
0.13
-0.16
-0.37
-0.59
-0.8
-1.01
-1.28
-1.52
-1.76
-2.03
-2.24
-2.48
-2.75
-2.96
-3.17
-3.39
-3.6
-3.79
-3.95
-4
-3.81
-3.17
-2.08
-0.27
1.65
3.6
5.31
6.64
7.44
7.89
8
7.84
7.39
6.85
6.24
5.63
5.09
4.56
3.97
3.49
3.04
2.61
2.13
1.68
1.36
0.99
0.64
0.32
0
-0.32
-0.64
-0.96
-1.28
-1.63
-1.95
-2.24
-2.56
-2.93
-3.2
-3.39
-3.55
-3.76
-3.87
-3.97
-4
-3.71
-3.01
-2
-0.48
1.17
2.64
3.92
4.77
5.28
5.47
5.41
5.12
4.67
4.19
3.68
3.17
2.69
2.24
1.73
1.31
0.8
0.37
-0.05
-0.4
-0.77
-1.04
-1.28
-1.49
-1.71
-1.92
-2.13
-2.35
-2.56
-2.75
-2.91
-3.12
-3.39
-3.55
-3.76
-3.89
-4.11
-4.32
-4.43
-4.48
-4.4
-3.89
-3.09
-1.92
-0.64
0.59
1.68
2.4
2.77
2.88
2.67
2.35
2
1.57
1.15
0.72
0.29
-0.08
-0.4
-0.64
-0.91
-1.12
-1.33
-1.55
-1.68
-1.79
-1.95
-2.16
-2.4
-2.67
-2.88
-3.12
-3.39
-3.6
-3.89
-4.11
-4.4
-4.69
-4.91
-5.2
-5.41
-5.63
-5.76
-5.73
-5.52
-4.64
-3.12
-1.04
1.28
3.52
5.44
6.96
7.84
8.37
8.56
8.29
7.81
7.2
6.56
5.92
5.28
4.72
4.19
3.68
3.23
2.75
2.32
1.97
1.6
1.2
0.85
0.48
0.16
-0.24
-0.61
-0.96
-1.36
-1.68
-2
-2.21
-2.43
-2.64
-2.77
-2.99
-3.12
-3.25
-3.47
-3.6
-3.76
-3.81
-3.76
-3.31
-2.56
-1.44
-0.19
0.99
1.92
2.64
2.96
3.04
3.07
2.8
2.48
2.16
1.79
1.44
1.04
0.67
0.32
0
-0.32
-0.56
-0.8
-1.01
-1.2
-1.52
-1.84
-2.16
-2.45
-2.72
-2.96
-3.25
-3.47
-3.76
-3.97
-4.19
-4.32
-4.53
-4.8
-4.96
-5.15
-5.25
-5.28
-4.93
-4.24
-3.04
-1.33
0.43
2.08
3.52
4.37
4.88
5.04
4.88
4.48
3.95
3.41
2.88
2.43
1.84
1.36
0.93
0.56
0.32
-0.11
-0.48
-0.8
-1.12
-1.49
-1.84
-2.13
-2.35
-2.64
-2.96
-3.23
-3.52
-3.73
-3.95
-4.16
-4.37
-4.59
-4.8
-5.01
-5.17
-5.36
-5.57
-5.73
-5.84
-5.52
-4.77
-3.44
-1.52
0.67
2.8
4.56
5.89
6.88
7.12
7.23
6.96
6.51
5.92
5.36
4.72
4.13
3.6
2.96
2.37
1.84
1.41
0.99
0.48
0.05
-0.37
-0.8
-1.15
-1.47
-1.76
-1.89
-2.11
-2.32
-2.53
-2.75
-2.88
-3.09
-3.25
-3.36
-3.57
-3.73
-3.84
-4.03
-4.13
-4.24
-4.29
-4.08
-3.52
-2.69
-1.52
-0.16
0.99
1.95
2.56
2.91
2.91
2.72
2.29
1.87
1.44
0.93
0.51
0.08
-0.32
-0.69
-1.04
-1.41
-1.68
-1.92
-2.05
-2.21
-2.4
-2.61
-2.83
-3.12
-3.33
-3.6
-3.84
-4.08
-4.35
-4.56
-4.8
-5.07
-5.28
-5.49
-5.71
-5.84
-6
-5.89
-5.44
-4.4
-2.8
-0.72
1.52
3.6
5.36
6.51
7.25
7.52
7.6
7.23
6.72
6.05
5.36
4.72
4.08
3.44
2.88
2.27
1.73
1.28
0.85
0.43
0
-0.32
-0.64
-0.96
-1.33
-1.55
-1.68
-1.89
-2.11
-2.32
-2.53
-2.69
-2.88
-3.07
-3.23
-3.36
-3.55
-3.71
-3.76
-3.84
-3.79
-3.52
-2.85
-1.84
-0.56
0.8
2.08
2.96
3.63
3.95
4
3.76
3.44
3.04
2.61
2.19
1.76
1.28
0.91
0.48
0.16
-0.16
-0.56
-0.8
-1.12
-1.44
-1.65
-1.92
-2.16
-2.37
-2.64
-2.88
-3.09
-3.31
-3.52
-3.73
-3.89
-4.08
-4.27
-4.37
-4.56
-4.64
-4.69
-4.72
-4.43
-3.73
-2.64
-1.2
0.4
1.76
2.77
3.41
3.68
3.6
3.23
2.8
2.27
1.68
1.12
0.61
0.13
-0.32
-0.75
-1.12
-1.44
-1.65
-1.87
-2
-2.24
-2.56
-2.8
-3.09
-3.31
-3.52
-3.76
-4.03
-4.24
-4.45
-4.67
-4.88
-5.07
-5.23
-5.44
-5.57
-5.73
-5.92
-6.05
-6.05
-5.68
-4.77
-3.23
-1.12
1.2
3.33
5.2
6.53
7.33
7.76
7.71
7.39
6.88
6.24
5.6
4.96
4.24
3.6
2.96
2.51
1.97
1.52
1.09
0.67
0.32
-0.03
-0.4
-0.8
-1.12
-1.39
-1.6
-1.81
-2.03
-2.24
-2.43
-2.59
-2.72
-2.85
-3.07
-3.28
-3.39
-3.49
-3.6
-3.79
-3.89
-3.92
-3.73
-3.25
-2.48
-1.39
-0.21
0.96
1.76
2.29
2.56
2.61
2.45
2.16
1.73
1.31
0.88
0.56
0.24
-0.08
-0.37
-0.64
-0.8
-1.01
-1.17
-1.28
-1.49
-1.71
-1.92
-2.16
-2.48
-2.72
-3.01
-3.28
-3.6
-3.92
-4.24
-4.56
-4.8
-5.07
-5.36
-5.55
-5.65
-5.44
-4.77
-3.55
-1.84
0.32
2.35
4.16
5.47
6.32
6.72
6.83
6.51
6.08
5.44
4.8
4.16
3.6
3.01
2.48
2.03
1.49
1.04
0.53
0.11
-0.32
-0.75
-1.07
-1.36
-1.6
-1.87
-2.08
-2.37
-2.59
-2.8
-2.93
-3.15
-3.36
-3.49
-3.71
-3.84
-4.05
-4.27
-4.4
-4.48
-4.37
-4
-3.09
-1.76
-0.08
1.68
3.23
4.4
5.31
5.68
5.76
5.57
5.15
4.72
4.19
3.65
3.12
2.67
2.19
1.76
1.33
0.85
0.4
0.05
-0.27
-0.56
-0.8
-1.12
-1.36
-1.65
-1.92
-2.16
-2.45
-2.67
-2.96
-3.17
-3.39
-3.52
-3.73
-3.95
-4.08
-4.29
-4.45
-4.56
-4.64
-4.48
-4
-3.09
-1.92
-0.56
0.72
1.68
2.24
2.48
2.48
2.24
1.81
1.39
0.88
0.45
0.03
-0.32
-0.67
-1.04
-1.44
-1.68
-1.95
-2.16
-2.4
-2.67
-2.88
-3.09
-3.31
-3.52
-3.84
-4.11
-4.4
-4.53
-4.75
-4.96
-5.17
-5.44
-5.68
-5.89
-6.11
-6.32
-6.4
-6.13
-5.44
-4.03
-2.05
0.32
2.67
4.64
6.16
7.17
7.76
8
7.65
7.17
6.56
5.81
5.07
4.4
3.76
3.17
2.56
2
1.47
1.04
0.61
0.19
-0.16
-0.56
-0.88
-1.28
-1.57
-1.79
-2
-2.21
-2.43
-2.56
-2.77
-2.99
-3.12
-3.31
-3.41
-3.6
-3.73
-3.89
-4
-3.97
-3.81
-3.28
-2.43
-1.2
0.16
1.39
2.35
3.12
3.36
3.52
3.36
3.09
2.67
2.24
1.81
1.39
0.96
0.61
0.24
-0.08
-0.4
-0.67
-0.88
-1.17
-1.44
-1.76
-2.08
-2.35
-2.64
-2.85
-3.07
-3.36
-3.65
-3.87
-4.08
-4.29
-4.51
-4.72
-4.96
-5.17
-5.36
-5.36
-5.25
-4.72
-3.84
-2.51
-0.88
0.69
2.03
3.12
3.44
3.6
3.36
2.93
2.4
1.84
1.31
0.77
0.32
-0.21
-0.64
-0.96
-1.2
-1.52
-1.84
-2.11
-2.27
-2.32
-2.43
-2.59
-2.8
-2.91
-3.01
-3.12
-3.33
-3.55
-3.68
-3.89
-4.05
-4.16
-4.29
-4.45
-4.64
-4.75
-4.85
-4.88
-4.56
-3.76
-2.4
-0.43
1.76
4
5.68
7.07
8
8.53
8.69
8.56
8.08
7.49
6.88
6.21
5.57
4.96
4.43
3.89
3.36
2.93
2.51
2.08
1.73
1.36
0.96
0.64
0.32
0
-0.32
-0.64
-0.96
-1.28
-1.6
-1.92
-2.24
-2.51
-2.8
-2.99
-3.09
-3.28
-3.47
-3.57
-3.6
-3.63
-3.25
-2.64
-1.65
-0.48
0.64
1.63
2.37
2.72
2.88
2.77
2.48
2.13
1.71
1.28
0.88
0.51
0.16
-0.21
-0.48
-0.72
-1.01
-1.28
-1.68
-1.92
-2.19
-2.48
-2.8
-3.12
-3.36
-3.68
-4
-4.24
-4.48
-4.75
-4.96
-5.28
-5.55
-5.76
-5.95
-6.05
-6
-5.49
-4.43
-2.88
-0.75
1.39
3.44
5.01
6.13
6.72
7.04
6.88
6.48
5.89
5.2
4.56
3.81
3.12
2.48
1.87
1.28
0.8
0.29
-0.13
-0.56
-0.96
-1.23
-1.52
-1.73
-2
-2.24
-2.45
-2.67
-2.88
-3.09
-3.25
-3.44
-3.65
-3.87
-4
-4.19
-4.35
-4.56
-4.64
-4.53
-4.16
-3.17
-1.89
-0.4
1.23
2.56
3.52
4.11
4.43
4.48
4.24
3.87
3.44
2.91
2.43
1.92
1.41
0.99
0.56
0.21
-0.11
-0.4
-0.72
-1.04
-1.36
-1.6
-1.92
-2.16
-2.37
-2.59
-2.8
-3.04
-3.25
-3.44
-3.68
-3.95
-4.16
-4.35
-4.51
-4.72
-4.91
-5.01
-5.2
-5.04
-4.56
-3.68
-2.37
-0.93
0.4
1.49
2.19
2.64
2.67
2.45
2.08
1.63
1.15
0.64
0.21
-0.21
-0.64
-0.99
-1.36
-1.76
-2
-2.27
-2.48
-2.69
-2.91
-3.04
-3.25
-3.41
-3.52
-3.65
-3.87
-4.16
-4.4
-4.67
-4.88
-5.09
-5.31
-5.52
-5.65
-5.81
-6
-5.95
-5.63
-4.88
-3.44
-1.41
0.8
2.96
4.77
6.24
7.07
7.49
7.68
7.33
6.85
6.24
5.52
4.88
4.24
3.68
3.09
2.56
2.27
1.47
1.04
0.64
0.27
-0.16
-0.51
-0.88
-1.28
-1.49
-1.71
-1.92
-2.13
-2.35
-2.56
-2.75
-2.85
-3.04
-3.17
-3.39
-3.6
-3.71
-3.81
-3.92
-3.95
-3.89
-3.44
-2.61
-1.49
-0.16
1.09
2.05
2.8
3.17
3.28
3.2
2.88
2.51
2.08
1.65
1.17
0.72
0.4
0.03
-0.4
-0.77
-1.04
-1.28
-1.49
-1.76
-2.08
-2.4
-2.67
-2.96
-3.2
-3.47
-3.76
-4.05
-4.27
-4.56
-4.85
-5.07
-5.36
-5.57
-5.79
-5.92
-6.03
-5.97
-5.6
-4.85
-3.68
-2.16
-0.56
0.77
1.84
2.4
2.61
2.56
2.21
1.79
1.28
0.75
0.21
-0.4
-0.85
-1.33
-1.68
-1.89
-2.16
-2.32
-2.53
-2.69
-2.88
-3.01
-3.17
-3.36
-3.47
-3.57
-3.68
-3.79
-3.89
-4.08
-4.29
-4.51
-4.72
-4.93
-5.15
-5.28
-5.49
-5.71
-5.84
-5.87
-5.44
-4.64
-3.17
-1.25
0.88
2.93
4.64
5.84
6.61
6.88
6.8
6.45
5.97
5.36
4.8
4.16
3.6
3.07
2.48
2
1.57
1.2
0.8
0.37
0
-0.32
-0.64
-0.91
-1.12
-1.31
-1.47
-1.68
-1.87
-2.03
-2.32
-2.45
-2.67
-2.8
-2.93
-3.15
-3.28
-3.39
-3.49
-3.52
-3.6
-3.49
-3.12
-2.4
-1.33
-0.16
1.04
1.95
2.56
2.85
2.96
2.8
2.56
2.24
1.92
1.52
1.15
0.8
0.45
0.08
-0.32
-0.67
-0.99
-1.2
-1.41
-1.68
-1.92
-2.21
-2.48
-2.72
-3.01
-3.23
-3.52
-3.73
-3.95
-4.16
-4.37
-4.64
-4.88
-5.09
-5.25
-5.36
-5.31
-4.77
-3.68
-1.92
0.16
2.4
4.4
5.95
7.04
7.6
7.81
7.68
7.23
6.64
6
5.36
4.67
4.08
3.49
3.01
2.56
2.03
1.55
1.2
0.8
0.43
0
-0.37
-0.64
-1.04
-1.39
-1.76
-2.08
-2.21
-2.43
-2.56
-2.77
-2.99
-3.12
-3.31
-3.41
-3.6
-3.81
-3.92
-4
-3.81
-3.28
-2.32
-0.96
0.64
2.16
3.39
4.29
4.96
5.07
5.01
4.64
4.21
3.73
3.28
2.77
2.29
1.84
1.41
1.2
0.56
0.11
-0.37
-0.72
-1.01
-1.23
-1.44
-1.73
-1.95
-2.16
-2.29
-2.51
-2.72
-2.93
-3.15
-3.28
-3.49
-3.71
-3.92
-4.13
-4.35
-4.56
-4.67
-4.72
-4.8
-4.51
-3.92
-2.96
-1.65
-0.27
1.04
1.84
2.37
2.64
2.56
2.24
1.84
1.41
0.99
0.56
0.13
-0.19
-0.48
-0.88
-1.25
-1.52
-1.79
-1.95
-2.16
-2.29
-2.51
-2.72
-2.83
-2.88
-3.04
-3.25
-3.52
-3.76
-3.97
-4.19
-4.4
-4.64
-4.91
-5.12
-5.33
-5.55
-5.68
-5.81
-5.6
-4.96
-3.65
-1.73
0.56
2.8
4.77
6.24
7.2
7.73
7.84
7.57
7.09
6.48
5.81
5.12
4.48
3.87
3.33
2.8
2.29
1.81
1.36
0.93
0.56
0.16
-0.08
-0.45
-0.8
-1.2
-1.52
-1.68
-1.89
-2.11
-2.32
-2.45
-2.61
-2.8
-2.99
-3.15
-3.36
-3.55
-3.65
-3.76
-3.84
-3.89
-3.76
-3.17
-2.27
-1.12
0.16
1.39
2.24
2.83
3.15
3.2
3.04
2.72
2.32
1.89
1.47
1.04
0.67
0.4
0.08
-0.24
-0.51
-0.8
-1.04
-1.31
-1.6
-1.92
-2.24
-2.48
-2.69
-2.96
-3.2
-3.44
-3.71
-3.92
-4.16
-4.43
-4.64
-4.83
-4.99
-5.2
-5.31
-5.41
-5.44
-5.15
-4.45
-3.28
-1.73
-0.03
1.52
2.77
3.52
4
4.03
3.71
3.28
2.72
2.08
1.44
0.83
0.29
-0.16
-0.67
-0.99
-1.2
-1.31
-1.47
-1.6
-1.63
-1.73
-1.76
-1.87
-1.97
-2
-2.11
-2.16
-2.24
-2.24
-2.29
-2.48
-2.67
-2.83
-3.04
-3.15
-3.31
-3.52
-3.65
-3.87
-4
-3.89
-3.36
-2.16
-0.53
1.49
3.6
5.2
6.43
7.2
7.41
7.41
7.04
6.59
6
5.36
4.8
4.21
3.68
3.23
2.75
2.4
1.97
1.49
1.04
0.69
0.27
-0.16
-0.59
-0.91
-1.2
-1.6
-1.97
-2.32
-2.69
-2.96
-3.36
-3.57
-3.73
-3.92
-4.13
-4.35
-4.48
-4.61
-4.83
-4.96
-5.12
-5.17
-5.12
-4.67
-3.92
-2.88
-1.6
-0.37
0.64
1.33
1.6
1.68
1.55
1.28
0.88
0.45
0.03
-0.32
-0.72
-1.09
-1.44
-1.76
-2.08
-2.32
-2.53
-2.75
-2.96
-3.07
-3.23
-3.44
-3.63
-3.73
-3.84
-3.97
-4.13
-4.24
-4.35
-4.51
-4.8
-5.01
-5.23
-5.44
-5.63
-5.73
-5.68
-5.12
-4.11
-2.48
-0.32
1.92
3.92
5.47
6.43
6.96
7.09
6.83
6.32
5.76
5.12
4.48
3.84
3.2
2.64
2.13
1.65
1.2
0.67
0.24
-0.08
-0.48
-0.85
-1.12
-1.39
-1.55
-1.76
-1.97
-2.19
-2.4
-2.61
-2.83
-2.96
-3.17
-3.44
-3.6
-3.73
-3.89
-4.08
-4.19
-4.24
-4.08
-3.55
-2.59
-1.2
0.48
2.08
3.44
4.32
4.8
5.04
4.93
4.67
4.24
3.79
3.25
2.8
2.29
1.87
1.44
1.09
0.67
0.16
-0.24
-0.51
-0.8
-1.07
-1.23
-1.44
-1.73
-1.95
-2.16
-2.37
-2.59
-2.72
-2.93
-3.15
-3.28
-3.49
-3.65
-3.84
-4.05
-4.21
-4.4
-4.59
-4.64
-4.56
-4.16
-3.41
-2.32
-1.01
0.27
1.36
1.89
2.27
2.4
2.16
1.79
1.36
0.93
0.56
0.16
-0.27
-0.59
-0.88
-1.28
-1.6
-1.84
-2.11
-2.27
-2.48
-2.59
-2.75
-2.96
-3.07
-3.17
-3.36
-3.57
-3.84
-4.08
-4.29
-4.51
-4.72
-4.96
-5.17
-5.36
-5.57
-5.73
-5.84
-5.73
-5.15
-4
-2.19
0
2.4
4.4
6
6.96
7.41
7.57
7.44
6.99
6.4
5.76
5.2
4.61
4.08
3.65
3.23
2.88
2.48
2.16
1.76
1.41
1.04
0.64
0.32
-0.05
-0.4
-0.8
-1.17
-1.36
-1.57
-1.73
-1.92
-2.05
-2.21
-2.32
-2.51
-2.67
-2.88
-3.07
-3.17
-3.2
-3.23
-2.85
-2.16
-1.04
0.35
1.76
2.96
3.87
4.32
4.56
4.56
4.4
4.05
3.63
3.28
2.85
2.43
2.08
1.68
1.36
0.96
0.53
0.11
-0.4
-0.8
-1.07
-1.36
-1.57
-1.79
-2
-2.21
-2.43
-2.64
-2.88
-3.15
-3.36
-3.55
-3.71
-3.92
-4.11
-4.21
-4.32
-4.4
-4.4
-4.24
-3.57
-2.61
-1.36
0.11
1.55
2.56
3.15
3.47
3.44
3.01
2.59
2.08
1.55
1.07
0.56
0.16
-0.16
-0.48
-0.77
-0.93
-1.04
-1.07
-1.17
-1.28
-1.49
-1.76
-2
-2.29
-2.56
-2.8
-3.04
-3.31
-3.52
-3.76
-4.03
-4.24
-4.45
-4.67
-4.88
-5.09
-5.31
-5.52
-5.65
-5.71
-5.44
-4.67
-3.33
-1.36
0.91
3.09
4.96
6.21
6.96
7.28
7.2
6.83
6.24
5.6
4.96
4.32
3.76
3.17
2.56
2.11
1.63
1.12
0.72
0.35
-0.08
-0.43
-0.8
-1.12
-1.36
-1.63
-1.84
-2.03
-2.19
-2.4
-2.59
-2.75
-2.96
-3.07
-3.17
-3.36
-3.49
-3.71
-4
-4.19
-4.35
-4.48
-4.51
-4.19
-3.6
-2.59
-1.36
-0.16
0.88
1.68
2.16
2.4
2.35
2.08
1.73
1.31
0.88
0.56
0.19
-0.16
-0.56
-0.88
-1.2
-1.55
-1.92
-2.24
-2.48
-2.75
-2.96
-3.17
-3.39
-3.68
-3.97
-4.19
-4.4
-4.61
-4.88
-5.2
-5.33
-5.55
-5.76
-5.97
-6.19
-6.32
-6.37
-6.11
-5.52
-4.16
-2.29
-0.08
2
3.76
4.96
5.73
5.95
5.84
5.47
4.88
4.16
3.6
2.96
2.4
1.79
1.25
0.8
0.27
-0.16
-0.4
-0.61
-0.83
-1.04
-1.28
-1.55
-1.76
-2.05
-2.27
-2.48
-2.69
-2.91
-3.12
-3.25
-3.47
-3.6
-3.79
-3.95
-4.08
-4.29
-4.45
-4.56
-4.67
-4.61
-4.32
-3.41
-2.19
-0.64
0.99
2.37
3.36
3.95
4.21
4.16
3.92
3.55
3.12
2.67
2.13
1.68
1.25
0.88
0.8
0.27
0.11
-0.08
-0.4
-0.67
-0.88
-1.17
-1.39
-1.6
-1.81
-2.03
-2.24
-2.45
-2.67
-2.8
-3.01
-3.23
-3.36
-3.57
-3.73
-3.92
-4.13
-4.29
-4.4
-4.51
-4.56
-4.24
-3.71
-2.8
-1.6
-0.24
0.93
1.92
2.32
2.48
2.4
1.97
1.55
1.2
0.77
0.4
0
-0.32
-0.59
-0.88
-1.28
-1.55
-1.76
-1.95
-2.11
-2.32
-2.53
-2.75
-2.96
-3.09
-3.31
-3.52
-3.73
-4
-4.16
-4.37
-4.59
-4.8
-5.04
-5.25
-5.44
-5.65
-5.87
-6.08
-6.21
-6
-5.28
-3.89
-1.97
0.32
2.53
4.45
5.84
6.67
7.04
7.04
6.69
6.21
5.6
4.93
4.29
3.68
3.07
2.53
2
1.49
1.01
0.56
0.21
-0.16
-0.56
-0.69
-0.91
-1.12
-1.33
-1.6
-1.76
-1.97
-2.13
-2.32
-2.53
-2.69
-2.88
-2.99
-3.15
-3.36
-3.55
-3.65
-3.84
-3.92
-3.97
-3.92
-3.47
-2.72
-1.6
-0.32
1.01
2
2.75
3.12
3.28
3.23
3.01
2.64
2.24
1.87
1.44
1.04
0.72
0.4
0.05
-0.27
-0.56
-0.69
-0.91
-1.12
-1.36
-1.68
-1.92
-2.16
-2.43
-2.64
-2.88
-3.15
-3.36
-3.57
-3.79
-4
-4.19
-4.35
-4.56
-4.77
-4.93
-5.04
-4.91
-4.53
-3.76
-2.43
-0.83
0.72
2.11
3.07
3.68
3.84
3.73
3.36
2.91
2.43
1.92
1.33
0.91
0.48
0.05
-0.27
-0.56
-0.77
-0.99
-1.12
-1.25
-1.52
-1.76
-2
-2.32
-2.56
-2.8
-3.07
-3.28
-3.49
-3.71
-3.92
-4.11
-4.27
-4.48
-4.61
-4.83
-5.12
-5.25
-5.47
-5.6
-5.55
-5.23
-4.32
-2.91
-0.99
1.2
3.23
4.83
5.92
6.48
6.64
6.56
6.19
5.65
5.12
4.56
3.97
3.36
2.83
2.35
1.92
1.47
0.99
0.64
0.29
-0.08
-0.48
-0.69
-0.91
-1.12
-1.31
-1.47
-1.68
-1.89
-2.11
-2.24
-2.37
-2.59
-2.8
-2.93
-3.09
-3.2
-3.41
-3.63
-3.76
-3.84
-3.89
-3.92
-3.49
-2.85
-1.92
-0.64
0.64
1.68
2.51
2.93
3.04
2.99
2.72
2.32
1.89
1.47
1.12
0.72
0.4
0.16
-0.13
-0.4
-0.64
-0.85
-1.01
-1.2
-1.52
-1.79
-2
-2.29
-2.56
-2.8
-3.01
-3.23
-3.52
-3.65
-3.87
-4.08
-4.29
-4.56
-4.72
-4.91
-5.01
-5.04
-4.64
-3.68
-2.24
-0.19
1.95
3.92
5.55
6.51
7.04
7.2
6.99
6.56
6.03
5.44
4.88
4.27
3.68
3.2
2.69
2.21
1.76
1.33
0.91
0.56
0.16
-0.21
-0.56
-0.88
-1.2
-1.6
-1.81
-2.03
-2.32
-2.45
-2.67
-2.8
-2.93
-3.15
-3.28
-3.49
-3.65
-3.84
-3.97
-4.08
-4.16
-3.87
-3.28
-2.32
-0.99
0.56
2
3.09
3.84
4.32
4.32
4.21
3.84
3.41
2.99
2.56
2.13
1.71
1.28
0.93
0.72
0.32
0
-0.32
-0.64
-0.91
-1.07
-1.36
-1.65
-1.87
-2.16
-2.37
-2.59
-2.8
-3.01
-3.23
-3.44
-3.65
-3.81
-4
-4.21
-4.37
-4.56
-4.67
-4.72
-4.48
-3.95
-2.99
-1.68
-0.27
1.12
2.32
2.85
3.12
3.12
2.88
2.51
2.08
1.57
1.09
0.64
0.29
-0.08
-0.4
-0.59
-1.07
-1.28
-1.47
-1.63
-1.84
-1.97
-2.19
-2.48
-2.69
-2.91
-3.2
-3.41
-3.68
-3.92
-4.13
-4.35
-4.56
-4.8
-5.01
-5.2
-5.41
-5.63
-5.84
-6.03
-6.13
-6
-5.31
-4.08
-2.32
0.03
2.27
4.24
5.71
6.72
7.04
7.15
6.83
6.4
5.76
5.12
4.48
3.87
3.33
2.8
2.21
1.79
1.68
1.01
0.59
0.16
-0.08
-0.45
-0.72
-0.93
-1.15
-1.28
-1.49
-1.71
-1.84
-2.05
-2.21
-2.4
-2.59
-2.75
-2.88
-3.07
-3.23
-3.44
-3.55
-3.65
-3.84
-3.84
-3.68
-3.2
-2.48
-1.41
-0.16
0.99
1.89
2.56
2.85
2.91
2.8
2.48
2.11
1.76
1.33
0.96
0.56
0.24
-0.08
-0.4
-0.64
-0.91
-1.12
-1.33
-1.55
-1.76
-2.05
-2.32
-2.64
-2.85
-3.07
-3.28
-3.52
-3.79
-4
-4.27
-4.43
-4.64
-4.93
-5.09
-5.28
-5.31
-5.25
-4.72
-3.71
-2.11
-0.08
1.95
3.81
5.2
6.03
6.45
6.56
6.21
5.79
5.28
4.67
4.08
3.44
2.93
2.45
1.84
1.41
0.99
0.48
0.08
-0.29
-0.64
-0.93
-1.2
-1.44
-1.65
-1.87
-2.08
-2.29
-2.51
-2.64
-2.83
-2.99
-3.2
-3.33
-3.55
-3.76
-3.89
-4.11
-4.24
-4.35
-4.35
-4
-3.25
-2.03
-0.48
1.23
2.72
3.84
4.45
4.83
4.96
4.69
4.27
3.84
3.41
2.93
2.48
2.05
1.63
1.2
0.77
0.35
0.08
-0.21
-0.48
-0.72
-0.96
-1.23
-1.44
-1.65
-1.87
-2.08
-2.27
-2.43
-2.64
-2.77
-2.99
-3.2
-3.41
-3.63
-3.76
-3.97
-4.19
-4.32
-4.4
-4.4
-4.24
-3.65
-2.69
-1.44
-0.08
1.15
2.08
2.67
2.83
2.72
2.45
2.08
1.68
1.23
0.75
0.4
0
-0.37
-0.64
-0.96
-1.23
-1.44
-1.68
-1.89
-2
-2.19
-2.29
-2.48
-2.77
-2.99
-3.2
-3.49
-3.71
-4
-4.13
-4.35
-4.56
-4.77
-5.04
-5.2
-5.41
-5.63
-5.76
-5.81
-5.49
-4.8
-3.31
-1.33
0.96
3.17
4.93
6.16
6.91
7.17
7.12
6.77
6.24
5.68
5.04
4.4
3.84
3.31
2.77
2.32
1.79
1.31
0.96
0.56
0.19
-0.16
-0.53
-0.8
-1.04
-1.25
-1.47
-1.68
-1.81
-2.03
-2.16
-2.37
-2.59
-2.72
-2.91
-3.01
-3.2
-3.41
-3.57
-3.76
-3.87
-3.92
-4
-3.73
-3.2
-2.24
-1.04
0.24
1.52
2.35
2.93
3.2
3.17
2.96
2.72
2.29
1.92
1.52
1.09
0.72
0.4
0.08
-0.24
-0.48
-0.75
-0.91
-1.04
-1.28
-1.55
-1.84
-2.05
-2.27
-2.56
-2.77
-3.04
-3.2
-3.41
-3.63
-3.84
-4.08
-4.29
-4.48
-4.69
-4.85
-4.96
-4.85
-4.37
-3.52
-2.05
-0.35
1.52
2.99
4.11
4.8
4.99
4.93
4.56
4.13
3.65
3.12
2.56
2.03
1.52
1.09
0.67
0.32
-0.08
-0.4
-0.72
-1.04
-1.36
-1.68
-1.89
-2.11
-2.4
-2.61
-2.88
-3.12
-3.33
-3.55
-3.76
-3.97
-4.19
-4.4
-4.59
-4.75
-4.96
-5.17
-5.39
-5.52
-5.6
-5.55
-5.2
-4.08
-2.48
-0.4
1.71
3.68
5.04
5.95
6.32
6.4
6.05
5.63
5.12
4.51
3.92
3.36
2.83
2.29
1.84
1.41
0.93
0.48
0.08
-0.19
-0.48
-0.69
-0.91
-1.12
-1.33
-1.49
-1.68
-1.89
-2.05
-2.24
-2.43
-2.59
-2.8
-2.99
-3.15
-3.36
-3.49
-3.71
-3.92
-4.03
-4.08
-4.16
-3.97
-3.44
-2.48
-1.28
-0.05
1.2
2.05
2.59
2.8
2.75
2.48
2.16
1.73
1.31
0.88
0.56
0.24
-0.16
-0.4
-0.56
-1.04
-1.25
-1.47
-1.6
-1.79
-1.95
-2.16
-2.48
-2.69
-2.88
-3.12
-3.39
-3.6
-3.87
-4.03
-4.24
-4.53
-4.75
-4.96
-5.17
-5.39
-5.52
-5.63
-5.57
-4.96
-3.84
-2.08
0.16
2.43
4.45
6
6.8
7.28
7.44
7.17
6.69
6.08
5.44
4.85
4.24
3.68
3.09
2.56
2.13
1.65
1.28
0.93
0.51
0.08
-0.24
-0.56
-0.88
-1.17
-1.39
-1.6
-1.87
-2.03
-2.24
-2.35
-2.51
-2.72
-2.85
-3.01
-3.12
-3.33
-3.55
-3.68
-3.79
-3.89
-3.92
-3.84
-3.36
-2.56
-1.36
-0.03
1.28
2.35
3.04
3.44
3.6
3.49
3.2
2.85
2.43
2
1.6
1.23
0.88
0.56
0.24
-0.16
-0.37
-0.53
-0.72
-0.96
-1.28
-1.52
-1.81
-2.03
-2.24
-2.45
-2.67
-2.96
-3.09
-3.31
-3.52
-3.73
-3.95
-4.08
-4.29
-4.45
-4.64
-4.72
-4.51
-4
-2.96
-1.57
0.08
1.71
2.99
3.92
4.4
4.56
4.4
3.97
3.55
3.04
2.51
1.97
1.52
1.09
0.67
0.24
0
-0.32
-0.64
-0.96
-1.23
-1.44
-1.73
-1.95
-2.16
-2.45
-2.67
-2.96
-3.09
-3.31
-3.52
-3.73
-3.95
-4.08
-4.29
-4.51
-4.72
-4.93
-5.09
-5.28
-5.36
-5.25
-4.64
-3.6
-1.89
0.16
2.19
3.95
5.44
6.16
6.59
6.64
6.37
5.89
5.36
4.8
4.21
3.68
3.12
2.59
2.16
1.73
1.31
0.96
0.56
0.24
-0.16
-0.51
-0.83
-1.04
-1.17
-1.39
-1.6
-1.81
-2.03
-2.16
-2.37
-2.53
-2.72
-2.85
-3.01
-3.2
-3.39
-3.49
-3.68
-3.87
-3.97
-4
-3.84
-3.36
-2.64
-1.52
-0.24
0.88
1.79
2.48
2.72
2.77
2.61
2.32
1.97
1.55
1.2
0.8
0.48
0.16
-0.13
-0.4
-0.48
-1.01
-1.23
-1.44
-1.57
-1.73
-1.92
-2.21
-2.48
-2.72
-2.93
-3.15
-3.36
-3.6
-3.87
-4.08
-4.29
-4.51
-4.72
-4.91
-5.07
-5.12
-4.93
-4.29
-3.2
-1.36
0.67
2.72
4.51
5.84
6.56
6.88
6.83
6.48
5.92
5.33
4.72
4.11
3.52
2.96
2.37
1.95
1.52
1.01
0.59
0.16
-0.16
-0.53
-0.96
-1.33
-1.6
-1.76
-1.97
-2.13
-2.32
-2.56
-2.77
-2.96
-3.15
-3.31
-3.44
-3.63
-3.73
-3.92
-4.05
-4.21
-4.4
-4.4
-4.19
-3.6
-2.43
-0.83
0.96
2.69
4.03
4.96
5.47
5.63
5.52
5.17
4.69
4.16
3.65
3.23
2.8
2.37
1.95
1.84
1.01
0.59
0.16
-0.24
-0.56
-0.8
-1.01
-1.28
-1.52
-1.73
-1.95
-2.16
-2.35
-2.51
-2.72
-2.99
-3.15
-3.28
-3.41
-3.63
-3.84
-3.97
-4.13
-4.24
-4.43
-4.59
-4.64
-4.45
-3.92
-3.12
-1.92
-0.64
0.64
1.55
2.19
2.48
2.51
2.29
1.92
1.49
1.07
0.64
0.24
-0.08
-0.4
-0.8
-1.12
-1.36
-1.57
-1.73
-1.92
-2.16
-2.37
-2.56
-2.67
-2.77
-3.04
-3.31
-3.47
-3.68
-3.97
-4.19
-4.48
-4.69
-4.91
-5.12
-5.33
-5.55
-5.68
-5.71
-5.28
-4.48
-2.93
-0.96
1.36
3.44
5.15
6.24
6.91
7.07
6.96
6.51
5.92
5.28
4.72
4.08
3.52
2.99
2.45
2
1.49
1.01
0.56
0.21
-0.21
-0.56
-0.93
-1.15
-1.36
-1.63
-1.79
-2
-2.21
-2.43
-2.64
-2.75
-2.91
-3.04
-3.23
-3.39
-3.52
-3.73
-3.89
-4
-4.11
-4.05
-3.76
-2.85
-1.68
-0.16
1.47
2.85
3.84
4.43
4.69
4.72
4.45
4.03
3.6
3.17
2.69
2.24
1.81
1.44
1.04
0.59
0.21
-0.08
-0.4
-0.67
-0.88
-1.17
-1.39
-1.6
-1.73
-1.95
-2.16
-2.29
-2.51
-2.64
-2.83
-2.99
-3.12
-3.33
-3.55
-3.76
-3.97
-4.13
-4.32
-4.43
-4.48
-4.4
-4
-3.25
-2.16
-0.88
0.24
1.28
1.79
2.05
2.08
1.84
1.47
1.12
0.69
0.32
-0.08
-0.43
-0.75
-1.04
-1.23
-1.76
-2
-2.21
-2.43
-2.56
-2.69
-2.85
-3.04
-3.15
-3.25
-3.44
-3.73
-3.95
-4.16
-4.37
-4.64
-4.88
-5.09
-5.31
-5.52
-5.73
-5.89
-5.92
-5.55
-4.59
-3.04
-0.93
1.41
3.76
5.41
6.59
7.28
7.44
7.28
6.8
6.24
5.55
4.8
4.16
3.63
3.12
2.72
2.35
2
1.57
1.15
0.72
0.29
-0.13
-0.64
-1.09
-1.63
-2.16
-2.59
-3.01
-3.36
-3.79
-4.16
-4.56
-4.8
-5.01
-5.2
-5.31
-5.41
-5.52
-5.6
-5.6
-5.52
-5.17
-4.53
-3.52
-2.11
-0.56
0.96
2.13
2.93
3.2
3.31
3.09
2.72
2.27
1.79
1.36
0.93
0.51
0.08
-0.35
-0.72
-0.96
-1.25
-1.47
-1.76
-1.89
-2.11
-2.24
-2.35
-2.45
-2.56
-2.69
-2.85
-3.04
-3.25
-3.41
-3.6
-3.79
-3.95
-4.16
-4.35
-4.45
-4.56
-4.64
-4.64
-4.4
-3.81
-2.91
-1.76
-0.51
0.67
1.44
1.89
2.11
2.08
1.76
1.44
1.04
0.61
0.19
-0.24
-0.61
-0.83
-1.04
-1.15
-1.25
-1.28
-1.28
-1.28
-1.28
-1.17
-0.75
-0.4
-0.16
-0.27
-0.56
-0.05
2.67
6.96
9.49
10.24
10.24
10.24
10.24
10.24
10.24
10.24
10.24
10.21
10.16
10.24
10.24
10.24
10.24
10.24
10.24
10.24
10.24
10.24
10.24
10.24
10.24
10.24
10.24
10.24
10.24
10.24
10.24
10.24
10.24
10.24
10.24
10.24
10.24
10.24
10.24
10.24
10.24
10.24
10.24
10.24
10.24
10.24
10.24
10.24
10.24
10.24
10.24
10.24
10.24
10
9.73
9.52
9.33
9.33
9.76
10.11
10.21
10.24
10.24
10.24
10.24
10.24
10.24
10.24
10.24
10.24
10.24
10.24
10.24
10.24
10.24
10.24
10.24
10.21
10
9.6
9.17
8.75
8.32
7.97
7.6
7.28
6.88
6.56
6.24
5.84
5.52
5.2
4.88
4.56
4.16
3.92
3.6
3.36
3.2
3.31
3.92
5.01
6.56
8.24
9.6
10.24
10.24
10.24
10.24
10.24
10.24
10.24
10.24
9.84
9.2
8.48
7.92
7.33
6.8
6.19
5.65
5.28
4.85
4.48
4.08
3.73
3.36
3.04
2.64
2.27
1.92
1.55
1.28
0.96
0.61
0.24
-0.08
-0.32
-0.64
-0.96
-1.25
-1.52
-1.76
-1.92
-1.81
-1.28
-0.05
1.55
3.36
5.04
6.48
7.52
8.13
8.35
8.24
7.81
7.28
6.56
5.89
5.2
4.56
3.92
3.23
2.64
2.24
1.71
1.12
0.69
0.27
-0.08
-0.48
-0.85
-1.2
-1.6
-1.92
-2.16
-2.29
-2.51
-2.8
-2.93
-3.15
-3.28
-3.49
-3.71
-3.84
-4.05
-4.21
-4.32
-4.45
-4.56
-4.56
-4.27
-3.63
-2.64
-1.44
-0.21
0.88
1.68
2.16
2.4
2.29
2.03
1.6
1.17
0.75
0.4
-0.03
-0.4
-0.72
-1.04
-1.36
-1.68
-1.92
-2.19
-2.4
-2.59
-2.69
-2.88
-3.01
-3.17
-3.36
-3.57
-3.79
-4.08
-4.29
-4.51
-4.72
-4.93
-5.09
-5.28
-5.52
-5.73
-5.84
-5.76
-5.33
-4.32
-2.75
-0.56
1.6
3.55
5.09
6.4
6.91
7.12
7.12
6.69
6.16
5.52
4.88
4.29
3.68
3.12
2.53
2
1.57
1.15
0.72
0.29
-0.08
-0.48
-0.83
-1.15
-1.36
-1.57
-1.79
-2
-2.21
-2.43
-2.56
-2.77
-2.93
-3.12
-3.33
-3.49
-3.68
-3.87
-3.97
-4.08
-4.24
-4.19
-3.84
-3.09
-1.92
-0.48
0.91
2.13
3.04
3.6
3.87
3.84
3.68
3.31
2.88
2.43
1.95
1.6
1.2
0.83
0.48
0.08
-0.24
-0.48
-0.69
-0.96
-1.28
-1.52
-1.79
-2.08
-2.29
-2.56
-2.72
-2.93
-3.2
-3.44
-3.65
-3.87
-4.08
-4.27
-4.43
-4.64
-4.8
-4.85
-4.88
-4.53
-3.84
-2.72
-1.12
0.48
1.92
2.99
3.68
3.92
3.95
3.63
3.2
2.75
2.21
1.68
1.23
0.75
0.32
0.11
-0.48
-0.72
-0.93
-1.15
-1.36
-1.6
-1.92
-2.24
-2.45
-2.72
-2.88
-3.09
-3.31
-3.52
-3.73
-3.89
-4.08
-4.29
-4.51
-4.72
-4.91
-5.07
-5.28
-5.39
-5.49
-5.6
-5.31
-4.51
-3.2
-1.41
0.61
2.48
4
5.12
5.84
6.05
6.11
5.84
5.39
4.85
4.24
3.63
3.09
2.64
2.13
1.65
1.2
0.77
0.35
0
-0.29
-0.56
-0.8
-1.01
-1.23
-1.44
-1.68
-1.89
-2.08
-2.27
-2.43
-2.64
-2.83
-2.99
-3.2
-3.33
-3.49
-3.68
-3.81
-3.97
-4.08
-4.05
-3.84
-3.2
-2.24
-0.96
0.32
1.47
2.27
2.8
2.99
2.93
2.64
2.29
1.87
1.44
1.01
0.64
0.24
-0.08
-0.4
-0.72
-1.01
-1.28
-1.44
-1.65
-1.87
-2.08
-2.4
-2.67
-2.88
-3.12
-3.39
-3.6
-3.81
-4.03
-4.24
-4.53
-4.75
-4.96
-5.17
-5.39
-5.52
-5.63
-5.63
-5.2
-4.29
-2.75
-0.72
1.47
3.55
5.2
6.29
7.04
7.36
7.39
7.07
6.48
5.92
5.28
4.64
4.08
3.49
2.96
2.43
1.95
1.52
1.09
0.72
0.32
-0.11
-0.43
-0.72
-1.12
-1.44
-1.68
-1.95
-2.11
-2.32
-2.45
-2.67
-2.88
-3.01
-3.23
-3.36
-3.55
-3.71
-3.84
-4
-4.05
-4.08
-3.65
-2.91
-1.76
-0.29
1.15
2.4
3.36
3.95
4.16
4.21
4
3.6
3.17
2.75
2.32
1.89
1.47
1.04
0.72
0.4
0
-0.32
-0.59
-0.88
-1.12
-1.44
-1.68
-1.97
-2.19
-2.4
-2.69
-2.91
-3.12
-3.33
-3.55
-3.68
-3.89
-4.16
-4.32
-4.53
-4.69
-4.8
-4.91
-4.91
-4.72
-4
-2.88
-1.52
0
1.28
2.24
2.72
2.93
2.8
2.53
2.11
1.6
1.15
0.61
0.16
-0.27
-0.64
-1.04
-1.36
-1.63
-1.84
-2.03
-2.19
-2.4
-2.59
-2.69
-2.8
-3.04
-3.31
-3.6
-3.73
-3.95
-4.24
-4.45
-4.72
-4.88
-5.09
-5.31
-5.52
-5.73
-5.89
-6.08
-6.08
-5.97
-5.36
-4.19
-2.27
0
2.21
4.08
5.68
6.51
7.04
7.28
7.09
6.61
6.08
5.44
4.8
4.16
3.6
3.01
2.48
2.03
1.55
1.04
0.64
0.32
-0.08
-0.43
-0.75
-1.04
-1.17
-1.39
-1.6
-1.81
-2.03
-2.16
-2.37
-2.53
-2.72
-2.93
-3.09
-3.28
-3.39
-3.55
-3.68
-3.84
-3.89
-3.76
-3.36
-2.56
-1.44
-0.16
1.07
2.08
2.83
3.2
3.28
3.23
2.96
2.56
2.13
1.71
1.36
0.96
0.59
0.24
0
-0.27
-0.56
-0.77
-1.04
-1.36
-1.6
-1.87
-2.16
-2.45
-2.72
-2.96
-3.17
-3.39
-3.6
-3.84
-4.05
-4.24
-4.45
-4.67
-4.88
-5.04
-5.09
-4.88
-4.19
-2.96
-1.28
0.83
2.75
4.4
5.57
6.37
6.64
6.75
6.48
6
5.44
4.85
4.24
3.63
3.09
2.56
2.05
1.63
1.2
0.77
0.35
-0.08
-0.4
-0.77
-1.12
-1.49
-1.76
-1.92
-2.13
-2.35
-2.56
-2.77
-2.93
-3.12
-3.31
-3.47
-3.68
-3.87
-4.03
-4.16
-4.24
-4.13
-3.76
-2.77
-1.39
0.32
2
3.55
4.56
5.31
5.63
5.68
5.44
5.07
4.64
4.11
3.63
3.12
2.61
2.19
1.76
1.25
0.83
0.32
-0.11
-0.53
-0.88
-1.09
-1.36
-1.6
-1.81
-2.03
-2.24
-2.45
-2.67
-2.88
-3.07
-3.23
-3.44
-3.63
-3.79
-4
-4.19
-4.29
-4.48
-4.48
-4.32
-3.76
-2.8
-1.47
-0.08
1.15
2.11
2.72
2.91
2.91
2.64
2.21
1.79
1.36
0.85
0.43
0
-0.35
-0.72
-1.04
-1.25
-1.47
-1.68
-1.89
-2.11
-2.24
-2.45
-2.72
-2.96
-3.2
-3.47
-3.68
-3.89
-4.11
-4.32
-4.61
-4.83
-5.04
-5.17
-5.39
-5.6
-5.71
-5.65
-5.2
-4.16
-2.45
-0.32
1.97
3.95
5.68
6.75
7.44
7.76
7.68
7.31
6.72
6.11
5.52
4.88
4.24
3.65
3.04
2.59
2.32
1.6
1.2
0.83
0.4
0.05
-0.32
-0.72
-1.04
-1.36
-1.68
-1.87
-2.03
-2.24
-2.43
-2.59
-2.8
-2.93
-3.15
-3.36
-3.47
-3.57
-3.68
-3.65
-3.39
-2.72
-1.68
-0.4
1.04
2.21
3.12
3.76
3.97
4.08
3.84
3.49
3.07
2.64
2.21
1.73
1.28
0.96
0.59
0.24
-0.19
-0.67
-0.96
-1.28
-1.6
-1.92
-2.16
-2.43
-2.64
-2.93
-3.15
-3.36
-3.63
-3.79
-4
-4.21
-4.43
-4.72
-4.83
-4.99
-5.12
-5.01
-4.53
-3.68
-2.37
-0.72
0.96
2.24
3.2
3.84
4
3.89
3.52
3.09
2.61
2.08
1.57
1.09
0.56
0.13
-0.19
-0.48
-0.69
-0.91
-1.04
-1.28
-1.6
-1.84
-2.08
-2.35
-2.56
-2.77
-2.99
-3.2
-3.41
-3.63
-3.84
-3.97
-4.19
-4.4
-4.53
-4.75
-4.88
-4.99
-4.99
-4.48
-3.49
-1.95
0.08
2.21
4.08
5.6
6.59
7.17
7.44
7.36
6.99
6.48
5.92
5.28
4.64
4.11
3.57
3.04
2.59
2.11
1.68
1.25
0.83
0.4
-0.03
-0.4
-0.8
-1.23
-1.65
-2.08
-2.64
-3.6
-6.08
-8.56
-10
-10.16
-10.16
-10.16
-10.16
-10.16
-10.16
-10.16
-10.16
-10.16
-10.16
-10.16
-10.16
-10.16
-10.16
-10.16
-10.16
-10.16
-10.16
-10.16
-10.16
-10.16
-10.16
-10.16
-10.16
-10.16
-10.16
-10.16
-10.16
-10.16
-10.16
-10.16
-10.16
-10.16
-10.16
-10.16
-10.16
-10.16
-10.16
-10.16
-10.16
-10.16
-10.16
-10.16
-10.16
-10.16
-10.16
-10.16
-10.16
-10.16
-10.16
-10.16
-10.16
-10.16
-10.16
-10.16
-10.16
-10.16
-10.16
-10.16
-10.16
-10.16
-10.16
-10.16
-10.16
-10.16
-10.16
-10.16
-10.16
-10.16
-10.16
-10.16
-10.16
-10.16
-10.16
-10.16
-10.16
-10.16
-10.16
-10.16
-10.16
-10.16
-10.16
-10.16
-8.24
-3.36
-3.47
-3.63
-3.76
-3.89
-4.16
-4.32
-4.4
-4.24
-3.84
-3.01
-1.84
-0.56
0.69
1.81
2.64
3.17
3.39
3.36
3.15
2.88
2.48
2.05
1.63
1.2
0.8
0.64
0
-0.56
-1.25
-1.92
-2.59
-3.28
-3.92
-4.53
-5.12
-5.68
-6.08
-6.4
-6.72
-7.01
-7.23
-7.44
-7.57
-7.79
-7.92
-8.11
-8.27
-8.48
-8.69
-8.85
-8.88
-8.72
-8.19
-7.28
-6
-4.61
-3.2
-1.95
-1.2
-0.72
-0.56
-0.72
-1.04
-1.39
-1.81
-2.32
-2.77
-3.25
-3.68
-4.03
-4.4
-4.64
-4.85
-5.07
-5.28
-5.47
-5.63
-5.84
-6.03
-6.19
-6.4
-6.51
-6.67
-6.88
-7.01
-7.17
-7.28
-7.47
-7.63
-7.76
-7.87
-7.97
-8
-7.84
-7.31
-6.4
-4.85
-2.93
-0.88
1.09
2.53
3.52
4.11
4.37
4.4
4.19
3.87
3.44
3.01
2.59
2.08
1.57
1.09
0.64
0.21
-0.11
-0.32
-0.51
-0.61
-0.88
-1.17
-1.39
-1.68
-1.97
-2.19
-2.48
-2.69
-2.91
-3.2
-3.41
-3.63
-3.84
-4.05
-4.27
-4.48
-4.69
-4.85
-4.96
-4.88
-4.51
-3.76
-2.67
-1.44
-0.16
0.85
1.6
2.16
2.27
2.27
2.08
1.76
1.39
1.04
0.61
0.24
-0.16
-0.51
-0.83
-1.12
-1.36
-1.63
-1.84
-2.05
-2.27
-2.48
-2.61
-2.83
-3.04
-3.17
-3.39
-3.6
-3.84
-4.16
-4.4
-4.69
-4.96
-5.2
-5.44
-5.65
-5.84
-5.79
-5.41
-4.56
-3.33
-1.89
-0.4
0.96
1.97
2.72
2.83
2.83
2.64
2.21
1.79
1.36
0.85
0.37
-0.08
-0.59
-0.96
-1.28
-1.6
-1.87
-2.08
-2.27
-2.43
-2.64
-2.77
-2.99
-3.2
-3.33
-3.55
-3.68
-3.89
-4.16
-4.4
-4.69
-4.96
-5.28
-5.52
-5.79
-6.08
-6.29
-6.51
-6.64
-6.43
-5.73
-4.56
-2.77
-0.75
1.28
2.75
3.87
4.56
4.91
4.85
4.56
4.13
3.65
3.12
2.56
1.97
1.44
1.01
0.59
0.16
-0.19
-0.35
-0.48
-0.61
-0.77
-0.96
-1.09
-1.31
-1.6
-1.81
-2.08
-2.32
-2.53
-2.75
-2.96
-3.2
-3.41
-3.6
-3.84
-4.11
-4.32
-4.51
-4.67
-4.8
-4.88
-4.72
-4.32
-3.55
-2.59
-1.44
-0.32
0.64
1.2
1.57
1.73
1.68
1.44
1.12
0.8
0.48
0.11
-0.24
-0.61
-0.88
-1.2
-1.41
-1.63
-1.92
-2.05
-2.27
-2.48
-2.69
-2.91
-3.04
-3.23
-3.33
-3.52
-3.73
-3.89
-4
-4.32
-4.59
-4.88
-5.15
-5.31
-5.52
-5.68
-5.52
-4.96
-3.73
-2.19
-0.4
1.47
3.12
4.24
4.91
5.23
5.28
4.96
4.59
4.16
3.71
3.17
2.64
2.05
1.57
1.12
0.77
0.45
0.24
0
-0.32
-0.64
-0.85
-1.12
-1.36
-1.65
-1.92
-2.16
-2.4
-2.67
-2.88
-3.12
-3.39
-3.6
-3.87
-4.03
-4.24
-4.45
-4.61
-4.8
-4.77
-4.45
-3.76
-2.64
-1.25
0.16
1.39
2.35
3.04
3.33
3.39
3.28
3.04
2.67
2.24
1.81
1.44
1.04
0.69
0.32
-0.08
-0.19
-0.35
-0.48
-0.69
-0.91
-1.04
-1.17
-1.44
-1.76
-2
-2.27
-2.48
-2.8
-3.07
-3.28
-3.49
-3.71
-3.92
-4.21
-4.43
-4.64
-4.75
-4.8
-4.72
-4.24
-3.49
-2.4
-1.2
-0.03
1.04
1.76
2.13
2.32
2.19
1.92
1.6
1.25
0.88
0.48
0.16
-0.16
-0.56
-0.88
-1.15
-1.36
-1.57
-1.79
-1.92
-2.13
-2.35
-2.56
-2.69
-2.85
-3.04
-3.17
-3.44
-3.68
-3.97
-4.24
-4.48
-4.77
-5.04
-5.36
-5.57
-5.79
-6
-6.19
-6.19
-5.76
-4.8
-3.41
-1.6
0.45
2.27
3.76
4.67
5.25
5.44
5.31
4.99
4.56
4.05
3.57
3.04
2.51
2.03
1.6
1.17
0.75
0.56
0.37
0.21
-0.08
-0.32
-0.53
-0.72
-1.01
-1.23
-1.44
-1.73
-1.95
-2.16
-2.37
-2.59
-2.8
-3.01
-3.23
-3.44
-3.65
-3.92
-4.08
-4.19
-4.29
-4.32
-3.89
-3.25
-2.4
-1.31
-0.13
0.88
1.65
2.13
2.32
2.4
2.29
2.08
1.76
1.44
1.12
0.72
0.4
0.16
-0.19
-0.56
-0.8
-1.04
-1.25
-1.36
-1.55
-1.71
-1.92
-2.11
-2.21
-2.4
-2.64
-2.91
-3.2
-3.44
-3.71
-4
-4.29
-4.56
-4.8
-4.99
-5.09
-5.12
-4.56
-3.65
-2.32
-0.59
1.17
2.72
3.95
4.64
4.96
5.09
4.93
4.64
4.19
3.71
3.28
2.83
2.29
1.84
1.41
1.04
0.64
0.32
0.05
-0.24
-0.56
-0.83
-1.12
-1.41
-1.63
-1.84
-2.16
-2.43
-2.64
-2.85
-3.07
-3.36
-3.57
-3.84
-4.08
-4.29
-4.51
-4.72
-4.85
-4.85
-4.48
-3.57
-2.4
-0.8
0.85
2.29
3.44
4.11
4.43
4.64
4.51
4.19
3.76
3.33
2.91
2.48
2.05
1.63
1.2
0.96
0.75
0.56
0.24
-0.08
-0.32
-0.61
-0.88
-1.12
-1.44
-1.76
-2.08
-2.29
-2.51
-2.8
-3.01
-3.28
-3.52
-3.81
-4.08
-4.32
-4.53
-4.69
-4.88
-4.85
-4.59
-3.92
-2.91
-1.68
-0.32
0.91
1.81
2.48
2.69
2.75
2.56
2.24
1.87
1.52
1.17
0.8
0.4
0.05
-0.37
-0.72
-0.91
-1.07
-1.28
-1.55
-1.71
-1.84
-1.97
-2.19
-2.4
-2.53
-2.75
-3.04
-3.33
-3.6
-3.84
-4.05
-4.32
-4.64
-4.88
-5.15
-5.44
-5.63
-5.68
-5.44
-4.75
-3.47
-1.68
0.29
2.27
4
5.07
5.81
6.16
6.16
6
5.6
5.07
4.53
4.08
3.55
3.07
2.56
2.16
1.79
1.36
0.96
0.59
0.16
-0.13
-0.35
-0.64
-0.85
-1.07
-1.28
-1.49
-1.71
-1.92
-2.13
-2.35
-2.56
-2.77
-2.99
-3.2
-3.39
-3.55
-3.76
-3.95
-4.05
-4
-3.63
-2.93
-2
-0.91
0.27
1.36
2.13
2.67
2.88
2.96
2.85
2.64
2.32
2
1.68
1.28
0.96
0.64
0.35
0.08
-0.16
-0.37
-0.59
-0.8
-0.93
-1.15
-1.36
-1.65
-1.92
-2.16
-2.45
-2.72
-3.04
-3.28
-3.55
-3.76
-4.08
-4.4
-4.64
-4.83
-4.93
-4.8
-4.29
-3.33
-2
-0.27
1.49
2.96
4.11
4.85
5.12
5.17
5.01
4.64
4.21
3.79
3.28
2.83
2.35
1.92
1.49
1.07
0.64
0.32
0
-0.4
-0.64
-0.96
-1.28
-1.6
-1.92
-2.16
-2.45
-2.72
-3.04
-3.28
-3.55
-3.76
-4
-4.32
-4.56
-4.85
-5.07
-5.28
-5.47
-5.52
-5.36
-4.48
-3.25
-1.6
0.37
2.24
3.76
4.8
5.33
5.6
5.55
5.28
4.88
4.45
3.97
3.44
2.85
2.43
2
1.57
1.15
0.72
0.48
0.21
-0.08
-0.29
-0.56
-0.8
-1.09
-1.31
-1.52
-1.76
-2.03
-2.24
-2.45
-2.67
-2.88
-3.17
-3.39
-3.6
-3.81
-4.03
-4.24
-4.35
-4.4
-4.16
-3.65
-2.8
-1.76
-0.56
0.61
1.52
2.11
2.37
2.48
2.35
2.13
1.84
1.47
1.2
0.8
0.48
0.16
-0.16
-0.4
-0.67
-0.88
-1.09
-1.31
-1.44
-1.65
-1.81
-2
-2.13
-2.35
-2.64
-2.88
-3.15
-3.44
-3.73
-3.95
-4.16
-4.48
-4.75
-5.04
-5.25
-5.47
-5.6
-5.47
-4.83
-3.68
-2.08
-0.11
1.92
3.63
4.96
5.84
6.21
6.32
6.08
5.73
5.25
4.8
4.27
3.73
3.2
2.77
2.35
1.92
1.52
1.15
0.72
0.37
0
-0.24
-0.48
-0.75
-0.96
-1.17
-1.39
-1.6
-1.81
-2.03
-2.24
-2.37
-2.59
-2.8
-3.01
-3.23
-3.36
-3.57
-3.79
-3.92
-3.97
-3.76
-3.36
-2.48
-1.41
-0.24
0.99
1.95
2.64
3.07
3.17
3.2
2.99
2.72
2.4
2.16
1.79
1.44
1.07
0.8
0.56
0.27
0.05
-0.16
-0.37
-0.53
-0.72
-1.12
-1.39
-1.6
-1.89
-2.16
-2.48
-2.8
-3.12
-3.44
-3.68
-3.95
-4.24
-4.45
-4.72
-4.88
-5.04
-5.04
-4.8
-4
-2.88
-1.52
0.16
1.71
2.88
3.79
4.21
4.32
4.35
4.08
3.68
3.23
2.75
2.32
1.89
1.47
1.04
0.67
0.4
0.16
-0.05
-0.27
-0.56
-0.88
-1.2
-1.52
-1.81
-2.08
-2.4
-2.69
-2.91
-3.2
-3.41
-3.63
-3.92
-4.21
-4.48
-4.72
-4.93
-5.15
-5.36
-5.49
-5.55
-5.36
-4.53
-3.36
-1.68
0.32
2.24
3.84
4.93
5.57
5.92
5.89
5.68
5.28
4.83
4.29
3.84
3.33
2.85
2.4
1.97
1.55
1.12
0.72
0.45
0.24
-0.05
-0.27
-0.48
-0.77
-0.99
-1.28
-1.41
-1.63
-1.84
-2.05
-2.32
-2.56
-2.77
-2.99
-3.2
-3.41
-3.57
-3.76
-3.97
-4.08
-4.16
-3.89
-3.36
-2.56
-1.47
-0.29
0.88
1.63
2.21
2.48
2.59
2.53
2.32
2
1.68
1.36
1.01
0.69
0.4
0
-0.27
-0.48
-0.67
-0.83
-1.04
-1.17
-1.33
-1.52
-1.65
-1.92
-2.24
-2.45
-2.72
-2.96
-3.25
-3.52
-3.76
-4.08
-4.35
-4.56
-4.8
-5.07
-5.28
-5.44
-5.33
-4.8
-3.68
-2.13
-0.24
1.68
3.44
4.8
5.65
6.13
6.24
6.11
5.79
5.36
4.83
4.35
3.84
3.39
2.91
2.48
2.16
1.84
1.36
0.93
0.56
0.16
-0.16
-0.43
-0.72
-0.93
-1.15
-1.36
-1.57
-1.79
-2
-2.21
-2.37
-2.56
-2.77
-2.99
-3.2
-3.39
-3.55
-3.76
-3.87
-3.97
-3.84
-3.28
-2.53
-1.52
-0.24
1.04
2
2.75
3.12
3.36
3.41
3.25
3.04
2.72
2.35
2
1.68
1.36
1.04
0.75
0.48
0.16
0.03
-0.19
-0.4
-0.61
-0.88
-1.12
-1.44
-1.76
-2
-2.32
-2.59
-2.8
-3.04
-3.31
-3.6
-3.89
-4.11
-4.32
-4.53
-4.75
-4.96
-4.8
-4.32
-3.44
-2.19
-0.64
0.88
2.19
3.15
3.84
4.05
4.11
4
3.6
3.23
2.8
2.37
1.95
1.52
1.17
0.8
0.72
0.19
-0.03
-0.16
-0.4
-0.72
-0.96
-1.28
-1.6
-1.84
-2.16
-2.43
-2.64
-2.96
-3.23
-3.44
-3.73
-3.95
-4.16
-4.45
-4.72
-5.04
-5.17
-5.39
-5.52
-5.44
-5.07
-4.16
-2.67
-0.8
1.28
3.09
4.53
5.52
5.92
6.08
6.08
5.73
5.31
4.88
4.37
3.89
3.36
2.93
2.51
2.08
1.65
1.23
0.88
0.53
0.16
-0.08
-0.32
-0.53
-0.72
-0.96
-1.23
-1.44
-1.63
-1.79
-2
-2.21
-2.43
-2.72
-2.85
-3.07
-3.28
-3.49
-3.71
-3.84
-4
-4.05
-3.92
-3.36
-2.56
-1.52
-0.27
0.91
1.92
2.67
3.04
3.12
3.09
2.93
2.64
2.32
1.95
1.6
1.28
0.96
0.72
0.43
0.21
0
-0.24
-0.45
-0.56
-0.77
-1.04
-1.28
-1.57
-1.84
-2.16
-2.45
-2.67
-2.96
-3.2
-3.47
-3.76
-4
-4.32
-4.56
-4.77
-4.93
-5.04
-4.96
-4.37
-3.36
-1.6
0.43
2.48
4.45
5.95
6.96
7.41
7.52
7.36
6.93
6.45
5.92
5.47
4.93
4.48
3.97
3.55
3.12
2.69
2.32
2
1.6
1.23
0.88
0.51
0.24
-0.16
-0.51
-0.88
-1.2
-1.44
-1.71
-1.92
-2.11
-2.27
-2.4
-2.61
-2.83
-3.04
-3.25
-3.41
-3.6
-3.63
-3.68
-3.6
-3.2
-2.45
-1.44
-0.16
1.07
2.24
2.88
3.41
3.68
3.68
3.57
3.36
3.12
2.8
2.4
2.08
1.76
1.44
1.12
0.8
0.56
0.37
0.21
-0.08
-0.4
-0.67
-0.96
-1.17
-1.44
-1.76
-1.97
-2.24
-2.48
-2.69
-2.91
-3.12
-3.36
-3.63
-3.84
-4.05
-4.27
-4.4
-4.43
-4.16
-3.44
-2.4
-1.01
0.56
1.95
3.12
3.92
4.37
4.53
4.48
4.24
3.87
3.44
3.01
2.59
2.24
1.84
1.47
1.12
0.75
0.48
0.16
-0.16
-0.43
-0.72
-0.96
-1.23
-1.52
-1.81
-2.08
-2.32
-2.53
-2.75
-2.96
-3.28
-3.49
-3.68
-3.92
-4.19
-4.4
-4.69
-4.91
-5.12
-5.2
-5.2
-4.96
-4.08
-2.85
-1.2
0.69
2.56
4
5.07
5.65
5.92
5.87
5.6
5.2
4.75
4.27
3.76
3.33
2.91
2.48
2.16
1.84
1.44
1.12
0.75
0.4
0.03
-0.24
-0.4
-0.61
-0.88
-1.12
-1.33
-1.49
-1.68
-1.89
-2.11
-2.32
-2.51
-2.67
-2.88
-3.09
-3.31
-3.52
-3.65
-3.87
-4
-4.11
-4.05
-3.68
-2.99
-2.03
-0.88
0.29
1.31
2.08
2.45
2.61
2.72
2.51
2.29
2
1.68
1.36
0.96
0.72
0.45
0.16
-0.13
-0.35
-0.56
-0.77
-0.93
-1.12
-1.33
-1.49
-1.68
-1.92
-2.24
-2.48
-2.77
-2.99
-3.28
-3.57
-3.79
-4.08
-4.32
-4.59
-4.88
-5.09
-5.31
-5.36
-5.17
-4.59
-3.52
-1.84
0.19
2.24
3.97
5.36
6.24
6.72
6.77
6.64
6.21
5.73
5.2
4.67
4.19
3.68
3.23
2.75
2.4
1.97
1.6
1.2
0.85
0.48
0.16
-0.24
-0.56
-0.8
-1.09
-1.31
-1.52
-1.65
-1.87
-2.08
-2.21
-2.43
-2.56
-2.77
-3.04
-3.2
-3.41
-3.57
-3.76
-3.97
-4.08
-4.08
-3.84
-3.36
-2.48
-1.36
-0.13
1.04
1.97
2.67
3.12
3.23
3.23
3.04
2.8
2.48
2.16
1.84
1.52
1.2
0.88
0.61
0.32
0.13
-0.03
-0.24
-0.43
-0.59
-0.8
-1.12
-1.39
-1.68
-1.89
-2.11
-2.4
-2.64
-2.96
-3.2
-3.41
-3.68
-3.92
-4.16
-4.43
-4.64
-4.75
-4.75
-4.4
-3.73
-2.56
-1.12
0.51
2.05
3.44
4.08
4.56
4.8
4.75
4.48
4.08
3.65
3.23
2.8
2.37
1.95
1.52
1.12
0.85
0.56
0.27
0
-0.32
-0.64
-0.91
-1.2
-1.44
-1.76
-2.08
-2.29
-2.56
-2.8
-3.01
-3.23
-3.44
-3.68
-3.95
-4.16
-4.4
-4.67
-4.88
-5.17
-5.39
-5.52
-5.57
-5.25
-4.64
-3.44
-1.95
-0.24
1.39
2.83
3.76
4.32
4.59
4.64
4.4
4.08
3.68
3.25
2.83
2.4
1.92
1.55
1.12
0.83
0.61
0.4
0.27
0.05
-0.16
-0.4
-0.72
-0.96
-1.28
-1.6
-1.84
-2.08
-2.35
-2.64
-2.88
-3.15
-3.44
-3.73
-3.95
-4.16
-4.45
-4.67
-4.88
-4.99
-4.93
-4.64
-4
-2.93
-1.6
-0.24
1.04
2.16
2.8
3.17
3.36
3.15
2.93
2.56
2.16
1.84
1.44
1.09
0.72
0.32
0
-0.27
-0.48
-0.67
-0.83
-0.96
-1.15
-1.25
-1.44
-1.68
-1.95
-2.16
-2.45
-2.67
-2.88
-3.17
-3.39
-3.6
-3.89
-4.16
-4.48
-4.61
-4.83
-5.12
-5.31
-5.47
-5.52
-5.2
-4.35
-3.12
-1.44
0.48
2.32
3.76
4.88
5.52
5.84
5.84
5.6
5.25
4.83
4.32
3.87
3.39
2.96
2.56
2.19
2.08
1.41
1.04
0.64
0.43
0.21
0
-0.24
-0.51
-0.72
-0.93
-1.15
-1.36
-1.49
-1.71
-2
-2.13
-2.35
-2.48
-2.69
-2.91
-3.04
-3.25
-3.41
-3.6
-3.81
-3.97
-4.08
-4.05
-3.79
-3.2
-2.4
-1.39
-0.32
0.72
1.57
2.24
2.45
2.56
2.56
2.35
2.08
1.84
1.52
1.2
0.88
0.64
0.37
0.08
-0.11
-0.27
-0.48
-0.67
-0.83
-0.96
-1.09
-1.31
-1.52
-1.73
-2
-2.32
-2.53
-2.75
-2.96
-3.25
-3.52
-3.76
-4
-4.27
-4.48
-4.67
-4.72
-4.48
-3.89
-2.72
-1.12
0.64
2.45
4.16
5.12
5.81
6.16
6.24
6.08
5.76
5.33
4.85
4.4
3.89
3.47
3.04
2.61
2.19
1.76
1.36
0.99
0.56
0.21
-0.16
-0.56
-0.69
-0.91
-1.2
-1.41
-1.68
-1.84
-2.05
-2.27
-2.48
-2.69
-2.91
-3.12
-3.33
-3.55
-3.76
-3.95
-4.11
-4.24
-4.32
-4.16
-3.76
-2.99
-1.92
-0.64
0.59
1.71
2.48
3.07
3.39
3.44
3.39
3.17
2.88
2.56
2.19
1.84
1.52
1.2
0.88
0.56
0.29
0.08
-0.05
-0.27
-0.48
-0.64
-0.96
-1.2
-1.52
-1.84
-2.08
-2.4
-2.67
-2.88
-3.09
-3.31
-3.6
-3.89
-4.11
-4.32
-4.61
-4.83
-5.04
-5.01
-4.75
-4.16
-3.2
-1.87
-0.4
1.04
2.21
3.12
3.55
3.76
3.76
3.52
3.15
2.72
2.32
2
1.6
1.17
0.8
0.72
0.35
0.13
-0.08
-0.27
-0.43
-0.64
-0.93
-1.2
-1.52
-1.76
-2.03
-2.32
-2.56
-2.83
-3.04
-3.33
-3.55
-3.76
-4.05
-4.27
-4.56
-4.77
-4.99
-5.2
-5.41
-5.63
-5.68
-5.49
-4.85
-3.84
-2.21
-0.45
1.36
2.8
3.97
4.72
5.04
5.09
4.96
4.69
4.27
3.84
3.41
2.99
2.56
2.13
1.71
1.36
1.07
0.85
0.64
0.4
0.13
-0.08
-0.32
-0.59
-0.8
-1.01
-1.23
-1.44
-1.65
-1.87
-2.16
-2.37
-2.59
-2.8
-3.01
-3.28
-3.44
-3.65
-3.87
-4.08
-4.21
-4.32
-4.4
-4.03
-3.44
-2.56
-1.49
-0.37
0.72
1.52
2.05
2.4
2.4
2.29
2.08
1.84
1.52
1.28
0.93
0.56
0.24
0.08
-0.13
-0.4
-0.59
-0.69
-0.88
-1.07
-1.17
-1.36
-1.47
-1.63
-1.92
-2.13
-2.35
-2.64
-2.85
-3.12
-3.36
-3.57
-3.84
-4.16
-4.4
-4.61
-4.8
-4.99
-5.04
-4.8
-4.13
-2.96
-1.36
0.4
2.21
3.84
4.8
5.49
5.84
5.87
5.81
5.52
5.09
4.67
4.24
3.73
3.36
2.96
2.56
2.19
1.84
1.44
1.07
0.64
0.29
-0.03
-0.24
-0.45
-0.67
-0.96
-1.17
-1.39
-1.6
-1.81
-1.97
-2.16
-2.37
-2.59
-2.8
-2.99
-3.15
-3.36
-3.63
-3.79
-3.92
-4
-3.89
-3.6
-2.91
-1.95
-0.8
0.43
1.55
2.4
2.99
3.31
3.36
3.39
3.23
3.04
2.64
2.32
2
1.71
1.44
1.12
0.8
0.53
0.32
0.19
-0.03
-0.24
-0.48
-0.8
-1.04
-1.33
-1.6
-1.84
-2.16
-2.43
-2.64
-2.85
-3.07
-3.28
-3.57
-3.79
-4
-4.21
-4.37
-4.56
-4.43
-4
-3.2
-2.05
-0.61
0.8
2.11
3.07
3.68
3.97
4.03
3.92
3.68
3.31
2.96
2.56
2.19
1.76
1.44
1.12
1.04
0.59
0.37
0.16
-0.08
-0.4
-0.64
-0.93
-1.2
-1.44
-1.76
-2.03
-2.24
-2.48
-2.75
-2.96
-3.25
-3.47
-3.68
-3.97
-4.19
-4.48
-4.69
-4.91
-5.04
-5.23
-5.23
-4.8
-3.95
-2.61
-0.96
0.8
2.45
3.84
4.61
5.09
5.28
5.25
5.09
4.72
4.29
3.87
3.44
3.09
2.67
2.32
1.92
1.55
1.2
0.88
0.56
0.32
0.08
-0.19
-0.4
-0.64
-0.91
-1.12
-1.41
-1.63
-1.84
-2.05
-2.27
-2.56
-2.69
-2.91
-3.2
-3.41
-3.63
-3.84
-4.03
-4.13
-4.16
-3.92
-3.39
-2.56
-1.39
-0.16
0.96
1.89
2.43
2.72
2.88
2.83
2.56
2.32
2
1.68
1.28
0.96
0.72
0.45
0.08
-0.16
-0.29
-0.45
-0.64
-0.83
-0.93
-1.04
-1.25
-1.52
-1.76
-2.05
-2.27
-2.56
-2.77
-2.99
-3.28
-3.49
-3.76
-4
-4.21
-4.48
-4.72
-4.93
-5.04
-4.88
-4.35
-3.33
-1.84
-0.11
1.71
3.36
4.59
5.44
6
6.03
5.97
5.76
5.41
4.99
4.56
4.13
3.71
3.28
2.93
2.51
2.08
1.68
1.31
0.96
0.53
0.16
-0.08
-0.29
-0.51
-0.72
-0.93
-1.15
-1.28
-1.49
-1.71
-1.84
-2.05
-2.27
-2.48
-2.69
-2.91
-3.12
-3.31
-3.47
-3.6
-3.76
-3.76
-3.44
-2.83
-1.92
-0.88
0.19
1.2
2.08
2.64
2.96
3.04
3.09
2.93
2.64
2.32
2.05
1.76
1.44
1.12
0.8
0.69
0.37
0.16
0.03
-0.13
-0.32
-0.53
-0.8
-1.12
-1.33
-1.6
-1.84
-2.05
-2.32
-2.56
-2.8
-3.07
-3.28
-3.52
-3.79
-4
-4.27
-4.37
-4.4
-4.05
-3.36
-2.24
-0.83
0.77
2.32
3.55
4.51
4.96
5.2
5.2
5.04
4.69
4.32
3.92
3.52
3.15
2.8
2.4
2.03
1.6
1.17
0.8
0.48
0.24
-0.03
-0.32
-0.53
-0.8
-1.04
-1.33
-1.55
-1.76
-2
-2.27
-2.48
-2.69
-2.91
-3.12
-3.39
-3.55
-3.76
-3.97
-4.13
-4.24
-4.19
-3.81
-3.04
-1.71
-0.11
1.6
3.17
4.51
5.44
5.84
6
6
5.79
5.47
5.12
4.69
4.32
3.92
3.49
3.12
2.72
2.56
2.03
1.6
1.2
0.83
0.48
0.05
-0.32
-0.64
-0.88
-1.15
-1.36
-1.57
-1.79
-2
-2.21
-2.43
-2.64
-2.85
-3.07
-3.28
-3.49
-3.71
-3.84
-4.03
-4.13
-4
-3.6
-2.91
-2.08
-0.99
0.03
0.88
1.49
1.92
2.08
2.13
1.97
1.76
1.44
1.12
0.72
0.51
0.24
-0.08
-0.19
-0.51
-0.64
-0.85
-1.01
-1.12
-1.25
-1.41
-1.52
-1.65
-1.87
-2.08
-2.37
-2.59
-2.8
-3.09
-3.31
-3.6
-3.84
-4.11
-4.4
-4.61
-4.83
-4.96
-5.01
-4.75
-4.08
-2.88
-1.49
0.08
1.63
2.96
3.84
4.45
4.67
4.72
4.51
4.24
3.84
3.44
3.07
2.72
2.29
1.87
1.6
1.28
0.96
0.64
0.43
0.21
0
-0.32
-0.59
-0.88
-1.17
-1.39
-1.6
-1.89
-2.16
-2.48
-2.61
-2.83
-3.12
-3.33
-3.6
-3.84
-4.05
-4.27
-4.48
-4.69
-4.8
-4.88
-4.59
-3.95
-3.04
-1.84
-0.61
0.48
1.41
2.11
2.56
2.59
2.59
2.4
2.16
1.79
1.52
1.17
0.8
0.4
0.16
-0.11
-0.48
-0.69
-0.85
-1.04
-1.23
-1.39
-1.6
-1.73
-1.89
-2.08
-2.19
-2.4
-2.72
-2.93
-3.2
-3.44
-3.65
-3.92
-4.16
-4.4
-4.61
-4.8
-4.91
-4.91
-4.48
-3.73
-2.61
-1.36
-0.16
0.96
2
2.43
2.69
2.8
2.67
2.4
2.08
1.73
1.36
0.96
0.61
0.24
-0.08
-0.37
-0.53
-0.72
-0.91
-1.07
-1.2
-1.33
-1.49
-1.68
-1.79
-2
-2.24
-2.48
-2.8
-3.04
-3.25
-3.47
-3.68
-3.92
-4.19
-4.4
-4.64
-4.91
-5.12
-5.28
-5.33
-5.2
-4.69
-3.73
-2.4
-0.69
1.01
2.56
3.73
4.53
4.88
5.04
4.93
4.72
4.37
4
3.6
3.2
2.83
2.48
2.08
1.76
1.36
1.15
0.93
0.64
0.43
0.16
-0.08
-0.29
-0.56
-0.8
-1.01
-1.23
-1.44
-1.68
-1.89
-2.08
-2.32
-2.59
-2.8
-3.07
-3.23
-3.44
-3.65
-3.81
-4
-4.03
-3.92
-3.44
-2.64
-1.63
-0.56
0.48
1.33
2
2.4
2.56
2.56
2.35
2.13
1.84
1.55
1.28
0.96
0.64
0.32
0.24
-0.13
-0.35
-0.48
-0.61
-0.83
-0.96
-1.09
-1.31
-1.52
-1.76
-2.03
-2.24
-2.48
-2.75
-3.04
-3.33
-3.55
-3.76
-4.05
-4.27
-4.56
-4.69
-4.8
-4.56
-3.89
-2.72
-1.12
0.61
2.32
3.84
4.88
5.57
5.92
5.92
5.81
5.52
5.12
4.75
4.32
3.89
3.47
3.04
2.69
2.48
1.92
1.49
1.07
0.72
0.37
0
-0.24
-0.45
-0.67
-0.88
-1.12
-1.39
-1.6
-1.81
-2.03
-2.24
-2.45
-2.67
-2.88
-3.09
-3.31
-3.44
-3.63
-3.73
-3.76
-3.57
-3.04
-2.24
-1.07
0.11
1.28
2.29
3.04
3.52
3.76
3.76
3.68
3.47
3.2
2.88
2.64
2.32
2
1.71
1.6
1.28
1.07
0.85
0.56
0.32
0.05
-0.24
-0.48
-0.75
-0.96
-1.25
-1.47
-1.68
-1.97
-2.19
-2.4
-2.61
-2.83
-3.12
-3.33
-3.55
-3.6
-3.65
-3.44
-2.88
-1.87
-0.64
0.64
1.87
2.88
3.6
4.11
4.21
4.16
4.03
3.76
3.36
3.04
2.67
2.32
1.92
1.55
1.2
0.77
0.4
0.16
-0.16
-0.43
-0.72
-0.96
-1.28
-1.52
-1.81
-2.03
-2.24
-2.53
-2.75
-3.04
-3.25
-3.47
-3.76
-3.97
-4.24
-4.48
-4.69
-4.91
-5.12
-5.17
-4.85
-4.24
-2.99
-1.39
0.32
2.11
3.49
4.48
5.15
5.41
5.52
5.39
5.07
4.72
4.29
3.87
3.44
3.09
2.72
2.4
2.05
1.63
1.28
0.88
0.61
0.4
0.11
-0.11
-0.32
-0.61
-0.83
-1.12
-1.33
-1.55
-1.68
-1.89
-2.16
-2.32
-2.53
-2.75
-2.96
-3.2
-3.41
-3.6
-3.79
-3.84
-3.92
-3.63
-2.99
-2.16
-1.09
-0.03
1.04
1.76
2.29
2.56
2.67
2.61
2.4
2.11
1.84
1.52
1.17
0.85
0.64
0.32
0
-0.24
-0.43
-0.53
-0.64
-0.77
-0.93
-1.12
-1.33
-1.55
-1.84
-2.05
-2.32
-2.56
-2.77
-3.04
-3.28
-3.52
-3.79
-4
-4.21
-4.43
-4.56
-4.35
-3.76
-2.72
-1.17
0.53
2.4
3.87
4.99
5.76
6.11
6.21
6.16
5.92
5.55
5.12
4.69
4.27
3.84
3.44
3.07
2.72
2.32
2
1.6
1.25
0.88
0.48
0.16
-0.16
-0.48
-0.69
-0.91
-1.04
-1.25
-1.47
-1.68
-1.92
-2.13
-2.32
-2.53
-2.75
-2.96
-3.15
-3.31
-3.44
-3.52
-3.41
-3.04
-2.19
-1.23
-0.08
1.04
2.05
2.8
3.25
3.47
3.52
3.47
3.25
3.04
2.72
2.4
2.08
1.79
1.52
1.28
1.07
0.85
0.56
0.32
0
-0.32
-0.61
-0.88
-1.12
-1.36
-1.63
-1.84
-2.08
-2.35
-2.56
-2.8
-3.07
-3.28
-3.57
-3.79
-3.92
-4
-4
-3.76
-2.96
-1.84
-0.56
0.83
2.21
3.2
3.95
4.27
4.32
4.27
4
3.68
3.25
2.83
2.48
2.19
1.92
1.6
1.25
0.88
0.56
0.32
0.05
-0.24
-0.53
-0.8
-1.04
-1.28
-1.6
-1.84
-2.16
-2.43
-2.72
-3.04
-3.36
-3.6
-3.89
-4.11
-4.32
-4.53
-4.69
-4.88
-4.88
-4.77
-4.32
-3.39
-2.05
-0.4
1.39
3.04
4.4
5.15
5.63
5.84
5.63
5.36
5.04
4.61
4.19
3.76
3.44
3.12
2.72
2.48
2.32
1.68
1.28
0.91
0.48
0.19
-0.08
-0.4
-0.72
-0.99
-1.2
-1.44
-1.71
-1.92
-2.11
-2.21
-2.4
-2.53
-2.75
-2.96
-3.17
-3.39
-3.52
-3.71
-3.81
-3.76
-3.39
-2.75
-1.92
-0.75
0.32
1.28
1.97
2.4
2.56
2.53
2.43
2.24
1.95
1.68
1.36
1.15
0.93
0.64
0.48
0.05
-0.08
-0.29
-0.45
-0.64
-0.77
-0.93
-1.04
-1.28
-1.6
-1.92
-2.21
-2.43
-2.72
-3.01
-3.23
-3.52
-3.65
-3.87
-4.08
-4.27
-4.43
-4.48
-4.16
-3.41
-2.24
-0.69
1.07
2.88
4.29
5.31
6
6.32
6.27
6
5.65
5.23
4.72
4.32
3.95
3.6
3.23
2.96
2.64
2.29
1.92
1.52
1.17
0.75
0.4
-0.03
-0.45
-0.8
-1.09
-1.36
-1.6
-1.89
-2.05
-2.24
-2.37
-2.53
-2.64
-2.83
-2.99
-3.12
-3.33
-3.49
-3.6
-3.68
-3.57
-3.2
-2.32
-1.31
-0.16
1.04
1.95
2.64
3.12
3.33
3.52
3.41
3.25
2.96
2.64
2.32
2.08
1.76
1.44
1.12
0.77
0.45
0.16
-0.08
-0.4
-0.72
-0.99
-1.15
-1.36
-1.49
-1.71
-1.92
-2.05
-2.27
-2.56
-2.77
-3.04
-3.28
-3.52
-3.84
-4.08
-4.19
-4.13
-3.76
-2.83
-1.6
-0.24
1.28
2.56
3.52
4.19
4.51
4.64
4.51
4.24
3.92
3.52
3.15
2.8
2.37
1.95
1.52
1.01
0.64
0.32
-0.08
-0.35
-0.56
-0.83
-0.99
-1.2
-1.33
-1.55
-1.84
-1.97
-2.24
-2.56
-2.88
-3.2
-3.44
-3.79
-4.16
-4.48
-4.72
-4.93
-5.12
-5.12
-4.96
-4.32
-3.33
-1.89
-0.24
1.47
2.96
4.16
4.77
5.15
5.28
5.04
4.67
4.24
3.81
3.39
2.96
2.64
2.37
2.08
1.76
1.49
1.2
0.83
0.61
0.4
0.11
-0.16
-0.48
-0.72
-1.04
-1.36
-1.65
-1.92
-2.16
-2.37
-2.59
-2.8
-3.01
-3.17
-3.36
-3.55
-3.65
-3.76
-3.81
-3.65
-3.12
-2.24
-1.17
0
1.07
1.97
2.56
2.91
3.01
2.96
2.72
2.4
2.08
1.76
1.49
1.2
0.96
0.64
0.32
0.05
-0.11
-0.32
-0.45
-0.61
-0.8
-1.04
-1.31
-1.6
-1.81
-2.08
-2.32
-2.53
-2.8
-3.04
-3.36
-3.63
-3.84
-4.16
-4.43
-4.64
-4.83
-4.93
-4.8
-4.19
-3.17
-1.76
0.05
1.81
3.44
4.61
5.41
5.76
6
5.89
5.68
5.36
5.04
4.64
4.19
3.71
3.28
2.8
2.43
2.32
1.65
1.28
0.88
0.56
0.19
-0.08
-0.29
-0.56
-0.72
-0.93
-1.15
-1.36
-1.57
-1.79
-2
-2.19
-2.35
-2.56
-2.75
-2.91
-3.12
-3.25
-3.41
-3.44
-3.09
-2.51
-1.6
-0.51
0.67
1.68
2.48
3.07
3.36
3.44
3.39
3.2
2.96
2.64
2.32
2.03
1.81
1.6
1.28
1.01
0.8
0.67
0.4
0.08
-0.32
-0.64
-0.88
-1.2
-1.52
-1.76
-2
-2.27
-2.48
-2.72
-2.99
-3.2
-3.47
-3.63
-3.84
-4
-3.89
-3.6
-2.61
-1.33
0.32
2.03
3.73
4.96
5.81
6.24
6.4
6.35
6.08
5.68
5.25
4.83
4.4
3.97
3.6
3.2
2.88
2.51
2
1.57
1.15
0.8
0.4
0.03
-0.32
-0.67
-1.04
-1.36
-1.57
-1.79
-2
-2.21
-2.43
-2.64
-2.93
-3.15
-3.36
-3.57
-3.73
-3.84
-3.57
-2.93
-2
-0.69
0.75
2
3.01
3.71
4.16
4.27
4.27
4.08
3.76
3.44
3.12
2.83
2.56
2.24
1.81
1.44
1.12
0.8
0.48
0.16
-0.08
-0.4
-0.64
-0.85
-1.12
-1.36
-1.6
-1.81
-2
-2.21
-2.43
-2.64
-2.93
-3.15
-3.36
-3.55
-3.65
-3.6
-3.15
-2.45
-1.44
-0.16
1.17
2.24
3.09
3.52
3.76
3.79
3.57
3.28
2.96
2.64
2.32
1.95
1.73
1.52
1.23
0.96
0.64
0.4
0.03
-0.32
-0.69
-0.96
-1.2
-1.49
-1.71
-1.92
-2.16
-2.43
-2.64
-2.88
-3.15
-3.36
-3.65
-3.92
-4.24
-4.53
-4.75
-4.96
-4.67
-3.87
-2.64
-0.88
1.15
3.04
4.64
5.71
6.4
6.69
6.75
6.48
6.05
5.63
5.2
4.69
4.21
3.76
3.41
3.04
2.64
2.48
1.95
1.6
1.17
0.75
0.32
-0.03
-0.4
-0.72
-1.07
-1.33
-1.52
-1.71
-1.87
-2.08
-2.29
-2.51
-2.72
-2.85
-3.07
-3.28
-3.31
-3.36
-3.12
-2.59
-1.68
-0.56
0.61
1.73
2.64
3.15
3.41
3.52
3.39
3.17
2.96
2.67
2.4
2.08
1.76
1.49
1.2
0.88
0.67
0.56
0.32
0
-0.32
-0.64
-0.96
-1.36
-1.79
-2.11
-2.4
-2.69
-2.91
-3.12
-3.31
-3.47
-3.68
-3.97
-4.19
-4.4
-4.37
-4.11
-3.36
-2.08
-1.28
1.52
3.47
5.07
6.32
6.93
7.2
7.2
6.85
6.43
5.92
5.41
4.93
4.48
4.05
3.68
3.28
2.88
2.51
2.16
1.76
1.44
1.12
0.77
0.4
0
-0.35
-0.77
-1.12
-1.55
-1.97
-2.24
-2.43
-2.59
-2.8
-2.93
-3.09
-3.28
-3.39
-3.44
-3.36
-3.07
-2.43
-1.52
-0.32
0.96
2.16
2.99
3.47
3.76
3.79
3.73
3.52
3.23
2.96
2.64
2.32
2.05
1.76
1.44
1.17
0.88
0.64
0.27
-0.16
-0.59
-0.96
-1.36
-1.71
-2.03
-2.24
-2.45
-2.67
-2.8
-2.99
-3.15
-3.36
-3.49
-3.71
-4
-4.11
-4.16
-3.84
-3.07
-1.84
-0.32
1.31
2.85
4
4.72
5.09
5.2
5.15
4.93
4.64
4.21
3.79
3.36
2.83
2.29
1.68
1.23
0.69
0.16
-0.29
-0.77
-1.04
-1.25
-1.41
-1.6
-1.81
-1.97
-2.16
-2.4
-2.72
-3.04
-3.44
-3.76
-4.16
-4.51
-4.88
-5.28
-5.41
-5.52
-5.52
-5.17
-4.37
-3.12
-1.47
0.35
2.16
3.63
4.64
5.2
5.39
5.33
5.04
4.59
4.05
3.6
3.17
2.75
2.32
2.08
1.76
1.44
1.07
0.8
0.56
0.24
-0.08
-0.48
-0.8
-1.07
-1.36
-1.6
-1.87
-2.08
-2.27
-2.43
-2.64
-2.75
-2.91
-3.12
-3.25
-3.47
-3.6
-3.79
-3.79
-3.44
-2.75
-1.79
-0.56
0.64
1.71
2.56
2.93
3.09
3.2
2.99
2.77
2.48
2.16
1.84
1.52
1.28
0.91
0.56
0.13
-0.29
-0.56
-0.85
-1.12
-1.36
-1.6
-1.87
-2.08
-2.27
-2.43
-2.64
-2.83
-2.99
-3.2
-3.41
-3.68
-4
-4.32
-4.64
-4.96
-5.33
-5.6
-5.6
-5.15
-4.13
-2.72
-0.75
1.28
3.2
4.61
5.63
6.24
6.48
6.43
6.16
5.73
5.2
4.56
4
3.41
2.88
2.43
1.95
1.84
1.28
0.96
0.64
0.32
0.11
-0.08
-0.29
-0.51
-0.72
-1.01
-1.28
-1.6
-1.89
-2.11
-2.4
-2.61
-2.83
-2.96
-3.15
-3.31
-3.44
-3.55
-3.65
-3.68
-3.25
-2.61
-1.76
-0.67
0.51
1.52
2.35
2.77
3.04
3.09
2.93
2.64
2.43
2.16
1.84
1.6
1.28
1.04
0.8
0.53
0.32
0.08
-0.19
-0.4
-0.61
-0.93
-1.2
-1.49
-1.76
-2
-2.29
-2.51
-2.8
-3.01
-3.28
-3.6
-3.84
-4.16
-4.32
-4.48
-4.43
-4.08
-3.25
-1.87
-0.16
1.84
3.65
5.04
6.05
6.59
6.72
6.67
6.35
5.92
5.47
4.93
4.4
3.95
3.47
3.04
2.8
2.37
1.84
1.49
1.12
0.8
0.4
0.03
-0.32
-0.72
-1.04
-1.44
-1.65
-1.87
-2.16
-2.29
-2.51
-2.72
-2.93
-3.2
-3.36
-3.57
-3.73
-3.84
-3.89
-3.63
-3.12
-2.21
-1.04
0.24
1.52
2.48
3.2
3.57
3.73
3.76
3.55
3.33
3.04
2.64
2.27
1.92
1.6
1.28
0.96
0.61
0.35
0.16
-0.08
-0.35
-0.64
-1.01
-1.23
-1.52
-1.81
-2.08
-2.4
-2.61
-2.83
-3.12
-3.41
-3.68
-3.92
-4.13
-4.35
-4.48
-4.51
-4.13
-3.52
-2.29
-0.8
0.72
2.21
3.33
4.08
4.37
4.53
4.4
4.13
3.71
3.28
2.85
2.43
2
1.65
1.23
0.8
0.56
0.24
-0.08
-0.4
-0.67
-0.96
-1.25
-1.52
-1.76
-2.08
-2.35
-2.64
-2.88
-3.15
-3.44
-3.65
-3.92
-4.16
-4.37
-4.64
-4.88
-5.09
-5.25
-5.36
-4.96
-4.21
-2.88
-1.2
0.72
2.48
3.81
4.77
5.44
5.47
5.41
5.2
4.77
4.35
3.92
3.41
2.93
2.48
2.16
1.95
1.2
0.8
0.53
0.32
0.03
-0.19
-0.4
-0.69
-0.91
-1.2
-1.41
-1.63
-1.84
-2.05
-2.32
-2.48
-2.69
-2.96
-3.2
-3.44
-3.65
-3.84
-4.03
-4.08
-3.92
-3.52
-2.77
-1.68
-0.48
0.69
1.76
2.37
2.75
2.88
2.83
2.61
2.4
2.05
1.68
1.28
0.96
0.69
0.4
0.11
-0.11
-0.32
-0.53
-0.75
-0.96
-1.07
-1.28
-1.6
-1.84
-2.11
-2.4
-2.64
-2.96
-3.2
-3.41
-3.68
-4
-4.24
-4.51
-4.72
-4.93
-5.09
-5.12
-4.75
-3.84
-2.4
-0.51
1.57
3.6
5.07
6.19
6.8
6.96
6.85
6.56
6.13
5.65
5.2
4.64
4.11
3.68
3.25
2.83
2.4
2
1.68
1.28
0.93
0.56
0.24
-0.08
-0.4
-0.72
-1.09
-1.31
-1.52
-1.73
-1.89
-2.08
-2.32
-2.53
-2.72
-2.93
-3.15
-3.28
-3.47
-3.63
-3.68
-3.73
-3.47
-2.88
-1.92
-0.85
0.32
1.41
2.27
2.8
3.07
3.17
3.12
2.88
2.61
2.32
2
1.68
1.36
1.07
0.8
0.56
0.24
0.03
-0.16
-0.37
-0.59
-0.8
-1.04
-1.36
-1.6
-1.89
-2.16
-2.4
-2.72
-2.99
-3.2
-3.52
-3.79
-4
-4.29
-4.51
-4.64
-4.67
-4.24
-3.44
-2.03
-0.32
1.6
3.33
4.72
5.52
6.05
6.27
6.16
5.81
5.39
4.88
4.43
3.95
3.44
2.96
2.59
2.16
1.81
1.39
0.96
0.61
0.19
-0.16
-0.56
-0.93
-1.2
-1.41
-1.63
-1.84
-2.08
-2.35
-2.56
-2.77
-2.99
-3.2
-3.47
-3.63
-3.84
-4.05
-4.21
-4.4
-4.4
-4.19
-3.6
-2.67
-1.33
0.08
1.52
2.64
3.52
3.92
4.08
4.08
3.87
3.6
3.28
2.88
2.56
2.16
1.81
1.44
1.36
0.83
0.61
0.4
0.16
-0.16
-0.4
-0.64
-0.91
-1.12
-1.36
-1.57
-1.76
-1.95
-2.11
-2.32
-2.61
-2.83
-3.04
-3.33
-3.55
-3.84
-4.05
-4.21
-4.32
-4.24
-3.87
-3.12
-2.08
-0.85
0.4
1.47
2.27
2.72
2.83
2.83
2.64
2.35
2.08
1.76
1.41
1.09
0.8
0.56
0.24
-0.08
-0.29
-0.51
-0.64
-0.77
-0.93
-1.04
-1.15
-1.31
-1.6
-1.84
-2.16
-2.48
-2.8
-3.12
-3.44
-3.76
-4.08
-4.4
-4.61
-4.83
-5.04
-5.23
-5.39
-5.44
-5.15
-4.45
-3.36
-1.6
0.37
2.4
4.05
5.33
6.08
6.48
6.43
6.16
5.73
5.25
5.12
4.19
3.71
3.28
2.88
2.72
2.24
1.89
1.52
1.12
0.77
0.4
0.08
-0.29
-0.51
-0.72
-0.99
-1.15
-1.36
-1.57
-1.84
-2.16
-2.29
-2.51
-2.72
-2.93
-3.2
-3.36
-3.57
-3.73
-3.84
-3.95
-3.95
-3.76
-3.17
-2.37
-1.28
-0.16
0.8
1.68
2.27
2.53
2.64
2.53
2.37
2.08
1.76
1.39
1.04
0.72
0.4
0.16
-0.16
-0.37
-0.48
-0.67
-0.77
-0.96
-1.15
-1.25
-1.36
-1.49
-1.71
-2
-2.21
-2.43
-2.64
-2.96
-3.28
-3.6
-3.95
-4.32
-4.72
-4.96
-5.12
-5.04
-4.43
-3.36
-1.84
0.08
1.95
3.68
4.91
5.76
6.4
6.43
6.37
6.08
5.65
5.12
4.56
3.92
3.33
2.88
2.48
2.11
1.68
1.36
1.04
0.8
0.51
0.24
-0.08
-0.37
-0.59
-0.8
-1.04
-1.36
-1.68
-1.97
-2.24
-2.48
-2.77
-2.93
-3.12
-3.25
-3.41
-3.52
-3.63
-3.73
-3.84
-3.68
-3.31
-2.56
-1.55
-0.32
0.96
1.92
2.72
3.2
3.47
3.47
3.36
3.12
2.8
2.48
2.16
1.89
1.6
1.28
1.01
0.72
0.37
0.21
0
-0.13
-0.4
-0.8
-1.04
-1.36
-1.68
-1.97
-2.24
-2.48
-2.77
-2.99
-3.2
-3.41
-3.63
-3.84
-4.03
-4.19
-4.4
-4.53
-4.32
-3.6
-2.48
-1.09
0.56
2.05
3.33
4.24
4.69
4.91
4.88
4.72
4.35
3.92
3.49
3.07
2.56
2.13
1.71
1.28
0.8
0.48
0.16
-0.19
-0.56
-0.88
-1.09
-1.36
-1.68
-1.89
-2.16
-2.4
-2.61
-2.88
-3.12
-3.44
-3.71
-3.92
-4.24
-4.51
-4.8
-5.09
-5.31
-5.44
-5.52
-5.36
-4.88
-3.79
-2.4
-0.72
1.04
2.64
3.76
4.43
4.75
4.8
4.64
4.32
3.92
3.49
3.07
2.56
2.16
1.79
1.36
1.15
0.93
0.72
0.59
0.32
0
-0.32
-0.64
-0.88
-1.2
-1.52
-1.84
-2.05
-2.27
-2.56
-2.88
-3.15
-3.44
-3.73
-3.95
-4.16
-4.45
-4.67
-4.88
-4.85
-4.59
-3.92
-2.8
-1.41
0
1.36
2.43
3.12
3.44
3.55
3.44
3.12
2.75
2.32
1.92
1.6
1.2
0.85
0.43
0.32
-0.13
-0.35
-0.48
-0.69
-0.91
-1.04
-1.2
-1.52
-1.84
-2.08
-2.35
-2.56
-2.88
-3.15
-3.36
-3.65
-3.87
-4.08
-4.37
-4.64
-4.96
-5.09
-5.31
-5.44
-5.36
-4.93
-3.84
-2.35
-0.48
1.6
3.39
4.77
5.84
6.24
6.4
6.32
5.97
5.55
5.04
4.53
4.05
3.6
3.2
2.83
2.48
2.08
1.71
1.36
1.01
0.64
0.24
-0.11
-0.37
-0.56
-0.77
-0.99
-1.2
-1.39
-1.55
-1.76
-1.89
-2.11
-2.32
-2.45
-2.67
-2.8
-3.01
-3.23
-3.36
-3.52
-3.52
-3.36
-2.8
-2
-1.04
0.11
1.17
2
2.64
2.96
3.04
3.01
2.85
2.56
2.35
2.08
1.76
1.44
1.28
0.8
0.67
0.35
0.16
0.03
-0.13
-0.24
-0.48
-0.8
-1.04
-1.33
-1.6
-1.92
-2.27
-2.64
-2.96
-3.2
-3.52
-3.84
-4.05
-4.32
-4.48
-4.64
-4.69
-4.56
-3.87
-2.75
-1.2
0.69
2.51
4.08
5.36
6
6.32
6.43
6.16
5.84
5.41
4.99
4.64
4.21
3.79
3.44
3.01
2.59
2.48
1.73
1.31
0.8
0.4
0.03
-0.4
-0.77
-1.04
-1.28
-1.49
-1.65
-1.84
-2.05
-2.27
-2.4
-2.61
-2.88
-3.12
-3.33
-3.55
-3.76
-3.97
-4.13
-4.24
-4
-3.57
-2.72
-1.6
-0.27
1.04
2.08
2.88
3.52
3.65
3.71
3.52
3.28
2.96
2.72
2.37
2
1.76
1.44
1.17
0.96
0.8
0.37
0.16
-0.05
-0.27
-0.48
-0.83
-1.2
-1.52
-1.73
-1.95
-2.24
-2.45
-2.67
-2.8
-3.01
-3.23
-3.44
-3.65
-3.87
-4.08
-4.29
-4.45
-4.48
-4.08
-3.33
-2.16
-0.83
0.56
0.88
2.64
3.17
3.44
3.44
3.33
3.12
2.77
2.35
1.92
1.57
1.15
0.8
0.43
0.21
0
-0.08
-0.29
-0.4
-0.53
-0.75
-1.04
-1.17
-1.44
-1.76
-2.08
-2.4
-2.72
-3.07
-3.44
-3.76
-3.97
-4.13
-4.32
-4.53
-4.69
-4.88
-4.96
-5.17
-5.2
-5.23
-4.8
-4.64
-2.67
-1.01
0.8
2.45
3.84
4.64
5.17
5.39
5.44
5.2
4.88
4.4
3.97
3.55
3.04
2.83
2.19
1.76
1.52
1.2
0.72
0.51
0.29
0.08
-0.13
-0.24
-0.64
-0.85
-1.07
-1.28
-1.44
-1.6
-1.84
-2.03
-2.19
-2.4
-2.51
-2.83
-3.04
-3.33
-3.55
-3.6
-3.97
-4.08
-4
-3.68
-3.36
-2.08
-1.07
0.05
1.04
1.6
2.03
2.4
2.4
2.35
2.16
2.03
1.65
1.36
1.04
0.72
0.64
0.08
-0.24
-0.48
-0.69
-0.8
-1.04
-1.23
-1.33
-1.44
-1.52
-1.68
-1.92
-2.13
-2.35
-2.56
-2.64
-2.91
-3.12
-3.44
-3.76
-3.84
-4.4
-4.67
-4.96
-5.15
-5.2
-4.56
-3.47
-1.92
-0.08
1.28
2.93
4.72
5.49
5.92
6.08
6
5.73
5.36
4.93
4.51
4.4
3.63
3.15
2.64
2.21
2
1.28
0.93
0.56
0.16
0
-0.16
-0.32
-0.56
-0.83
-1.04
-1.17
-1.55
-1.76
-1.97
-2.13
-2.16
-2.45
-2.67
-2.8
-3.01
-3.12
-3.36
-3.55
-3.65
-3.68
-3.68
-3.2
-2.32
-1.2
0.08
1.2
1.65
2.88
3.28
3.44
3.49
3.52
3.23
2.96
2.64
2.32
2.16
1.68
1.36
1.04
0.72
0.48
0.21
-0.08
-0.4
-0.72
-0.96
-1.07
-1.39
-1.6
-1.81
-2.03
-2.08
-2.56
-2.83
-3.12
-3.44
-3.6
-4
-4.32
-4.59
-4.8
-4.88
-4.93
-4.72
-3.81
-2.64
-1.2
-0.45
1.73
2.88
3.65
4.03
4.08
4.11
3.84
3.44
3.01
2.8
2.24
1.81
1.44
1.12
0.88
0.67
0.4
0.29
0.13
-0.16
-0.29
-0.67
-0.96
-1.28
-1.55
-1.6
-2.05
-2.32
-2.64
-2.85
-2.96
-3.2
-3.41
-3.63
-3.84
-4
-4.21
-4.48
-4.67
-4.72
-4.72
-4.48
-3.52
-2.32
-0.8
0.8
1.2
3.47
4.32
4.8
4.99
5.04
4.8
4.53
4.16
3.76
3.44
3.07
2.64
2.32
2.16
1.6
1.47
1.04
0.8
0.48
0.16
0.08
-0.4
-0.72
-1.04
-1.33
-1.44
-1.84
-2.05
-2.32
-2.56
-2.72
-2.93
-3.28
-3.52
-3.79
-4
-4.08
-4.35
-4.48
-4.43
-4.05
-3.92
-2.37
-1.2
0
1.09
1.52
2.4
2.64
2.64
2.48
2.32
2
1.6
1.2
0.88
0.56
0.43
0.16
-0.16
-0.29
-0.51
-0.56
-0.83
-0.93
-1.04
-1.25
-1.36
-1.76
-2.05
-2.32
-2.56
-2.72
-2.99
-3.28
-3.57
-3.79
-4
-4.13
-4.51
-4.72
-5.01
-5.17
-5.2
-5.2
-4.67
-3.68
-2.35
-1.6
0.8
2.24
3.36
4.08
4.32
4.43
4.4
4.16
3.84
3.52
3.31
2.72
2.32
2
1.68
1.6
1.12
0.69
0.56
0.37
0.32
0
-0.21
-0.48
-0.72
-0.88
-1.15
-1.44
-1.68
-1.95
-2.16
-2.27
-2.59
-2.8
-3.09
-3.31
-3.36
-3.81
-4.03
-4.24
-4.43
-4.48
-4.64
-4.37
-3.84
-3.04
-2.32
-1.2
0.16
0.99
1.63
2
2.08
2.24
2.08
1.76
1.44
1.36
0.8
0.48
0.16
-0.16
-0.32
-0.72
-0.93
-1.09
-1.28
-1.36
-1.52
-1.68
-1.79
-1.89
-2
-2.08
-2.29
-2.48
-2.77
-3.04
-3.12
-3.57
-3.79
-4.08
-4.29
-4.4
-4.64
-4.75
-4.43
-3.84
-3.12
-1.84
-0.08
1.25
2.37
3.2
3.41
3.95
4
3.76
3.44
3.36
2.8
2.43
2.08
1.68
1.52
1.04
0.85
0.37
0.24
0.08
-0.08
-0.24
-0.56
-0.83
-1.12
-1.25
-1.63
-1.84
-2.16
-2.43
-2.48
-2.85
-3.07
-3.36
-3.6
-3.76
-4.16
-4.37
-4.64
-4.88
-5.04
-5.15
-5.12
-4.59
-3.63
-2.32
-1.57
0.67
2
2.91
3.49
3.6
3.92
3.81
3.6
3.28
3.12
2.48
2.13
1.76
1.44
1.12
0.85
0.56
0.45
0.29
0.08
0
-0.21
-0.48
-0.8
-1.07
-1.12
-1.6
-1.87
-2.16
-2.48
-2.64
-3.04
-3.28
-3.6
-3.92
-4.16
-4.48
-4.88
-5.12
-5.39
-5.52
-5.39
-4.8
-3.84
-2.64
-1.36
-1.04
0.93
1.68
2.08
2.19
2.24
2
1.76
1.44
1.04
0.8
0.48
0.08
-0.32
-0.48
-0.88
-0.96
-1.17
-1.28
-1.41
-1.57
-1.6
-1.87
-1.97
-2.08
-2.19
-2.24
-2.4
-2.51
-2.67
-2.96
-3.12
-3.33
-3.68
-3.92
-4.19
-4.4
-4.48
-4.75
-4.8
-4.69
-4.11
-3.92
-1.68
0.03
1.76
3.36
4
5.28
5.73
5.95
5.92
5.76
5.49
5.04
4.61
4.19
3.84
3.63
3.04
2.64
2.29
1.92
1.84
1.2
0.88
0.56
0.19
0.08
-0.24
-0.45
-0.67
-0.88
-1.04
-1.25
-1.52
-1.71
-1.87
-2.08
-2.19
-2.51
-2.72
-2.93
-3.15
-3.2
-3.57
-3.73
-3.84
-3.73
-3.52
-2.64
-1.73
-0.67
0.4
1.12
1.81
2.48
2.69
2.8
2.8
2.69
2.37
2.16
1.87
1.65
1.6
1.12
0.85
0.56
0.35
0.24
-0.08
-0.29
-0.45
-0.56
-0.72
-0.93
-1.2
-1.44
-1.71
-1.92
-2
-2.27
-2.48
-2.69
-2.91
-2.96
-3.41
-3.63
-3.76
-3.87
-3.92
-3.44
-2.56
-1.23
0.24
1.44
2.93
4.56
5.33
5.76
5.92
5.89
5.73
5.44
5.09
4.67
4.56
3.84
3.47
3.12
2.77
2.56
2
1.65
1.28
0.88
0.56
0.24
-0.16
-0.56
-0.83
-1.12
-1.25
-1.68
-2
-2.29
-2.51
-2.56
-2.93
-3.15
-3.28
-3.49
-3.6
-3.92
-4.11
-4.21
-4.4
-4.48
-4.32
-3.92
-3.04
-1.92
-0.64
0.03
1.89
2.8
3.31
3.57
3.6
3.55
3.33
3.12
2.8
2.64
2.24
1.92
1.6
1.28
1.12
0.96
0.8
0.67
0.4
0.16
0.05
-0.27
-0.48
-0.77
-1.04
-1.12
-1.6
-1.92
-2.24
-2.45
-2.56
-2.88
-3.09
-3.25
-3.44
-3.6
-3.76
-4
-4.03
-3.97
-3.52
-3.09
-1.71
-0.48
0.69
1.71
1.92
2.88
3.04
3.12
2.96
2.8
2.32
1.97
1.6
1.28
1.12
0.85
0.72
0.29
0.19
0
-0.08
-0.29
-0.56
-0.85
-1.07
-1.12
-1.49
-1.71
-1.92
-2.13
-2.24
-2.56
-2.77
-3.04
-3.28
-3.52
-3.79
-4.16
-4.4
-4.67
-4.88
-4.99
-5.25
-5.2
-4.83
-4.03
-3.76
-1.33
0.37
1.92
3.15
3.68
4.56
4.8
4.85
4.8
4.56
4.19
3.68
3.25
2.83
2.48
2.29
1.76
1.68
1.17
1.01
0.96
0.59
0.37
0.16
-0.05
-0.16
-0.56
-0.77
-0.99
-1.2
-1.36
-1.57
-1.84
-2.05
-2.27
-2.48
-2.61
-2.99
-3.2
-3.49
-3.71
-3.76
-4.05
-4.21
-4.32
-4.21
-4
-2.96
-1.97
-0.96
-0.72
0.8
1.44
2.08
2.27
2.32
2.24
2.11
1.73
1.36
1.04
0.72
0.64
0.08
-0.19
-0.32
-0.43
-0.48
-0.64
-0.72
-0.72
-0.8
-0.88
-0.99
-1.12
-1.36
-1.63
-1.84
-1.97
-2.4
-2.72
-3.04
-3.31
-3.36
-3.84
-4.11
-4.24
-4.29
-4.4
-4.08
-3.44
-2.37
-0.96
0.24
1.84
3.68
4.59
5.17
5.44
5.47
5.41
5.12
4.77
4.4
4.32
3.68
3.36
3.04
2.75
2.64
2.24
1.97
1.6
1.28
1.04
0.72
0.32
-0.08
-0.4
-0.72
-0.85
-1.28
-1.52
-1.68
-1.89
-2
-2.29
-2.51
-2.64
-2.77
-2.88
-3.2
-3.41
-3.63
-3.84
-3.92
-4.03
-4.16
-3.87
-3.28
-2.4
-1.81
-0.05
1.12
2.05
2.75
2.88
3.31
3.31
3.2
2.96
2.8
2.4
2.16
1.84
1.52
1.36
1.04
0.88
0.53
0.48
0.32
0.27
0.11
-0.08
-0.29
-0.56
-0.64
-1.12
-1.49
-1.84
-2.21
-2.32
-2.72
-2.93
-3.09
-3.2
-3.36
-3.52
-3.76
-3.87
-3.92
-3.84
-3.57
-2.61
-1.52
-0.21
1.17
1.52
3.33
3.97
4.32
4.4
4.4
4
3.57
3.2
3.12
2.56
2.24
1.92
1.76
1.49
1.36
1.01
0.59
0.24
-0.05
-0.27
-0.32
-0.77
-0.99
-1.28
-1.49
-1.6
-2
-2.32
-2.64
-2.96
-3.12
-3.39
-3.68
-3.87
-3.97
-4.16
-4.24
-4.45
-4.64
-4.85
-5.01
-5.04
-4.56
-3.76
-2.64
-1.92
-0.48
1.6
2.61
3.31
3.68
3.76
3.81
3.68
3.44
3.12
2.8
2.64
2.16
1.84
1.41
1.09
1.04
0.67
0.45
0.32
0.21
0.16
-0.16
-0.37
-0.64
-0.88
-1.04
-1.25
-1.52
-1.76
-2.03
-2.24
-2.37
-2.75
-2.96
-3.2
-3.41
-3.52
-3.97
-4.19
-4.32
-4.51
-4.56
-4.16
-3.55
-2.64
-1.6
-0.72
0.29
1.44
1.92
2.19
2.32
2.27
2.05
1.84
1.52
1.2
1.12
0.64
0.32
0
-0.27
-0.32
-0.56
-0.67
-0.77
-0.88
-0.96
-1.12
-1.28
-1.39
-1.44
-1.68
-1.81
-2.19
-2.4
-2.53
-2.75
-2.8
-3.25
-3.47
-3.68
-3.97
-4.08
-4.4
-4.61
-4.77
-4.8
-4.64
-4.05
-2.96
-1.55
0.05
1.6
2.21
3.92
4.56
4.85
5.01
5.04
4.75
4.48
4.16
3.76
3.6
3.04
2.72
2.4
2.32
1.92
1.6
1.2
0.96
0.69
0.48
0.35
-0.03
-0.24
-0.53
-0.75
-0.8
-1.25
-1.47
-1.68
-1.89
-2
-2.4
-2.61
-2.83
-3.04
-3.2
-3.41
-3.68
-3.89
-4.11
-4.24
-4.32
-4.53
-4.48
-4.13
-3.49
-3.28
-1.57
-0.51
0.4
0.75
1.44
2
2.16
2.11
1.92
1.76
1.49
1.2
0.88
0.56
0.32
0.19
-0.08
-0.4
-0.51
-0.61
-0.64
-0.91
-1.01
-1.12
-1.31
-1.36
-1.52
-1.63
-1.79
-2
-2.16
-2.37
-2.64
-2.88
-3.15
-3.36
-3.47
-3.79
-3.92
-4
-3.79
-3.68
-2.11
-0.77
0.72
2.24
2.88
4.4
4.99
5.31
5.36
5.44
5.23
4.88
4.56
4.19
3.84
3.68
3.2
2.88
2.64
2.27
2.08
1.41
0.99
0.64
0.27
0.16
-0.24
-0.45
-0.72
-0.96
-1.12
-1.33
-1.6
-1.81
-1.92
-2.24
-2.35
-2.67
-2.88
-3.17
-3.39
-3.44
-3.73
-3.95
-4.08
-4.08
-4.08
-3.36
-2.51
-1.28
0
1.04
2.16
3.36
3.87
4.19
4.32
4.27
4.05
3.76
3.44
3.12
3.04
2.56
2.24
1.92
1.63
1.52
1.12
0.88
0.56
0.48
0.16
-0.11
-0.48
-0.69
-0.91
-1.12
-1.25
-1.63
-1.84
-2.05
-2.27
-2.32
-2.69
-2.91
-3.12
-3.33
-3.44
-3.68
-3.71
-3.39
-2.8
-2.08
-0.91
0.56
1.79
2.75
3.44
3.6
3.97
4
3.87
3.6
3.52
3.04
2.67
2.32
2.16
1.84
1.44
1.28
0.8
0.56
0.4
0.13
-0.16
-0.4
-0.67
-0.88
-1.01
-1.39
-1.6
-1.89
-2.11
-2.16
-2.53
-2.75
-2.96
-3.17
-3.28
-3.68
-3.89
-4.11
-4.32
-4.4
-4.51
-4.64
-4.24
-3.49
-2.32
-1.55
0.8
2.32
3.2
4
4.4
5.01
5.12
4.96
4.72
4.56
4.08
3.73
3.36
3.04
2.8
2.48
2.08
1.89
1.31
1.04
0.91
0.53
0.32
0.11
-0.11
-0.16
-0.61
-0.83
-1.04
-1.25
-1.36
-1.68
-1.89
-2.16
-2.4
-2.56
-2.77
-3.04
-3.25
-3.36
-3.68
-3.73
-3.89
-3.76
-3.2
-2.4
-2.16
-0.27
0.8
1.68
2.35
2.56
2.88
2.91
2.69
2.48
2.32
2.05
1.68
1.36
1.04
0.8
0.69
0.37
0.24
0.13
0.03
0
-0.37
-0.59
-0.88
-1.09
-1.2
-1.52
-1.73
-2
-2.08
-2.4
-2.61
-2.88
-3.12
-3.39
-3.6
-3.71
-4.03
-4.24
-4.43
-4.53
-4.56
-3.92
-3.01
-1.68
-0.05
0.8
3.12
4.29
5.04
5.52
5.6
5.65
5.6
5.28
4.91
4.56
4.4
3.92
3.52
3.2
2.88
2.8
2.21
1.79
1.44
1.25
0.88
0.4
0.11
-0.11
-0.32
-0.48
-0.69
-0.96
-1.17
-1.39
-1.6
-1.68
-1.95
-2.16
-2.37
-2.59
-2.64
-2.93
-3.15
-3.28
-3.49
-3.6
-3.76
-3.71
-3.33
-2.64
-2
-0.93
0.48
1.49
2.24
2.8
2.93
3.25
3.28
3.2
2.93
2.8
2.32
2.05
1.76
1.47
1.36
0.96
0.85
0.59
0.48
0.4
0.19
-0.08
-0.32
-0.59
-0.8
-0.91
-1.23
-1.44
-1.73
-1.95
-2
-2.45
-2.67
-2.88
-3.09
-3.2
-3.6
-3.79
-3.89
-3.92
-3.76
-3.07
-1.92
-0.59
0.16
2.32
2.85
4.29
4.8
4.99
5.04
5.04
4.67
4.4
4.08
3.68
3.52
3.04
2.69
2.27
1.84
1.6
1.17
0.72
0.48
0.21
0
-0.13
-0.51
-0.72
-1.01
-1.23
-1.28
-1.73
-1.95
-2.16
-2.37
-2.48
-2.8
-3.04
-3.31
-3.36
-3.68
-3.89
-4.16
-4.35
-4.4
-4.4
-4.19
-3.33
-2.24
-0.91
0.53
0.88
2.96
3.71
4.16
4.35
4.4
4.24
4
3.68
3.28
3.04
2.77
2.4
2.08
1.76
1.52
1.41
1.09
0.88
0.59
0.32
0.24
-0.21
-0.48
-0.8
-0.91
-1.12
-1.44
-1.68
-1.95
-2.16
-2.32
-2.59
-2.88
-3.12
-3.39
-3.6
-3.71
-3.97
-4.08
-4.11
-3.73
-3.6
-2.03
-0.8
0.4
1.52
2
3.04
3.39
3.49
3.44
3.28
3.01
2.64
2.24
1.92
1.68
1.55
1.28
0.72
0.56
0.45
0.4
0.11
-0.11
-0.4
-0.61
-0.72
-1.12
-1.33
-1.6
-1.84
-2
-2.21
-2.48
-2.69
-2.8
-3.12
-3.25
-3.63
-3.84
-4.05
-4.27
-4.32
-4.56
-4.67
-4.72
-4.29
-3.92
-2.24
-0.69
0.91
2.4
3.28
4.13
4.88
5.07
5.12
4.88
4.75
4.48
4
3.76
3.39
3.2
2.72
2.56
2.08
1.89
1.52
1.04
0.93
0.56
0.48
0.16
-0.05
-0.16
-0.53
-0.64
-0.96
-1.07
-1.28
-1.6
-1.81
-2.03
-2.08
-2.4
-2.61
-2.88
-3.09
-3.2
-3.52
-3.6
-3.81
-3.84
-3.68
-3.2
-2.32
-1.25
-0.72
0.8
1.17
2.19
2.32
2.64
2.64
2.64
2.32
2.11
1.76
1.6
1.28
0.88
0.77
0.56
0.32
0.03
-0.19
-0.24
-0.43
-0.48
-0.64
-0.75
-0.96
-1.12
-1.44
-1.65
-1.76
-2.08
-2.29
-2.64
-2.75
-2.96
-3.28
-3.39
-3.76
-3.84
-4.16
-4.27
-4.32
-4.13
-3.76
-2.24
-1.52
0.72
2.24
3.28
4.19
4.64
5.28
5.39
5.36
5.23
4.96
4.48
4.29
3.76
3.68
3.2
2.93
2.8
2.45
2.08
1.36
1.17
0.8
0.4
0.16
-0.05
-0.16
-0.48
-0.69
-0.96
-1.07
-1.28
-1.6
-1.65
-1.92
-2
-2.32
-2.48
-2.72
-3.07
-3.12
-3.44
-3.52
-3.73
-3.76
-3.6
-3.01
-2.72
-0.99
0.19
1.28
1.73
2.64
3.36
3.44
3.65
3.68
3.44
3.17
3.04
2.48
2.32
1.92
1.76
1.44
1.12
1.04
0.83
0.72
0.32
0.16
-0.32
-0.43
-0.64
-1.04
-1.15
-1.41
-1.44
-1.76
-1.97
-2.08
-2.43
-2.48
-2.8
-2.93
-3.2
-3.52
-3.6
-3.65
-3.68
-3.12
-2.32
-1.2
-0.88
0.4
2.56
2.8
3.87
4.16
4.48
4.37
4.32
4.08
3.76
3.12
2.96
2.64
2.4
1.92
1.55
1.36
0.8
0.64
0.16
0.05
-0.16
-0.56
-0.69
-1.07
-1.12
-1.44
-1.71
-1.84
-2.21
-2.32
-2.64
-2.75
-2.96
-3.28
-3.52
-3.73
-3.84
-4.16
-4.37
-4.64
-4.69
-4.8
-4.48
-3.84
-2.77
-2.48
-0.32
1.12
2.72
3.09
3.84
4.24
4.24
4.24
4
3.92
3.44
3.28
2.8
2.43
2
1.89
1.68
1.44
1.33
0.96
0.88
0.56
0.29
0.16
-0.24
-0.4
-0.72
-0.8
-1.07
-1.44
-1.49
-1.81
-1.92
-2.32
-2.53
-2.88
-2.99
-3.2
-3.44
-3.65
-3.92
-4
-4.16
-4.05
-3.68
-2.69
-1.68
0
0.51
1.89
2.4
2.64
2.75
2.8
2.61
2.45
1.92
1.84
1.52
1.04
0.91
0.48
0.4
0.08
-0.03
-0.16
-0.27
-0.37
-0.56
-0.61
-0.83
-1.04
-1.25
-1.47
-1.68
-1.97
-2.19
-2.56
-2.61
-2.83
-3.12
-3.31
-3.68
-3.76
-3.97
-4.24
-4.32
-4.4
-4.24
-3.76
-2.75
-0.61
1.44
1.81
3.2
4.32
5.01
5.28
5.44
5.49
5.28
4.96
4.72
4.35
4
3.6
3.28
3.04
2.69
2.27
1.84
1.49
1.17
0.88
0.64
0.37
0.16
-0.11
-0.27
-0.48
-0.77
-0.99
-1.2
-1.41
-1.63
-1.76
-1.97
-2.24
-2.48
-2.69
-2.85
-3.04
-3.25
-3.41
-3.6
-3.63
-3.57
-3.12
-2.4
-1.44
-0.4
0.67
1.63
2.48
2.88
3.15
3.28
3.23
2.96
2.72
2.51
2.24
1.92
1.6
1.33
1.12
0.91
0.75
0.64
0.43
0.21
0
-0.29
-0.51
-0.8
-1.01
-1.23
-1.44
-1.65
-1.92
-2.16
-2.37
-2.64
-2.88
-3.09
-3.31
-3.52
-3.63
-3.68
-3.6
-3.04
-2.03
-0.8
0.72
2.21
3.68
4.61
5.25
5.6
5.71
5.65
5.44
5.2
4.88
4.48
4.13
3.76
3.44
3.12
2.8
2.48
2.13
1.76
1.36
1.01
0.64
0.24
-0.08
-0.45
-0.8
-1.01
-1.28
-1.52
-1.73
-1.89
-2.08
-2.32
-2.59
-2.8
-3.01
-3.23
-3.44
-3.71
-3.81
-3.84
-3.87
-3.49
-2.8
-1.68
-0.35
1.04
2.27
3.33
3.92
4.29
4.51
4.56
4.35
4.13
3.84
3.44
3.12
2.8
2.51
2.24
1.92
1.49
1.17
0.88
0.67
0.45
0.16
-0.13
-0.4
-0.64
-0.85
-1.12
-1.36
-1.6
-1.87
-2.08
-2.32
-2.59
-2.8
-3.07
-3.23
-3.44
-3.65
-3.81
-4
-3.97
-3.71
-3.12
-2.19
-1.01
0.16
1.25
2.05
2.72
3.01
3.12
3.04
2.91
2.64
2.32
2.03
1.76
1.44
1.12
0.8
0.48
0.24
0.03
-0.08
-0.27
-0.43
-0.56
-0.69
-0.96
-1.2
-1.44
-1.71
-1.92
-2.13
-2.35
-2.56
-2.85
-3.07
-3.28
-3.49
-3.71
-4
-4.21
-4.43
-4.56
-4.75
-4.8
-4.64
-4.03
-2.96
-1.52
0.19
1.79
3.2
4.19
4.83
5.12
5.28
5.23
4.96
4.64
4.32
3.92
3.52
3.15
2.8
2.48
2.16
1.92
1.57
1.2
0.8
0.48
0.21
0
-0.21
-0.43
-0.64
-0.91
-1.07
-1.28
-1.49
-1.71
-1.92
-2.05
-2.27
-2.48
-2.69
-2.96
-3.12
-3.33
-3.55
-3.76
-3.89
-4.05
-4.16
-4
-3.63
-2.88
-2
-0.99
0.08
0.93
1.63
2.08
2.21
2.32
2.24
2.03
1.76
1.52
1.28
0.96
0.72
0.48
0.21
-0.08
-0.27
-0.32
-0.4
-0.59
-0.75
-0.88
-0.99
-1.09
-1.28
-1.41
-1.63
-1.84
-2.05
-2.32
-2.56
-2.77
-2.99
-3.2
-3.44
-3.65
-3.84
-4.05
-4.16
-4.16
-3.76
-3.01
-1.84
-0.37
1.23
2.8
3.84
4.64
5.2
5.39
5.39
5.28
5.04
4.72
4.32
3.97
3.65
3.36
2.96
2.64
2.4
2.08
1.76
1.36
1.01
0.64
0.24
0.03
-0.19
-0.48
-0.69
-0.96
-1.12
-1.33
-1.55
-1.76
-1.97
-2.19
-2.4
-2.61
-2.83
-3.04
-3.25
-3.47
-3.68
-3.79
-3.89
-3.92
-3.57
-2.93
-2
-0.8
0.48
1.52
2.45
3.15
3.6
3.71
3.76
3.68
3.44
3.12
2.8
2.51
2.24
2
1.68
1.41
1.12
0.99
0.77
0.48
0.27
0
-0.24
-0.53
-0.8
-1.04
-1.28
-1.49
-1.68
-1.92
-2.19
-2.4
-2.61
-2.83
-3.04
-3.33
-3.55
-3.76
-3.87
-3.92
-3.84
-3.33
-2.53
-1.52
-0.24
1.04
2.24
3.09
3.63
3.92
3.95
3.95
3.68
3.39
3.12
2.8
2.45
2.08
1.76
1.44
1.17
0.96
0.72
0.4
0.16
-0.05
-0.32
-0.56
-0.8
-1.07
-1.28
-1.49
-1.71
-1.92
-2.19
-2.35
-2.56
-2.85
-3.07
-3.28
-3.49
-3.71
-3.92
-4.13
-4.4
-4.56
-4.64
-4.53
-4.16
-3.17
-1.95
-0.56
0.91
2.24
3.2
3.92
4.24
4.32
4.37
4.16
3.84
3.6
3.28
2.96
2.56
2.24
2
1.73
1.57
1.36
1.12
0.85
0.56
0.35
0.13
-0.16
-0.45
-0.67
-0.88
-1.17
-1.39
-1.68
-1.81
-2.03
-2.32
-2.53
-2.8
-3.04
-3.25
-3.52
-3.76
-3.97
-4.13
-4.24
-3.97
-3.44
-2.56
-1.47
-0.29
0.8
1.81
2.45
2.88
2.99
2.99
2.8
2.56
2.24
2
1.68
1.36
1.04
0.69
0.43
0.24
0.13
0.03
-0.08
-0.27
-0.37
-0.56
-0.77
-1.04
-1.36
-1.57
-1.79
-2
-2.21
-2.48
-2.64
-2.85
-3.12
-3.36
-3.57
-3.79
-4
-4.19
-4.35
-4.48
-4.4
-3.97
-3.2
-1.95
-0.4
1.28
2.67
3.84
4.64
5.04
5.31
5.36
5.23
4.96
4.64
4.32
4
3.68
3.28
2.96
2.64
2.35
2.08
1.68
1.33
0.96
0.56
0.35
0.13
-0.08
-0.29
-0.56
-0.72
-0.93
-1.15
-1.36
-1.6
-1.81
-2
-2.21
-2.43
-2.64
-2.91
-3.07
-3.28
-3.41
-3.57
-3.76
-3.71
-3.39
-2.72
-1.84
-0.83
0.24
1.25
2.05
2.64
2.96
3.12
3.2
2.99
2.77
2.56
2.27
2
1.68
1.39
1.12
0.8
0.69
0.59
0.48
0.4
0.08
-0.16
-0.37
-0.64
-0.88
-1.12
-1.33
-1.52
-1.76
-2.03
-2.24
-2.45
-2.67
-2.88
-3.09
-3.31
-3.52
-3.65
-3.71
-3.44
-2.69
-1.57
-0.24
1.25
2.69
4
4.83
5.31
5.6
5.6
5.49
5.2
4.91
4.64
4.24
3.89
3.52
3.2
2.88
2.51
2.08
1.68
1.31
0.88
0.53
0.16
-0.24
-0.48
-0.75
-0.96
-1.2
-1.47
-1.68
-1.89
-2.11
-2.32
-2.53
-2.75
-3.04
-3.25
-3.47
-3.76
-3.95
-4.11
-4.24
-4.27
-3.89
-3.12
-2
-0.61
0.88
2.21
3.33
4.08
4.59
4.75
4.8
4.67
4.4
4.08
3.76
3.39
3.04
2.72
2.4
2.08
1.73
1.36
1.12
0.8
0.53
0.32
0.08
-0.19
-0.48
-0.77
-0.99
-1.2
-1.49
-1.71
-1.92
-2.13
-2.35
-2.64
-2.85
-3.12
-3.36
-3.57
-3.84
-4.08
-4.21
-4.27
-4.08
-3.41
-2.56
-1.44
-0.29
0.83
1.76
2.35
2.67
2.88
2.85
2.69
2.4
2.08
1.76
1.52
1.17
0.8
0.56
0.24
0.03
-0.08
-0.19
-0.29
-0.4
-0.59
-0.69
-0.88
-1.17
-1.39
-1.68
-1.81
-2.03
-2.32
-2.53
-2.8
-3.04
-3.25
-3.47
-3.68
-3.92
-4.13
-4.32
-4.43
-4.48
-4.24
-3.65
-2.53
-1.12
0.59
2.13
3.6
4.53
5.17
5.44
5.55
5.49
5.28
5.01
4.64
4.24
3.89
3.52
3.2
2.88
2.56
2.24
1.84
1.52
1.12
0.77
0.45
0.16
0.03
-0.19
-0.48
-0.69
-0.91
-1.04
-1.25
-1.47
-1.68
-1.92
-2.13
-2.32
-2.53
-2.75
-2.96
-3.23
-3.39
-3.52
-3.63
-3.73
-3.6
-3.04
-2.29
-1.28
-0.21
0.91
1.84
2.51
2.88
3.12
3.17
3.07
2.88
2.64
2.32
2
1.71
1.49
1.2
0.91
0.75
0.56
0.45
0.35
0.16
-0.08
-0.4
-0.56
-0.77
-1.04
-1.36
-1.57
-1.79
-2
-2.21
-2.43
-2.64
-2.93
-3.15
-3.36
-3.57
-3.73
-3.84
-3.68
-3.15
-2.16
-0.83
0.72
2.24
3.55
4.51
5.2
5.52
5.68
5.68
5.44
5.12
4.8
4.4
4.08
3.68
3.36
3.04
2.72
2.29
1.87
1.52
1.12
0.75
0.4
-0.03
-0.35
-0.56
-0.8
-1.07
-1.28
-1.49
-1.71
-1.92
-2.19
-2.35
-2.56
-2.85
-3.07
-3.28
-3.49
-3.71
-3.84
-4.03
-4.19
-4.24
-3.95
-3.31
-2.4
-1.12
0.16
1.44
2.43
3.12
3.6
3.84
3.84
3.76
3.52
3.2
2.88
2.64
2.27
1.92
1.68
1.36
1.2
1.01
0.85
0.64
0.32
0.05
-0.16
-0.4
-0.67
-0.88
-1.17
-1.39
-1.6
-1.89
-2.11
-2.32
-2.53
-2.75
-2.96
-3.17
-3.44
-3.6
-3.79
-3.89
-3.92
-3.57
-2.93
-2.08
-0.83
0.4
1.44
2.4
2.99
3.28
3.44
3.39
3.2
2.99
2.67
2.32
2
1.68
1.44
1.12
0.85
0.72
0.51
0.29
0.08
-0.16
-0.43
-0.64
-0.93
-1.15
-1.36
-1.65
-1.87
-2.08
-2.29
-2.51
-2.8
-3.01
-3.23
-3.44
-3.65
-3.92
-4.16
-4.37
-4.53
-4.72
-4.69
-4.48
-3.84
-2.77
-1.33
0.32
1.89
3.17
4.24
4.75
5.01
5.12
4.99
4.72
4.4
4.08
3.76
3.36
3.04
2.72
2.4
2.08
1.76
1.36
0.99
0.77
0.56
0.27
0.05
-0.24
-0.45
-0.67
-0.96
-1.17
-1.39
-1.52
-1.73
-1.95
-2.16
-2.4
-2.67
-2.88
-3.09
-3.31
-3.52
-3.79
-3.95
-4
-4.05
-3.79
-3.2
-2.24
-1.23
-0.16
0.85
1.71
2.24
2.51
2.61
2.56
2.35
2.13
1.84
1.52
1.2
0.96
0.67
0.4
0.08
-0.11
-0.27
-0.48
-0.59
-0.69
-0.8
-0.91
-1.07
-1.2
-1.41
-1.68
-1.92
-2.13
-2.35
-2.56
-2.8
-3.07
-3.28
-3.49
-3.71
-3.92
-4.13
-4.29
-4.4
-4.16
-3.57
-2.56
-1.2
0.45
2.08
3.47
4.48
5.2
5.49
5.6
5.52
5.28
4.96
4.64
4.24
3.92
3.52
3.2
2.88
2.56
2.32
1.95
1.6
1.2
0.83
0.48
0.19
-0.08
-0.32
-0.53
-0.75
-0.96
-1.17
-1.39
-1.6
-1.79
-1.95
-2.16
-2.37
-2.59
-2.88
-3.01
-3.23
-3.36
-3.55
-3.71
-3.68
-3.41
-2.83
-2
-0.83
0.29
1.44
2.27
2.91
3.28
3.52
3.52
3.44
3.23
2.96
2.64
2.4
2.08
1.76
1.47
1.2
0.96
0.67
0.51
0.4
0.08
-0.19
-0.4
-0.64
-0.91
-1.12
-1.33
-1.55
-1.76
-1.97
-2.19
-2.48
-2.69
-2.91
-3.2
-3.41
-3.63
-3.84
-4
-4
-3.76
-3.07
-2
-0.72
0.67
2
3.12
3.95
4.37
4.56
4.61
4.45
4.16
3.84
3.47
3.12
2.8
2.43
2.16
1.84
1.47
1.04
0.8
0.53
0.24
0
-0.27
-0.56
-0.85
-1.07
-1.28
-1.57
-1.79
-2
-2.21
-2.43
-2.64
-2.85
-3.07
-3.28
-3.49
-3.76
-4
-4.24
-4.45
-4.56
-4.56
-4.4
-3.84
-2.88
-1.55
0
1.44
2.61
3.68
4.11
4.43
4.56
4.43
4.21
3.92
3.57
3.2
2.88
2.53
2.21
1.92
1.63
1.47
1.2
0.91
0.69
0.48
0.19
-0.03
-0.32
-0.53
-0.75
-1.04
-1.25
-1.52
-1.76
-1.97
-2.24
-2.56
-2.8
-3.07
-3.28
-3.49
-3.71
-3.92
-4.11
-4.21
-4.08
-3.6
-2.85
-1.84
-0.59
0.53
1.6
2.37
2.85
3.04
3.07
2.91
2.72
2.4
2.08
1.76
1.44
1.17
0.88
0.59
0.32
0.16
0.05
-0.11
-0.32
-0.43
-0.59
-0.88
-1.09
-1.36
-1.52
-1.73
-2
-2.24
-2.45
-2.67
-2.88
-3.12
-3.39
-3.6
-3.81
-4.03
-4.24
-4.43
-4.53
-4.56
-4.11
-3.31
-2.08
-0.53
1.17
2.64
3.84
4.69
5.2
5.41
5.47
5.36
5.04
4.72
4.4
4
3.68
3.28
2.96
2.64
2.32
2
1.63
1.28
0.88
0.56
0.32
0.11
-0.11
-0.32
-0.56
-0.83
-1.04
-1.25
-1.47
-1.68
-1.89
-2.11
-2.32
-2.45
-2.67
-2.96
-3.09
-3.31
-3.44
-3.63
-3.79
-3.84
-3.65
-3.17
-2.48
-1.47
-0.4
0.64
1.47
2.16
2.56
2.8
2.85
2.72
2.51
2.29
2
1.76
1.44
1.12
0.91
0.64
0.48
0.29
0.19
0
-0.13
-0.29
-0.4
-0.64
-0.91
-1.12
-1.33
-1.55
-1.76
-1.97
-2.19
-2.48
-2.69
-2.91
-3.2
-3.41
-3.68
-3.84
-3.92
-3.81
-3.44
-2.61
-1.39
0
1.57
3.01
4.16
4.99
5.36
5.44
5.49
5.33
5.04
4.72
4.4
4.08
3.68
3.31
3.04
2.72
2.4
2
1.57
1.2
0.8
0.4
0.03
-0.24
-0.53
-0.75
-0.96
-1.25
-1.47
-1.68
-1.89
-2.11
-2.32
-2.53
-2.8
-3.04
-3.25
-3.47
-3.68
-3.89
-4.05
-4.16
-4.08
-3.71
-3.04
-1.92
-0.59
0.88
2.13
3.15
3.92
4.16
4.32
4.4
4.27
4
3.68
3.36
3.04
2.72
2.37
2.05
1.76
1.52
1.25
0.96
0.67
0.45
0.24
-0.08
-0.35
-0.64
-0.85
-1.07
-1.36
-1.57
-1.79
-2
-2.21
-2.48
-2.72
-2.96
-3.23
-3.44
-3.65
-3.87
-4
-4.13
-3.97
-3.6
-2.83
-1.81
-0.56
0.61
1.63
2.4
2.85
3.07
3.12
2.99
2.77
2.48
2.16
1.89
1.6
1.28
0.96
0.72
0.45
0.35
0.24
0.13
-0.03
-0.32
-0.53
-0.8
-1.12
-1.33
-1.55
-1.76
-1.97
-2.19
-2.4
-2.64
-2.91
-3.12
-3.33
-3.55
-3.76
-4.05
-4.27
-4.48
-4.59
-4.69
-4.64
-4.08
-3.17
-1.84
-0.32
1.33
2.72
3.81
4.51
4.96
5.07
5.07
4.88
4.56
4.24
3.92
3.52
3.2
2.88
2.56
2.24
1.84
1.52
1.25
0.96
0.67
0.4
0.16
-0.05
-0.32
-0.56
-0.77
-0.99
-1.2
-1.39
-1.55
-1.76
-2.05
-2.27
-2.48
-2.69
-2.91
-3.12
-3.33
-3.55
-3.68
-3.87
-3.97
-3.92
-3.55
-2.91
-2
-0.83
0.24
1.2
1.89
2.37
2.56
2.69
2.59
2.4
2.16
1.84
1.52
1.31
1.04
0.72
0.51
0.24
0
-0.27
-0.37
-0.48
-0.61
-0.77
-0.88
-1.01
-1.23
-1.44
-1.65
-1.87
-2.08
-2.29
-2.51
-2.8
-3.01
-3.23
-3.52
-3.73
-3.95
-4.08
-4.27
-4.37
-4.24
-3.57
-2.61
-1.36
0.24
1.84
3.2
4.24
4.83
5.12
5.28
5.23
4.96
4.75
4.43
4.08
3.68
3.36
3.12
2.8
2.48
2.16
1.81
1.44
1.04
0.64
0.37
0.16
-0.11
-0.27
-0.48
-0.77
-0.99
-1.2
-1.41
-1.63
-1.76
-1.97
-2.24
-2.4
-2.61
-2.88
-3.12
-3.33
-3.49
-3.68
-3.87
-3.97
-4.08
-3.89
-3.36
-2.56
-1.44
-0.21
0.96
1.81
2.51
2.96
3.23
3.28
3.2
2.99
2.72
2.4
2.08
1.81
1.52
1.28
0.96
0.64
0.37
0.27
0.16
0.05
-0.05
-0.24
-0.45
-0.67
-0.96
-1.17
-1.44
-1.6
-1.81
-2.08
-2.32
-2.53
-2.75
-2.96
-3.2
-3.47
-3.68
-3.87
-3.97
-4
-3.73
-3.09
-2.08
-0.77
0.56
1.84
2.93
3.73
4.08
4.32
4.32
4.24
3.92
3.65
3.36
2.96
2.64
2.32
2
1.68
1.36
1.04
0.77
0.48
0.27
0.05
-0.24
-0.45
-0.72
-0.96
-1.17
-1.44
-1.68
-1.92
-2.13
-2.32
-2.53
-2.75
-2.96
-3.17
-3.39
-3.6
-3.89
-4.11
-4.32
-4.45
-4.61
-4.72
-4.43
-3.79
-2.8
-1.47
-0.03
1.36
2.51
3.31
3.76
3.97
4.08
4
3.71
3.49
3.12
2.8
2.48
2.16
1.92
1.55
1.28
1.17
1.01
0.88
0.75
0.48
0.24
0
-0.27
-0.48
-0.72
-0.99
-1.2
-1.49
-1.71
-1.92
-2.13
-2.35
-2.64
-2.85
-3.12
-3.36
-3.57
-3.84
-4
-4.16
-4.16
-3.92
-3.25
-2.4
-1.36
-0.21
0.8
1.6
2.21
2.48
2.56
2.61
2.45
2.16
1.92
1.6
1.28
0.99
0.72
0.4
0.13
0.03
-0.08
-0.21
-0.37
-0.48
-0.59
-0.69
-0.88
-1.17
-1.39
-1.6
-1.81
-2.03
-2.32
-2.45
-2.67
-2.88
-3.09
-3.36
-3.6
-3.81
-4.03
-4.24
-4.45
-4.56
-4.64
-4.45
-3.87
-2.88
-1.55
0
1.52
2.85
3.81
4.56
4.77
4.88
4.88
4.67
4.4
4.08
3.76
3.44
3.04
2.72
2.45
2.24
1.84
1.52
1.28
0.99
0.77
0.56
0.35
0.13
-0.16
-0.37
-0.59
-0.8
-1.01
-1.23
-1.36
-1.57
-1.84
-2.08
-2.29
-2.51
-2.72
-2.93
-3.15
-3.36
-3.55
-3.71
-3.84
-3.92
-3.76
-3.36
-2.59
-1.63
-0.48
0.56
1.52
2.16
2.64
2.91
2.96
2.91
2.69
2.48
2.24
1.92
1.6
1.31
1.09
0.8
0.61
0.51
0.32
0.21
0.11
0
-0.21
-0.48
-0.72
-0.93
-1.2
-1.44
-1.65
-1.87
-2.08
-2.29
-2.51
-2.72
-3.01
-3.23
-3.44
-3.57
-3.73
-3.76
-3.39
-2.69
-1.68
-0.35
1.15
2.48
3.57
4.37
4.88
5.07
5.12
5.04
4.8
4.48
4.16
3.79
3.52
3.2
2.88
2.56
2.24
2
1.63
1.28
0.88
0.51
0.16
-0.13
-0.4
-0.64
-0.88
-1.15
-1.36
-1.57
-1.79
-2
-2.21
-2.43
-2.64
-2.93
-3.15
-3.36
-3.57
-3.79
-3.92
-4.03
-4.13
-3.92
-3.31
-2.4
-1.2
0.11
1.39
2.56
3.36
3.89
4.08
4.21
4.11
3.92
3.63
3.36
2.96
2.72
2.4
2.08
1.87
1.6
1.36
1.07
0.8
0.56
0.32
0.05
-0.24
-0.48
-0.75
-0.96
-1.25
-1.47
-1.68
-1.97
-2.19
-2.4
-2.61
-2.83
-3.12
-3.33
-3.55
-3.68
-3.89
-4.05
-4.08
-3.65
-3.01
-2.16
-0.91
0.32
1.44
2.4
2.99
3.28
3.44
3.44
3.2
2.99
2.72
2.4
2.08
1.76
1.52
1.17
0.85
0.64
0.51
0.35
0.24
0
-0.27
-0.48
-0.77
-0.99
-1.2
-1.41
-1.63
-1.92
-2.13
-2.35
-2.56
-2.77
-2.99
-3.2
-3.41
-3.63
-3.84
-4.05
-4.27
-4.48
-4.59
-4.64
-4.4
-3.84
-2.83
-1.52
-0.03
1.41
2.8
3.63
4.21
4.48
4.59
4.53
4.32
4.08
3.76
3.44
3.12
2.8
2.48
2.24
1.87
1.6
1.39
1.17
0.96
0.67
0.45
0.16
-0.05
-0.27
-0.56
-0.77
-0.99
-1.2
-1.41
-1.63
-1.84
-2.08
-2.35
-2.56
-2.8
-3.07
-3.28
-3.49
-3.71
-3.92
-4
-4
-3.84
-3.25
-2.4
-1.36
-0.21
0.85
1.68
2.35
2.67
2.72
2.77
2.61
2.4
2.16
1.84
1.52
1.23
0.96
0.72
0.43
0.16
-0.16
-0.27
-0.37
-0.48
-0.59
-0.75
-0.8
-0.93
-1.2
-1.44
-1.65
-1.87
-2.08
-2.29
-2.51
-2.72
-3.01
-3.23
-3.44
-3.65
-3.87
-4.08
-4.19
-4.24
-4
-3.44
-2.37
-1.04
0.48
1.97
3.28
4.21
4.8
5.12
5.15
5.15
4.96
4.67
4.4
4
3.68
3.36
3.04
2.8
2.43
2
1.6
1.23
0.96
0.75
0.48
0.24
0
-0.21
-0.4
-0.64
-0.91
-1.12
-1.31
-1.47
-1.68
-1.97
-2.19
-2.4
-2.61
-2.83
-3.04
-3.25
-3.47
-3.6
-3.79
-3.89
-3.92
-3.57
-2.93
-2
-0.91
0.27
1.36
2.29
2.83
3.2
3.36
3.41
3.28
3.07
2.8
2.48
2.16
1.84
1.6
1.31
1.04
0.72
0.51
0.4
0.32
0.19
-0.03
-0.24
-0.53
-0.75
-0.96
-1.17
-1.39
-1.6
-1.81
-2.03
-2.32
-2.53
-2.8
-2.96
-3.17
-3.39
-3.6
-3.71
-3.71
-3.44
-2.72
-1.65
-0.32
1.15
2.53
3.68
4.4
4.88
5.2
5.17
5.01
4.8
4.48
4.16
3.84
3.52
3.2
2.8
2.56
2.24
1.84
1.44
1.07
0.72
0.35
0.13
-0.16
-0.45
-0.67
-0.88
-1.09
-1.31
-1.52
-1.73
-2
-2.16
-2.37
-2.64
-2.88
-3.12
-3.39
-3.6
-3.79
-3.95
-4.16
-4.32
-4.37
-4.24
-3.65
-2.75
-1.52
-0.13
1.2
2.32
3.2
3.79
4
4.16
4.11
3.92
3.6
3.33
3.04
2.72
2.4
2.08
1.79
1.57
1.44
1.23
1.01
0.72
0.51
0.29
0
-0.29
-0.56
-0.8
-1.01
-1.23
-1.44
-1.68
-1.95
-2.16
-2.4
-2.67
-2.88
-3.15
-3.31
-3.52
-3.73
-3.95
-4.16
-4.11
-3.79
-3.2
-2.29
-1.17
-0.08
1.04
1.89
2.48
2.88
3.04
2.96
2.75
2.53
2.24
1.95
1.68
1.44
1.12
0.8
0.48
0.37
0.27
0.16
0.05
-0.11
-0.32
-0.53
-0.8
-1.04
-1.25
-1.47
-1.68
-1.89
-2.11
-2.32
-2.59
-2.75
-2.96
-3.25
-3.47
-3.68
-3.89
-4.11
-4.24
-4.43
-4.59
-4.56
-4.16
-3.36
-2.16
-0.72
0.83
2.24
3.28
4.13
4.56
4.8
4.8
4.64
4.4
4.08
3.76
3.52
3.2
2.88
2.56
2.24
2
1.71
1.44
1.2
0.96
0.69
0.4
0.19
-0.03
-0.24
-0.53
-0.75
-0.96
-1.17
-1.39
-1.6
-1.81
-2.03
-2.24
-2.45
-2.72
-2.88
-3.09
-3.31
-3.52
-3.76
-3.97
-4.08
-4.05
-3.89
-3.36
-2.56
-1.55
-0.48
0.56
1.41
2.08
2.4
2.56
2.64
2.51
2.24
2
1.76
1.44
1.12
0.88
0.61
0.4
0.29
0.19
0.08
-0.11
-0.21
-0.32
-0.53
-0.75
-0.96
-1.17
-1.39
-1.6
-1.81
-2.03
-2.24
-2.45
-2.67
-2.88
-3.12
-3.33
-3.52
-3.73
-3.95
-4.08
-4.03
-3.65
-2.88
-1.76
-0.43
1.12
2.48
3.6
4.4
4.88
5.15
5.12
4.99
4.77
4.48
4.16
3.89
3.6
3.28
2.96
2.64
2.32
2
1.6
1.17
0.85
0.56
0.35
0.13
-0.16
-0.37
-0.64
-0.8
-1.01
-1.23
-1.44
-1.68
-1.89
-2.08
-2.29
-2.51
-2.72
-2.99
-3.15
-3.36
-3.65
-3.81
-4
-4.11
-4.05
-3.76
-3.07
-2.11
-0.96
0.21
1.33
2.24
2.8
3.23
3.44
3.44
3.33
3.04
2.75
2.53
2.24
1.92
1.6
1.28
1.07
0.8
0.56
0.45
0.29
0.16
0.03
-0.19
-0.4
-0.64
-0.91
-1.12
-1.33
-1.55
-1.76
-2.03
-2.19
-2.4
-2.69
-2.91
-3.12
-3.33
-3.55
-3.68
-3.68
-3.52
-2.96
-2.11
-0.88
0.4
1.76
2.83
3.68
4.16
4.43
4.56
4.45
4.29
4
3.68
3.36
3.04
2.8
2.48
2.16
1.81
1.39
1.04
0.75
0.48
0.24
0
-0.27
-0.48
-0.72
-0.99
-1.2
-1.47
-1.63
-1.84
-2.05
-2.27
-2.48
-2.69
-2.91
-3.12
-3.33
-3.6
-3.76
-3.97
-4.19
-4.4
-4.51
-4.45
-4.16
-3.36
-2.35
-1.12
0.21
1.39
2.4
3.07
3.44
3.76
3.73
3.57
3.36
3.07
2.8
2.48
2.16
1.84
1.6
1.36
1.15
1.04
0.93
0.83
0.64
0.35
0.13
-0.08
-0.37
-0.59
-0.88
-1.09
-1.31
-1.52
-1.73
-2
-2.24
-2.45
-2.72
-2.96
-3.17
-3.39
-3.6
-3.79
-3.89
-4
-3.95
-3.63
-2.88
-1.89
-0.77
0.4
1.25
2
2.56
2.75
2.85
2.8
2.59
2.37
2
1.76
1.49
1.2
0.96
0.69
0.48
0.21
0.11
0
-0.11
-0.21
-0.4
-0.61
-0.83
-1.04
-1.25
-1.52
-1.68
-1.89
-2.11
-2.32
-2.53
-2.75
-2.96
-3.17
-3.39
-3.6
-3.81
-4.03
-4.24
-4.43
-4.53
-4.64
-4.4
-3.81
-2.8
-1.49
-0.05
1.28
2.51
3.41
4
4.32
4.48
4.4
4.19
3.92
3.68
3.39
3.12
2.8
2.48
2.21
1.92
1.6
1.39
1.28
1.15
0.88
0.64
0.43
0.21
0
-0.24
-0.51
-0.72
-0.93
-1.15
-1.36
-1.57
-1.79
-2
-2.21
-2.43
-2.72
-2.85
-3.07
-3.28
-3.49
-3.71
-3.84
-4
-3.95
-3.68
-3.09
-2.24
-1.2
-0.16
0.75
1.44
2.05
2.32
2.4
2.45
2.29
2.08
1.84
1.57
1.28
1.04
0.72
0.48
0.32
0.27
0.16
0.03
-0.08
-0.16
-0.29
-0.51
-0.72
-0.99
-1.15
-1.36
-1.57
-1.79
-2
-2.21
-2.43
-2.64
-2.85
-3.07
-3.28
-3.49
-3.65
-3.84
-3.95
-3.95
-3.68
-2.88
-1.76
-0.4
1.07
2.4
3.52
4.24
4.72
5.04
5.04
4.93
4.72
4.4
4.08
3.84
3.52
3.2
2.88
2.64
2.32
2
1.6
1.23
0.96
0.67
0.45
0.24
-0.05
-0.27
-0.48
-0.69
-0.91
-1.12
-1.33
-1.55
-1.68
-1.89
-2.11
-2.32
-2.53
-2.75
-2.96
-3.17
-3.39
-3.6
-3.79
-3.89
-3.92
-3.73
-3.2
-2.4
-1.33
-0.21
0.88
1.81
2.61
3.04
3.31
3.41
3.36
3.15
2.93
2.64
2.4
2.08
1.84
1.55
1.28
1.04
0.75
0.59
0.4
0.29
0.13
-0.16
-0.37
-0.59
-0.8
-1.01
-1.23
-1.44
-1.65
-1.87
-2.08
-2.27
-2.43
-2.64
-2.93
-3.15
-3.36
-3.49
-3.65
-3.84
-3.71
-3.33
-2.64
-1.55
-0.32
0.96
2.08
2.99
3.68
4
4.16
4.16
3.95
3.73
3.44
3.15
2.88
2.56
2.27
2
1.6
1.39
1.17
0.88
0.67
0.4
0.24
0.03
-0.24
-0.48
-0.72
-0.99
-1.2
-1.41
-1.63
-1.84
-2.03
-2.19
-2.4
-2.61
-2.83
-3.04
-3.25
-3.47
-3.68
-3.89
-4.11
-4.24
-4.4
-4.35
-4.16
-3.47
-2.45
-1.2
0.08
1.36
2.4
3.15
3.57
3.84
3.92
3.81
3.6
3.39
3.12
2.8
2.48
2.16
1.92
1.71
1.49
1.36
1.23
1.07
0.88
0.64
0.37
0.16
-0.05
-0.32
-0.56
-0.77
-0.99
-1.2
-1.41
-1.63
-1.84
-2.05
-2.32
-2.56
-2.77
-3.04
-3.28
-3.49
-3.65
-3.84
-3.95
-4
-3.84
-3.41
-2.61
-1.68
-0.61
0.4
1.28
1.81
2.19
2.4
2.4
2.29
2.08
1.87
1.6
1.28
1.04
0.77
0.56
0.35
0.19
0.08
-0.03
-0.13
-0.24
-0.32
-0.43
-0.72
-0.93
-1.15
-1.28
-1.49
-1.76
-1.92
-2.13
-2.29
-2.48
-2.72
-2.93
-3.12
-3.36
-3.63
-3.84
-4.03
-4.19
-4.4
-4.48
-4.37
-4.08
-3.23
-2.16
-0.88
0.59
1.97
2.96
3.73
4.16
4.4
4.45
4.35
4.16
3.92
3.6
3.28
2.99
2.77
2.56
2.21
1.95
1.76
1.63
1.36
1.12
0.91
0.64
0.48
0.27
0
-0.24
-0.45
-0.67
-0.88
-1.07
-1.23
-1.44
-1.71
-1.87
-2.08
-2.29
-2.51
-2.8
-2.93
-3.15
-3.36
-3.55
-3.71
-3.84
-3.92
-3.76
-3.36
-2.51
-1.6
-0.56
0.37
1.23
1.84
2.27
2.43
2.48
2.45
2.29
2
1.79
1.57
1.28
1.07
0.8
0.56
0.37
0.27
0.16
0.05
-0.05
-0.16
-0.27
-0.43
-0.64
-0.91
-1.07
-1.28
-1.49
-1.71
-1.92
-2.05
-2.27
-2.56
-2.77
-2.99
-3.2
-3.41
-3.57
-3.68
-3.79
-3.68
-3.2
-2.32
-1.2
0.16
1.6
2.83
3.76
4.43
4.8
5.04
5.01
4.85
4.64
4.4
4.08
3.84
3.52
3.2
2.88
2.64
2.32
2
1.6
1.23
0.96
0.67
0.45
0.24
0.03
-0.19
-0.48
-0.61
-0.83
-1.04
-1.25
-1.47
-1.6
-1.81
-2.03
-2.24
-2.45
-2.67
-2.88
-3.09
-3.31
-3.52
-3.71
-3.81
-3.92
-3.95
-3.57
-2.96
-2
-0.93
0.24
1.28
2.19
2.72
3.09
3.31
3.36
3.23
3.01
2.8
2.48
2.21
2
1.71
1.44
1.12
0.93
0.83
0.64
0.53
0.37
0.16
-0.05
-0.32
-0.48
-0.69
-0.91
-1.12
-1.33
-1.49
-1.68
-1.92
-2.19
-2.4
-2.61
-2.83
-3.04
-3.25
-3.41
-3.6
-3.71
-3.65
-3.36
-2.64
-1.63
-0.4
0.8
1.97
2.88
3.6
4.03
4.24
4.21
4.05
3.84
3.63
3.36
3.04
2.72
2.45
2.16
1.92
1.55
1.2
0.99
0.72
0.56
0.35
0.08
-0.16
-0.37
-0.59
-0.8
-1.01
-1.23
-1.44
-1.63
-1.79
-2
-2.21
-2.43
-2.64
-2.85
-3.07
-3.28
-3.49
-3.71
-3.84
-4.03
-4.13
-4.16
-4.11
-3.68
-2.96
-1.87
-0.64
0.48
1.57
2.37
2.88
3.25
3.41
3.44
3.31
3.09
2.8
2.56
2.24
2
1.79
1.52
1.28
1.15
1.04
0.96
0.83
0.61
0.4
0.11
-0.11
-0.32
-0.53
-0.75
-1.04
-1.25
-1.47
-1.68
-1.89
-2.11
-2.24
-2.45
-2.67
-2.88
-3.12
-3.33
-3.52
-3.71
-3.76
-3.84
-3.55
-2.96
-2.16
-1.15
-0.03
1.04
1.79
2.37
2.8
2.99
2.99
2.88
2.67
2.4
2.16
1.84
1.57
1.36
1.12
0.85
0.72
0.53
0.43
0.4
0.19
-0.03
-0.24
-0.45
-0.67
-0.88
-1.09
-1.31
-1.52
-1.73
-1.89
-2.08
-2.32
-2.53
-2.72
-2.91
-3.07
-3.28
-3.55
-3.71
-3.92
-4.05
-4.27
-4.48
-4.51
-4.45
-4
-3.17
-2.05
-0.8
0.4
1.57
2.56
3.2
3.63
3.84
3.84
3.73
3.52
3.23
3.01
2.72
2.4
2.13
1.84
1.63
1.47
1.36
1.25
1.15
0.96
0.75
0.59
0.4
0.16
-0.11
-0.32
-0.51
-0.67
-0.88
-1.15
-1.31
-1.52
-1.73
-1.95
-2.24
-2.37
-2.59
-2.88
-3.09
-3.31
-3.44
-3.65
-3.81
-3.84
-3.76
-3.33
-2.64
-1.73
-0.67
0.32
1.2
1.79
2.24
2.4
2.45
2.4
2.27
2.05
1.76
1.55
1.28
1.04
0.83
0.56
0.24
0.13
0.03
-0.08
-0.11
-0.21
-0.32
-0.45
-0.67
-0.88
-1.01
-1.23
-1.52
-1.65
-1.87
-2.08
-2.29
-2.51
-2.64
-2.85
-3.07
-3.28
-3.49
-3.65
-3.84
-3.95
-4
-3.68
-3.04
-1.97
-0.72
0.67
1.95
3.12
3.84
4.37
4.64
4.75
4.69
4.56
4.35
4.08
3.76
3.44
3.17
2.96
2.64
2.37
2.16
1.92
1.6
1.28
1.07
0.85
0.56
0.43
0.21
-0.08
-0.29
-0.51
-0.64
-0.85
-1.07
-1.28
-1.49
-1.65
-1.84
-2.05
-2.27
-2.48
-2.75
-2.91
-3.12
-3.25
-3.41
-3.6
-3.6
-3.44
-2.96
-2.27
-1.31
-0.32
0.69
1.55
2.24
2.67
2.88
2.96
2.93
2.77
2.56
2.27
2.05
1.84
1.55
1.33
1.04
0.91
0.8
0.72
0.59
0.32
0.16
-0.05
-0.27
-0.48
-0.72
-0.93
-1.12
-1.33
-1.55
-1.76
-1.95
-2.11
-2.32
-2.53
-2.75
-2.96
-3.17
-3.33
-3.44
-3.44
-3.28
-2.64
-1.68
-0.4
0.96
2.32
3.44
4.32
4.83
5.15
5.28
5.17
5.01
4.8
4.48
4.16
3.84
3.6
3.33
3.04
2.83
2.56
2.24
1.89
1.52
1.2
0.85
0.48
0.16
-0.05
-0.27
-0.48
-0.75
-0.91
-1.12
-1.33
-1.55
-1.76
-1.89
-2.11
-2.24
-2.45
-2.72
-2.88
-3.09
-3.31
-3.52
-3.65
-3.76
-3.84
-3.57
-2.99
-2.08
-1.01
0.11
1.2
2.21
2.91
3.44
3.57
3.68
3.68
3.47
3.2
2.96
2.67
2.4
2.08
1.84
1.57
1.36
1.23
1.01
0.8
0.53
0.37
0.16
-0.13
-0.35
-0.64
-0.77
-0.99
-1.2
-1.41
-1.63
-1.76
-1.97
-2.19
-2.4
-2.64
-2.91
-3.12
-3.31
-3.41
-3.52
-3.63
-3.36
-2.72
-1.81
-0.64
0.64
1.73
2.75
3.44
3.84
4.16
4.24
4.11
3.89
3.68
3.36
3.09
2.8
2.56
2.24
1.92
1.6
1.28
1.04
0.75
0.53
0.32
0.11
-0.11
-0.4
-0.61
-0.83
-1.04
-1.25
-1.41
-1.6
-1.84
-2.05
-2.24
-2.43
-2.59
-2.8
-3.09
-3.31
-3.52
-3.65
-3.87
-4.08
-4.11
-4.05
-3.6
-2.88
-1.81
-0.56
0.8
1.97
2.96
3.6
4.03
4.24
4.24
4.13
3.92
3.63
3.36
3.12
2.8
2.53
2.24
2.03
1.81
1.52
1.31
1.04
0.88
0.67
0.4
0.16
-0.05
-0.27
-0.48
-0.69
-0.91
-1.12
-1.39
-1.55
-1.76
-2.05
-2.27
-2.56
-2.69
-2.91
-3.12
-3.33
-3.55
-3.68
-3.73
-3.52
-3.12
-2.21
-1.15
-0.08
0.96
1.87
2.48
2.91
3.07
3.12
3.01
2.85
2.56
2.32
2.05
1.76
1.52
1.2
0.96
0.69
0.59
0.48
0.37
0.21
0
-0.21
-0.43
-0.64
-0.91
-1.07
-1.28
-1.49
-1.71
-1.92
-2.13
-2.35
-2.48
-2.69
-2.96
-3.2
-3.41
-3.57
-3.76
-3.89
-4
-4
-3.52
-2.72
-1.52
-0.19
1.31
2.64
3.65
4.35
4.88
4.99
5.04
4.88
4.67
4.4
4.16
3.84
3.52
3.28
2.96
2.69
2.4
2
1.63
1.36
1.07
0.85
0.64
0.35
0.13
-0.08
-0.29
-0.51
-0.72
-0.93
-1.15
-1.28
-1.49
-1.71
-1.92
-2.16
-2.43
-2.64
-2.85
-3.07
-3.28
-3.47
-3.63
-3.76
-3.81
-3.55
-2.96
-2.08
-1.07
0.08
1.09
1.95
2.48
2.85
3.01
3.04
2.91
2.75
2.56
2.24
1.97
1.68
1.39
1.17
0.88
0.69
0.59
0.48
0.37
0.21
0
-0.21
-0.48
-0.72
-0.93
-1.09
-1.28
-1.52
-1.73
-1.92
-2.13
-2.35
-2.56
-2.83
-2.99
-3.2
-3.41
-3.57
-3.68
-3.63
-3.25
-2.48
-1.36
0.03
1.44
2.77
3.84
4.64
5.07
5.28
5.28
5.17
5.01
4.72
4.43
4.16
3.84
3.52
3.2
2.88
2.53
2.11
1.76
1.36
0.99
0.72
0.51
0.29
0.08
-0.16
-0.37
-0.56
-0.77
-0.99
-1.2
-1.39
-1.55
-1.76
-2.05
-2.27
-2.48
-2.69
-2.91
-3.12
-3.33
-3.55
-3.68
-3.76
-3.76
-3.52
-2.83
-1.92
-0.88
0.29
1.41
2.32
2.99
3.36
3.6
3.68
3.57
3.28
3.07
2.8
2.48
2.27
2
1.76
1.47
1.2
0.96
0.83
0.61
0.4
0.16
-0.11
-0.32
-0.53
-0.75
-0.96
-1.17
-1.39
-1.6
-1.73
-1.95
-2.24
-2.45
-2.72
-2.88
-3.09
-3.25
-3.44
-3.52
-3.36
-2.96
-2.08
-0.96
0.32
1.63
2.75
3.68
4.27
4.53
4.64
4.61
4.45
4.16
3.84
3.52
3.28
3.04
2.72
2.4
2.16
1.84
1.52
1.12
0.75
0.48
0.19
-0.03
-0.24
-0.45
-0.67
-0.96
-1.09
-1.31
-1.52
-1.73
-2
-2.16
-2.37
-2.59
-2.8
-3.01
-3.23
-3.44
-3.63
-3.79
-3.92
-4.08
-4.08
-3.84
-3.23
-2.27
-1.12
0.13
1.31
2.32
3.09
3.57
3.76
3.84
3.79
3.6
3.36
3.09
2.8
2.48
2.21
2
1.71
1.49
1.36
1.15
0.93
0.64
0.43
0.21
-0.08
-0.29
-0.56
-0.72
-0.93
-1.2
-1.44
-1.65
-1.87
-2.08
-2.29
-2.51
-2.72
-2.93
-3.15
-3.36
-3.49
-3.65
-3.68
-3.44
-2.85
-1.92
-0.83
0.35
1.44
2.35
2.99
3.36
3.49
3.6
3.52
3.28
2.96
2.72
2.43
2.16
1.84
1.55
1.28
0.96
0.85
0.69
0.48
0.27
0
-0.24
-0.45
-0.67
-0.88
-1.12
-1.39
-1.6
-1.79
-1.95
-2.16
-2.37
-2.59
-2.8
-3.01
-3.23
-3.44
-3.65
-3.87
-4
-4.11
-4.21
-4.08
-3.63
-2.72
-1.52
-0.11
1.28
2.48
3.31
3.95
4.32
4.48
4.43
4.24
4
3.73
3.44
3.2
2.88
2.56
2.27
2
1.76
1.55
1.28
1.04
0.8
0.59
0.4
0.16
-0.11
-0.32
-0.53
-0.75
-0.96
-1.17
-1.39
-1.6
-1.81
-2.03
-2.24
-2.45
-2.72
-2.96
-3.17
-3.39
-3.6
-3.73
-3.84
-3.84
-3.36
-2.61
-1.68
-0.53
0.53
1.52
2.21
2.64
2.96
2.96
2.91
2.72
2.51
2.24
2
1.68
1.36
1.12
0.88
0.67
0.56
0.45
0.4
0.24
-0.05
-0.27
-0.48
-0.69
-0.91
-1.2
-1.33
-1.55
-1.76
-1.97
-2.19
-2.32
-2.53
-2.8
-3.04
-3.25
-3.47
-3.68
-3.87
-3.97
-4.08
-3.97
-3.44
-2.48
-1.28
0.11
1.6
2.85
3.87
4.56
4.91
5.01
5.04
4.91
4.64
4.32
4
3.73
3.44
3.12
2.85
2.56
2.16
1.84
1.44
1.15
0.93
0.72
0.51
0.29
0
-0.21
-0.43
-0.64
-0.85
-1.07
-1.28
-1.49
-1.71
-1.92
-2.13
-2.35
-2.56
-2.83
-2.99
-3.2
-3.33
-3.49
-3.68
-3.68
-3.47
-2.96
-2.16
-1.09
0
1.04
1.89
2.56
2.99
3.2
3.28
3.23
3.01
2.8
2.51
2.24
2
1.68
1.41
1.12
1.01
0.96
0.8
0.51
0.29
0.08
-0.13
-0.35
-0.56
-0.77
-0.99
-1.2
-1.41
-1.63
-1.84
-2.05
-2.27
-2.48
-2.69
-2.91
-3.12
-3.33
-3.44
-3.52
-3.23
-2.64
-1.68
-0.37
1.01
2.32
3.49
4.35
4.88
5.09
5.2
5.2
4.99
4.77
4.4
4.08
3.76
3.44
3.2
2.93
2.64
2.21
1.79
1.44
1.09
0.72
0.32
0.08
-0.13
-0.32
-0.56
-0.83
-1.04
-1.25
-1.47
-1.68
-1.89
-2.11
-2.32
-2.53
-2.75
-2.96
-3.17
-3.39
-3.52
-3.71
-3.81
-3.84
-3.49
-2.85
-1.92
-0.64
0.64
1.76
2.8
3.44
3.92
4.08
4.13
4
3.87
3.6
3.28
3.04
2.72
2.48
2.16
1.84
1.52
1.28
1.01
0.8
0.59
0.32
0.08
-0.13
-0.35
-0.56
-0.85
-1.07
-1.36
-1.57
-1.79
-2
-2.21
-2.48
-2.64
-2.85
-3.07
-3.28
-3.49
-3.65
-3.76
-3.6
-3.23
-2.48
-1.41
-0.29
0.88
1.89
2.59
3.2
3.41
3.52
3.44
3.23
2.96
2.72
2.43
2.16
1.84
1.52
1.25
1.04
0.91
0.69
0.48
0.19
-0.03
-0.24
-0.45
-0.67
-0.96
-1.17
-1.39
-1.6
-1.81
-2.03
-2.24
-2.45
-2.67
-2.88
-3.12
-3.33
-3.52
-3.71
-3.87
-4
-4.03
-3.76
-3.2
-2.08
-0.75
0.8
2.16
3.33
4.16
4.72
5.04
5.12
5.07
4.85
4.64
4.32
4
3.68
3.44
3.12
2.8
2.48
2.16
1.76
1.33
1.01
0.72
0.51
0.29
0
-0.21
-0.48
-0.64
-0.85
-1.07
-1.28
-1.52
-1.73
-1.92
-2.16
-2.43
-2.64
-2.91
-3.07
-3.28
-3.41
-3.57
-3.68
-3.41
-2.83
-2
-0.91
0.27
1.28
2.11
2.75
3.2
3.31
3.31
3.2
2.99
2.72
2.48
2.19
1.92
1.6
1.31
1.15
0.96
0.75
0.53
0.24
0.03
-0.24
-0.4
-0.61
-0.88
-1.12
-1.33
-1.55
-1.76
-1.97
-2.19
-2.4
-2.69
-2.91
-3.12
-3.33
-3.49
-3.68
-3.65
-3.39
-2.8
-1.81
-0.37
1.12
2.56
3.79
4.72
5.31
5.57
5.68
5.63
5.41
5.12
4.8
4.48
4.16
3.84
3.52
3.12
2.91
2.59
2.16
1.76
1.39
1.04
0.69
0.32
-0.08
-0.32
-0.53
-0.72
-0.96
-1.23
-1.44
-1.63
-1.79
-2
-2.21
-2.43
-2.72
-2.93
-3.15
-3.28
-3.47
-3.57
-3.52
-3.2
-2.45
-1.44
-0.24
0.99
2.16
2.99
3.68
4.08
4.24
4.24
4.08
3.79
3.52
3.2
2.96
2.64
2.32
2
1.68
1.36
1.07
0.8
0.56
0.24
0.03
-0.16
-0.4
-0.67
-0.88
-1.17
-1.39
-1.6
-1.81
-2.03
-2.32
-2.53
-2.75
-2.96
-3.17
-3.39
-3.44
-3.47
-3.15
-2.48
-1.39
-0.11
1.36
2.59
3.55
4.24
4.75
4.85
4.88
4.67
4.4
4.08
3.84
3.47
3.12
2.8
2.48
2.16
1.73
1.36
0.96
0.53
0.21
0
-0.24
-0.51
-0.72
-1.01
-1.23
-1.44
-1.65
-1.87
-2.16
-2.29
-2.51
-2.8
-3.01
-3.28
-3.44
-3.65
-3.87
-4
-4.03
-3.65
-2.96
-1.76
-0.37
1.12
2.59
3.65
4.48
4.96
5.17
5.2
5.09
4.88
4.56
4.16
3.84
3.52
3.2
2.88
2.48
2.05
1.68
1.28
0.88
0.61
0.4
0.11
-0.11
-0.32
-0.61
-0.83
-1.12
-1.25
-1.47
-1.76
-1.97
-2.24
-2.48
-2.69
-2.96
-3.2
-3.44
-3.65
-3.84
-3.87
-3.81
-3.36
-2.53
-1.41
-0.16
1.01
2.03
2.88
3.28
3.44
3.52
3.39
3.12
2.88
2.56
2.24
1.92
1.6
1.28
0.96
0.77
0.67
0.48
0.19
-0.03
-0.24
-0.53
-0.75
-1.04
-1.25
-1.47
-1.68
-1.89
-2.16
-2.4
-2.61
-2.83
-3.04
-3.28
-3.55
-3.76
-3.95
-4.05
-4.16
-3.95
-3.36
-2.32
-0.91
0.69
2.4
3.68
4.75
5.36
5.71
5.81
5.76
5.52
5.2
4.88
4.53
4.11
3.76
3.44
3.12
2.8
2.37
2
1.6
1.25
0.88
0.56
0.24
-0.03
-0.32
-0.53
-0.8
-0.96
-1.17
-1.39
-1.6
-1.81
-2.03
-2.24
-2.45
-2.67
-2.88
-3.07
-3.23
-3.44
-3.52
-3.41
-3.12
-2.43
-1.47
-0.4
0.72
1.73
2.48
3.04
3.31
3.44
3.47
3.25
3.04
2.72
2.4
2.16
1.87
1.6
1.36
1.17
0.96
0.64
0.43
0.21
-0.08
-0.29
-0.56
-0.8
-1.01
-1.28
-1.52
-1.76
-1.97
-2.16
-2.4
-2.67
-2.88
-3.17
-3.39
-3.6
-3.71
-3.81
-3.68
-3.09
-2.13
-0.8
0.77
2.32
3.68
4.67
5.31
5.68
5.76
5.71
5.52
5.2
4.83
4.48
4.08
3.76
3.36
3.01
2.69
2.4
2.08
1.71
1.28
0.88
0.51
0.16
-0.19
-0.56
-0.88
-1.09
-1.31
-1.52
-1.73
-1.95
-2.16
-2.35
-2.51
-2.8
-3.01
-3.23
-3.44
-3.57
-3.73
-3.84
-3.73
-3.2
-2.32
-1.2
0.13
1.44
2.51
3.36
3.92
4.13
4.24
4.16
3.95
3.73
3.36
3.04
2.72
2.4
2.16
1.79
1.44
1.15
0.88
0.64
0.35
0.08
-0.16
-0.4
-0.67
-0.88
-1.12
-1.39
-1.6
-1.87
-2.03
-2.24
-2.53
-2.75
-2.96
-3.17
-3.39
-3.6
-3.79
-3.95
-3.92
-3.63
-2.99
-2
-0.69
0.64
1.84
2.83
3.47
3.84
4
4
3.84
3.52
3.2
2.8
2.56
2.24
1.92
1.6
1.23
1.04
0.83
0.56
0.32
0.08
-0.19
-0.4
-0.64
-0.91
-1.12
-1.41
-1.63
-1.84
-2.05
-2.27
-2.48
-2.69
-2.91
-3.12
-3.33
-3.6
-3.84
-4.05
