-0.19728	0.07607
-0.27751	0.11421
-0.36793	0.090055
-0.47491	0.067171
-0.59462	0.082427
-0.70924	0.02013
-0.73853	0.09387
-0.56406	0.053185
-0.13615	0.09387
0.44714	0.067171
1.0737	0.063356
1.6264	0.064628
2.0607	0.088784
2.3562	0.081156
2.5281	0.14854
2.5803	0.16125
2.5154	0.15617
2.3689	0.17651
2.1435	0.078613
1.871	0.17142
1.5742	0.074799
1.2902	0.083698
1.0508	0.031572
0.88524	0.0023302
0.78336	-0.037083
0.7235	-0.054882
0.70185	-0.16168
0.68911	-0.080309
0.66874	-0.047254
0.62289	-0.12989
0.55157	-0.11718
0.4586	-0.094295
0.33252	-0.18583
0.19116	-0.20872
0.035783	-0.11718
-0.1145	-0.11082
-0.23676	-0.072681
-0.28133	-0.12862
-0.13487	-0.028183
0.21535	-0.02564
0.67001	0.12184
1.1425	0.02013
1.5666	0.045557
1.8837	-0.06251
2.1053	0.078613
2.2072	0.15998
2.2072	0.23754
2.1155	0.14727
1.9512	0.21338
1.7207	0.23372
1.4418	0.19304
1.1527	0.26423
0.86614	0.2922
0.62034	0.25661
0.43822	0.23626
0.31469	0.18922
0.24082	0.14472
0.20262	0.079884
0.18988	0.0086871
0.16314	0.034115
0.12875	-0.059967
0.063801	-0.065053
-0.031715	-0.12862
-0.16162	-0.13244
-0.30935	-0.11972
-0.47873	-0.15659
-0.64811	-0.16041
-0.80349	-0.14896
-0.85825	-0.23923
-0.70797	-0.19473
-0.33609	-0.18075
0.19243	-0.11209
0.73878	-0.15405
1.238	-0.14642
1.6277	-0.13879
1.8939	-0.09938
2.0314	-0.068867
2.0786	-0.059967
2.02	-0.0065694
1.8812	0.055728
1.6838	-0.023097
1.4469	0.053185
1.2036	0.059542
0.97694	0.023944
0.79864	0.12693
0.68275	0.13328
0.65473	0.21592
0.65091	0.22736
0.67638	0.19558
0.70694	0.28585
0.71586	0.25788
0.70949	0.27568
0.67128	0.24135
0.5885	0.16252
0.47643	0.12565
0.33761	0.10531
0.16186	0.029029
-0.0049702	0.018858
-0.14633	-0.039625
-0.18963	-0.085395
-0.04063	-0.06251
0.27776	-0.072681
0.6802	-0.13371
1.0979	-0.15151
1.4481	-0.09938
1.7156	-0.15913
1.8722	-0.17439
1.9321	-0.16803
1.899	-0.09938
1.7844	-0.15786
1.5997	-0.20618
1.359	-0.10955
1.089	-0.12226
0.82411	-0.081581
0.58978	-0.068867
0.42676	-0.093023
0.34398	-0.045982
0.33125	-0.0040267
0.35544	-0.054882
0.40129	-0.089209
0.45096	0.018858
0.4828	0.068442
0.50318	0.10531
0.49553	0.053185
0.46497	0.11294
0.4153	0.13583
0.34398	0.19558
0.26757	0.22736
0.19625	0.24898
0.18351	0.27695
0.28795	0.23499
0.52228	0.16252
0.83812	0.19812
1.1769	0.1104
1.4736	0.12057
1.7105	0.1015
1.8493	0.043014
1.9054	0.051914
1.8773	0.026486
1.7704	0.02013
1.6137	-0.047254
1.3985	-0.028183
1.1425	-0.023097
0.8725	-0.068867
0.61525	-0.020555
0.41403	-0.10828
0.25483	-0.10065
0.15932	-0.13498
0.098187	-0.13498
0.075263	-0.15278
0.058707	-0.10319
0.039604	-0.14006
0.0090389	-0.10701
-0.039356	-0.087938
-0.097939	-0.11337
-0.1769	-0.096837
-0.26477	-0.10701
-0.35392	-0.067596
-0.45199	-0.058696
-0.52967	0.059542
-0.56151	-0.026912
-0.46982	0.044286
-0.2011	0.090055
0.21026	0.064628
0.68147	0.082427
1.1399	0.022672
1.5156	0.15362
1.7895	0.15617
1.9614	0.23754
2.0327	0.24262
2.0149	0.23372
1.9295	0.18922
1.7742	0.19558
1.5742	0.15617
1.3361	0.10023
1.0916	0.18668
0.86741	0.12565
0.6751	0.016315
0.53884	0.069713
0.43568	0.069713
0.35799	0.0010588
0.31724	-0.011655
0.2854	0.01123
0.25101	0.046828
0.20771	-0.085395
0.1555	-0.091752
0.076537	-0.021826
0.00012402	0.022672
-0.10049	-0.087938
-0.20874	-0.15024
-0.32973	-0.12481
-0.44434	-0.19092
-0.54241	-0.15659
-0.58443	-0.14769
-0.45835	-0.17693
-0.15652	-0.15024
0.27266	-0.13498
0.73496	-0.10955
1.1731	-0.15024
1.5169	-0.040897
1.7589	-0.011655
1.9104	0.0099585
1.9601	0.046828
1.9321	0.074799
1.8328	0.18922
1.6723	0.12311
1.4749	0.15744
1.252	0.21211
1.0419	0.25661
0.85213	0.23245
0.71204	0.26551
0.6318	0.21974
0.58468	0.21719
0.56813	0.19939
0.55539	0.18922
0.53119	0.14981
0.49936	0.081156
0.4395	0.074799
0.36945	0.049371
0.27394	0.0036016
0.16951	0.0036016
0.045972	-0.045982
-0.081383	-0.039625
-0.21256	0.0036016
-0.32845	-0.12989
-0.40741	-0.12862
-0.39213	-0.12099
-0.21129	-0.12481
0.10965	-0.2405
0.507	-0.19728
0.90052	-0.15278
1.2469	-0.18838
1.5131	-0.076495
1.6697	-0.16168
1.7411	-0.15532
1.7372	-0.12354
1.6647	-0.072681
1.5258	-0.05361
1.3463	-0.12608
1.1361	0.034115
0.92727	-0.00021255
0.73624	0.090055
0.59614	0.13455
0.50954	0.10531
0.46624	0.17651
0.4586	0.15871
0.47261	0.25025
0.49171	0.18541
0.49681	0.22991
0.49681	0.22482
0.4777	0.20575
0.4395	0.18922
0.37964	0.18414
0.29431	0.15998
0.18224	0.16761
0.070169	0.12565
-0.058459	0.1104
-0.16544	0.050643
-0.23166	0.02013
-0.17435	-0.026912
0.051066	-0.043439
0.37455	-0.061239
0.74897	-0.14896
1.103	-0.093023
1.3845	-0.094295
1.5781	-0.10192
1.6774	-0.17821
1.7003	-0.22398
1.6468	-0.12735
1.5271	-0.13625
1.3539	-0.13625
1.1298	-0.082852
0.88779	-0.15659
0.63817	-0.17948
0.43186	-0.14896
0.28667	-0.10319
0.20771	-0.091752
0.18351	0.01123
0.19752	-0.042168
0.22045	0.016315
0.25611	0.064628
0.27776	0.018858
0.29304	0.037929
0.29049	0.091327
0.26757	0.077342
0.22682	0.12693
0.17587	0.19177
0.12621	0.19812
0.053613	0.21465
-0.016432	0.15617
-0.081383	0.23626
-0.12596	0.16634
-0.08011	0.18159
0.12111	0.078613
0.45733	0.15235
0.85468	0.10277
1.2469	0.058271
1.5793	0.060814
1.8175	0.0074157
1.9499	-0.047254
2.0009	0.015044
1.9614	-0.035811
1.8582	-0.12481
1.685	-0.16549
1.4673	-0.047254
1.2202	-0.17439
0.96165	-0.081581
0.71713	-0.048525
0.51718	-0.16676
0.37327	-0.091752
0.28922	-0.25449
0.24719	-0.14261
0.23573	-0.17185
0.22554	-0.15532
0.2179	-0.20109
0.20771	-0.13879
0.17715	-0.052339
0.13512	-0.10319
0.085452	-0.081581
0.019227	-0.0065694
-0.06228	-0.035811
-0.13615	-0.018012
-0.21765	-0.012926
-0.28897	0.021401
-0.34628	0.14091
-0.32336	0.15617
-0.16416	0.036657
0.16186	0.11675
0.59105	0.12438
1.0533	0.14091
1.4762	0.12693
1.8035	0.15108
2.0327	0.063356
2.1524	0.40281
2.2034	0.20194
2.1613	0.16634
2.0556	0.041743
1.8862	0.10277
1.6723	0.13201
1.4329	0.027758
1.1833	0.044286
0.95019	-0.012926
0.76807	-0.059967
0.63562	-0.018012
0.54902	-0.073953
0.49171	-0.091752
0.44714	-0.077767
0.40511	-0.10065
0.36309	-0.13116
0.30068	-0.12989
0.22172	-0.12989
0.13003	-0.18456
0.03451	-0.12608
-0.075015	-0.13244
-0.18709	-0.10955
-0.30043	-0.13879
-0.41633	-0.18456
-0.53349	-0.12735
-0.61755	-0.09938
-0.64047	-0.095566
-0.49019	-0.12481
-0.15907	-0.11209
0.28795	-0.0040267
0.77189	-0.066324
1.2113	-0.011655
1.5666	-0.0065694
1.8137	0.025215
1.9639	0.01123
2.0187	0.0061443
1.9856	0.08497
1.8862	0.14091
1.7423	0.13201
1.5449	0.16252
1.3195	0.1015
1.0928	0.20702
0.90434	0.24516
0.74642	0.21211
0.64963	0.15998
0.58341	0.17142
0.54902	0.20829
0.53756	0.15998
0.52228	0.063356
0.49936	0.079884
0.47134	0.0086871
0.42549	-0.015469
0.3529	-0.010384
0.26884	0.035386
0.16569	-0.018012
0.053613	-0.061239
-0.073742	-0.12354
-0.19728	-0.10192
-0.31572	-0.14134
-0.41505	-0.18202
-0.3934	-0.082852
-0.21001	-0.12354
0.12493	-0.12608
0.53501	-0.19092
0.96165	-0.14388
1.3221	-0.17948
1.5972	-0.05361
1.7653	-0.17058
1.8328	-0.12481
1.8124	-0.12989
1.7245	-0.063782
1.5653	-0.063782
1.3692	-0.021826
1.1476	-0.049796
0.92854	0.0086871
0.7426	0.01123
0.60888	0.0023302
0.52992	0.11167
0.50827	0.11167
0.51718	0.17524
0.54138	0.086241
0.57449	0.12565
0.5885	0.24516
0.59487	0.20067
0.5694	0.23626
0.53756	0.19177
0.4828	0.18414
0.41021	0.1549
0.32997	0.073527
0.22554	0.0036016
0.12111	0.11548
0.010312	0.0099585
-0.077562	0.01123
-0.10685	-0.014198
-0.0075173	-0.030726
0.237	-0.05361
0.5885	-0.10319
0.97694	-0.079038
1.3323	-0.10447
1.6201	-0.15786
1.8073	-0.10192
1.9079	-0.15786
1.9181	-0.18583
1.857	-0.058696
1.722	-0.14388
1.5373	-0.16168
1.3068	-0.11082
1.0686	-0.13752
0.8292	-0.13116
0.61652	-0.042168
0.46242	-0.10574
0.38219	-0.072681
0.35035	0.018858
0.35417	-0.049796
0.38346	-0.015469
0.40384	0.0392
0.43313	0.0086871
0.43695	0.067171
0.4344	0.049371
0.41275	0.067171
0.37964	0.09387
0.32361	0.064628
0.26502	0.1638
0.19116	0.16252
0.11347	0.18541
0.044698	0.19177
0.01286	0.19431
0.082905	0.24389
0.27266	0.18922
0.56813	0.15998
0.90816	0.10404
1.2227	-0.01674
1.4876	0.044286
1.6583	0.12057
1.7474	-0.068867
1.7576	-0.05361
1.6876	-0.0014839
1.5564	-0.10828
1.3692	-0.085395
1.145	-0.18456
0.90562	-0.15786
0.6751	-0.17058
0.47388	-0.196
0.33634	-0.19855
0.2421	-0.16041
0.19498	-0.23796
0.18988	-0.14642
0.19752	-0.11209
0.21535	-0.10447
0.23318	-0.087938
0.25356	-0.023097
0.25229	-0.045982
0.25356	0.054457
0.23446	-0.026912
0.1988	-0.01674
0.16314	0.086241
0.10455	0.023944
0.049792	0.11421
0.0052182	0.15617
0.028142	0.16252
0.15804	0.15744
0.41021	0.26678
0.74133	0.20575
1.0954	0.28331
1.4189	0.19939
1.6583	0.18541
1.8238	0.19812
1.8964	0.1727
1.8862	0.17778
1.8098	0.10913
1.6736	0.08497
1.4914	0.09387
1.2813	0.058271
1.0584	0.0036016
0.84576	0.029029
0.65473	0.032843
0.51336	-0.10574
0.41657	-0.048525
0.34908	-0.066324
0.31469	-0.12989
0.29559	-0.14006
0.27012	-0.15278
0.24847	-0.079038
0.21281	-0.13244
0.17587	-0.15024
0.1313	-0.10319
0.075263	-0.17693
0.01286	-0.094295
-0.053365	-0.028183
-0.11577	-0.028183
-0.16671	0.078613
-0.1769	0.004873
-0.11067	0.018858
0.09182	0.12565
0.39238	0.065899
0.75406	0.073527
1.1145	0.16125
1.429	0.12438
1.6532	0.18541
1.7996	0.20702
1.857	0.25025
1.8391	0.24008
1.7474	0.24771
1.6048	0.18032
1.4125	0.25788
1.1985	0.24898
0.98076	0.21846
0.77572	0.25152
0.60124	0.18032
0.47643	0.13837
0.39238	0.072256
0.34526	0.092598
0.31342	0.090055
0.30068	-0.01674
0.29559	-0.038354
0.2854	-0.058696
0.27012	-0.17439
0.23446	-0.077767
0.19116	-0.12481
0.13512	-0.29009
0.068896	-0.096837
-0.0062437	-0.19346
-0.071195	-0.0052981
-0.12468	-0.13116
-0.11322	-0.05361
0.014133	-0.13879
0.26375	-0.14515
0.58341	-0.087938
0.94255	-0.086666
1.2571	-0.070138
1.5055	-0.051068
1.6672	-0.010384
1.7513	-0.011655
1.7538	0.036657
1.6901	0.083698
1.5691	0.1015
1.4061	0.063356
1.2176	0.055728
1.0266	0.17778
0.85595	0.18668
0.71076	0.19049
0.6178	0.26296
0.54648	0.34687
0.51591	0.25279
0.49553	0.22101
0.48535	0.26678
0.47516	0.17015
0.45733	0.20575
0.42167	0.11548
0.37964	0.14091
0.31851	-0.063782
0.25356	0.0392
0.16441	-0.03454
0.081631	-0.018012
-0.0036966	-0.044711
-0.081383	-0.11591
-0.10303	-0.093023
-0.015159	-0.16931
0.18097	-0.19219
0.47261	-0.3206
0.79737	-0.23923
1.1005	-0.23287
1.3386	-0.26593
1.5169	-0.22906
1.5997	-0.20236
1.6188	-0.24177
1.5615	-0.14769
1.4583	-0.049796
1.3182	0.069713
1.1527	-0.031997
0.98585	-0.00021255
0.82156	0.018858
0.68784	0.10785
0.58214	0.16761
0.52101	0.16252
0.48917	0.24389
0.47134	0.27441
0.47006	0.37739
0.46242	0.3189
0.45733	0.26678
0.43568	0.37993
0.40639	0.23626
0.36691	0.23626
0.31978	0.22355
0.25738	0.14218
0.17842	0.049371
0.094367	0.098955
0.021774	0.02013
-0.041903	0.01123
-0.041903	-0.0065694
0.044698	0.004873
0.24974	-0.075224
0.52992	-0.11845
0.84958	-0.13371
1.145	-0.19728
1.3832	-0.31679
1.5386	-0.16931
1.6048	-0.22525
1.6022	-0.15024
1.5373	-0.20618
1.4265	-0.20745
1.2648	-0.12226
1.0877	-0.081581
0.90689	-0.12989
0.74133	-0.047254
0.60761	-0.10065
0.52101	0.0074157
0.47006	0.073527
0.45223	0.074799
0.4395	0.10277
0.44205	0.146
0.43695	0.18795
0.43695	0.25279
0.41785	0.24771
0.39365	0.26551
0.3478	0.27695
0.29177	0.39519
0.23446	0.24389
0.16441	0.24008
0.081631	0.25788
0.0052182	0.11421
-0.063553	0.13583
-0.08393	0.14727
-0.0087908	0.044286
0.17969	-0.024369
0.44714	-0.07141
0.75534	-0.057425
1.0393	-0.095566
1.266	-0.11082
1.4201	-0.14642
1.4927	-0.18711
1.4914	-0.16422
1.4392	-0.15151
1.3233	-0.18583
1.1667	-0.16549
0.98967	-0.12481
0.80119	-0.17439
0.63053	-0.16931
0.48662	-0.12354
0.40002	-0.10319
0.35417	-0.051068
0.3478	-0.09048
0.36691	-0.063782
0.40639	-0.0014839
0.43568	0.035386
0.4586	0.065899
0.46242	0.095141
0.45096	0.1727
0.42804	0.22101
0.3962	0.23245
0.35035	0.27313
0.30195	0.30238
0.2421	0.29093
0.18224	0.32018
0.12366	0.24389
0.09564	0.21719
0.1313	0.20957
0.26502	0.15108
0.50318	0.09387
0.79227	0.13074
1.0941	0.08497
1.3526	0.029029
1.5526	-0.06251
1.6647	-0.0052981
1.7041	-0.12481
1.6812	-0.075224
1.5946	-0.15278
1.4596	-0.196
1.2928	-0.20363
1.0979	-0.24432
0.89543	-0.16931
0.71713	-0.25067
0.56431	-0.18456
0.45223	-0.23542
0.39365	-0.095566
0.35926	-0.065053
0.34526	-0.072681
0.35162	-0.11082
0.36436	-0.023097
0.37073	0.031572
0.36181	0.057
0.33889	0.041743
0.30578	0.079884
0.26375	0.1549
0.20644	0.1193
0.14913	0.15998
0.07399	0.17778
0.0013976	0.22991
-0.073742	0.2922
-0.11832	0.29093
-0.087751	0.27822
0.071443	0.24389
0.32361	0.24644
0.63308	0.23245
0.94637	0.15998
1.2036	0.14218
1.3807	0.12057
1.4762	0.063356
1.4927	0.057
1.4431	0.074799
1.3284	-0.05361
1.182	-0.10701
0.99094	-0.13116
0.78336	-0.15532
0.57704	-0.15405
0.38474	-0.18329
0.22045	-0.17312
0.11984	-0.22779
0.061254	-0.19219
0.043425	-0.19092
0.058707	-0.15405
0.084178	-0.11082
0.11602	-0.14642
0.13385	-0.20745
0.1313	-0.086666
0.11602	-0.019283
0.09182	-0.086666
0.05234	-0.00021255
0.0052182	0.069713
-0.029168	0.098955
-0.068648	0.15108
-0.1094	0.14854
-0.14506	0.25533
-0.15525	0.29348
-0.073742	0.29856
0.12875	0.31255
0.45096	0.32272
0.83939	0.28712
1.2266	0.2922
1.5513	0.19558
1.7946	0.21592
1.9372	0.23372
1.9805	0.11294
1.9525	0.12438
1.8455	0.11675
1.6787	-0.0014839
1.48	0.034115
1.2546	-0.01674
1.019	-0.077767
0.82156	-0.048525
0.65728	-0.047254
0.53884	-0.089209
0.47261	-0.13879
0.43822	-0.17312
0.4344	-0.13879
0.43058	-0.15659
0.43568	-0.19473
0.42549	-0.15278
0.41148	-0.17439
0.38601	-0.14642
0.34398	-0.21635
0.28922	-0.073953
0.23318	-0.054882
0.16314	-0.031997
0.089272	-0.068867
0.020501	0.040472
-0.038082	0.02013
-0.031715	0.060814
0.099461	0.11421
0.36818	0.15871
0.73241	0.18795
1.117	0.23626
1.48	0.33925
1.7602	0.39519
1.9512	0.28203
2.0531	0.25025
2.0645	0.32145
1.992	0.25152
1.857	0.23245
1.6545	0.1282
1.4227	0.15362
1.1654	0.10277
0.92472	0.073527
0.71076	0.018858
0.54775	0.01123
0.44205	-0.030726
0.38601	-0.051068
0.35672	-0.06251
0.34016	-0.14515
0.31978	-0.14134
0.29431	-0.22016
0.25865	-0.15024
0.20771	-0.17312
0.14149	-0.20745
0.063801	-0.20999
-0.016432	-0.17185
-0.10431	-0.12481
-0.19473	-0.067596
-0.27751	-0.11337
-0.34883	-0.066324
-0.38321	-0.033268
-0.30171	0.049371
-0.058459	0.068442
0.31342	0.041743
0.7477	0.08497
1.1692	0.11294
1.5322	0.17524
1.7958	0.20702
1.955	0.19939
2.0149	0.22864
2.0009	0.24898
1.9092	0.30873
1.7614	0.32018
1.5577	0.28712
1.3297	0.25533
1.0916	0.28839
0.87633	0.20702
0.69676	0.16125
0.5694	0.07607
0.48789	0.064628
0.42804	0.083698
0.39492	-0.068867
0.37837	-0.058696
0.35417	-0.07141
0.31978	-0.11972
0.26502	-0.13498
0.20262	-0.19982
0.11984	-0.20109
0.011586	-0.19092
-0.10431	-0.23542
-0.22657	-0.19219
-0.3501	-0.21889
-0.4609	-0.14515
-0.51948	-0.17948
-0.45581	-0.11337
-0.20874	-0.077767
0.17078	-0.012926
0.62416	-0.038354
1.0699	0.0010588
1.4456	0.017587
1.7207	0.058271
1.8901	0.054457
1.9601	0.11548
1.9436	0.14218
1.8506	0.1727
1.6927	0.15235
1.4864	0.17778
1.2635	0.24516
1.0495	0.28331
0.87378	0.33162
0.73751	0.29475
0.6611	0.18795
0.60888	0.23626
0.58723	0.19685
0.58341	0.15108
0.57704	0.046828
0.5694	0.08497
0.54266	0.096412
0.51082	-0.081581
0.45478	-0.026912
0.38856	-0.058696
0.29304	-0.13625
0.19625	-0.096837
0.084178	-0.14515
-0.013885	-0.14769
-0.081383	-0.22779
-0.053365	-0.17185
0.11347	-0.23033
0.40129	-0.18456
0.76171	-0.17821
1.1285	-0.23033
1.4367	-0.15278
1.6685	-0.18075
1.8162	-0.14515
1.8646	-0.094295
1.8404	-0.051068
1.7487	-0.11718
1.5997	0.0392
1.4138	0.034115
1.1998	0.016315
1.0024	0.15617
0.8343	0.21338
0.70949	0.25025
0.63562	0.29729
0.60379	0.32272
0.59487	0.31763
0.59869	0.37993
0.60633	0.37103
0.59614	0.26551
0.57704	0.23118
0.53374	0.20575
0.47516	0.21719
0.37964	0.081156
0.28285	0.10277
0.16951	0.031572
0.054887	-0.035811
-0.043177	-0.030726
-0.10685	0.0392
-0.067374	-0.11464
0.080358	-0.22652
0.34016	-0.24686
0.64836	-0.26847
0.9642	-0.17312
1.2342	-0.2227
1.424	-0.23033
1.5322	-0.13244
1.5679	-0.084124
1.5258	-0.19219
1.4278	-0.086666
1.2826	-0.12608
1.0992	-0.051068
0.90307	-0.057425
0.72095	0.016315
0.57577	0.086241
0.48407	0.058271
0.42804	0.072256
0.41657	0.16125
0.4344	0.18032
0.45733	0.15744
0.48662	0.27313
0.49808	0.24008
0.507	0.25533
0.48153	0.28203
0.44969	0.27695
0.38346	0.27186
0.31596	0.20067
0.21408	0.19685
0.12238	0.15998
0.024321	0.16634
-0.030441	0.10023
0.0026711	0.059542
0.16186	0.067171
0.41148	0.022672
0.71713	-0.02564
1.0164	-0.018012
1.2622	-0.054882
1.4367	-0.11972
1.5182	-0.17821
1.5309	-0.14769
1.4736	-0.09938
1.3654	-0.077767
1.2062	-0.17693
1.0202	-0.23033
0.8152	-0.18456
0.64072	-0.17439
0.5019	-0.18202
0.4153	-0.14261
0.372	-0.10574
0.36691	-0.087938
0.38856	0.059542
0.42676	0.013773
0.46497	0.070985
0.5019	0.070985
0.51718	0.13583
0.51718	0.1282
0.50572	0.23499
0.47006	0.18032
0.43058	0.19939
0.37327	0.26678
0.31469	0.25025
0.25483	0.25533
0.22554	0.23754
0.27521	0.26805
0.42422	0.25915
0.66237	0.15617
0.93109	0.17142
1.1909	0.13583
1.3972	-0.018012
1.5309	0.12057
1.5933	0.067171
1.5717	-0.01674
1.5004	-0.031997
1.3756	-0.040897
1.2062	-0.079038
1.0202	-0.048525
0.82411	-0.15151
0.64199	-0.2049
0.49171	-0.075224
0.39238	-0.17566
0.33507	-0.17948
0.3045	-0.17185
0.29813	-0.18075
0.29813	-0.22652
0.29813	-0.11337
0.29941	-0.039625
0.29559	-0.10701
0.28285	0.0061443
0.2663	-0.03454
0.23955	-0.063782
0.20389	0.08497
0.16314	0.026486
0.12621	0.12057
0.10455	0.14345
0.11984	0.16252
0.21026	0.22864
0.40002	0.21592
0.66619	0.29856
0.96675	0.31763
1.2457	0.29602
1.4673	0.33416
1.6252	0.35069
1.6978	0.27949
1.7003	0.25152
1.6443	0.21211
1.5309	0.11294
1.3641	0.088784
1.1718	0.037929
0.97312	0.012501
0.77317	0.053185
0.59742	-0.06251
0.46497	-0.063782
0.37073	-0.12354
0.31087	-0.12354
0.26884	-0.21762
0.25101	-0.20363
0.23318	-0.21126
0.21917	-0.10701
0.1937	-0.13371
0.16696	-0.15405
0.12875	-0.13625
0.09182	-0.11337
0.047245	-0.14261
0.0090389	-0.14134
-0.036809	-0.06251
-0.057186	0.037929
-0.046997	-0.09048
0.031963	0.090055
0.2179	0.11421
0.4828	0.090055
0.81137	0.12565
1.1298	0.20829
1.4112	0.2922
1.6086	0.31763
1.7283	0.25025
1.7691	0.26932
1.7398	0.25533
1.6506	0.30873
1.5195	0.27441
1.3488	0.26805
1.1603	0.21211
0.97057	0.21592
0.8101	0.20067
0.6802	0.16252
0.58723	0.1104
0.51973	-0.0078408
0.48535	0.026486
0.4586	-0.044711
0.44077	-0.028183
0.42167	-0.03454
0.3962	-0.081581
0.35417	-0.13244
0.31214	-0.14896
0.25738	-0.3028
0.18734	-0.13371
0.11347	-0.17439
0.047245	-0.19346
-0.017706	-0.13371
-0.057186	-0.16041
-0.030441	-0.20618
0.10455	-0.085395
0.33889	-0.076495
0.62671	-0.037083
0.93491	-0.028183
1.2049	0.022672
1.4176	0.044286
1.55	0.15744
1.6099	0.097684
1.5984	0.068442
1.5309	0.20702
1.4227	0.146
1.2724	0.19304
1.0954	0.20067
0.93236	0.23754
0.77954	0.22864
0.67001	0.29602
0.58723	0.27949
0.53756	0.26551
0.51591	0.27695
0.49553	0.23881
0.48153	0.18414
0.45351	0.17015
0.43313	0.074799
0.39238	0.034115
0.34271	0.046828
0.27776	-0.010384
0.21153	-0.018012
0.14021	0.037929
0.067622	-0.066324
-0.0011495	-0.087938
-0.057186	-0.10319
-0.043177	-0.17058
0.067622	-0.14515
0.27139	-0.23033
0.54011	-0.18075
0.8292	-0.19346
1.0966	-0.22525
1.2877	-0.18965
1.4189	-0.12608
1.4825	-0.19982
1.4711	-0.031997
1.4048	0.059542
1.2991	0.040472
1.1527	0.063356
0.98203	0.11803
0.8101	0.072256
0.66619	0.095141
0.54011	0.15998
0.45733	0.18159
0.40766	0.24389
0.37964	0.23754
0.36563	0.21846
0.35035	0.27822
0.34016	0.17905
0.31469	0.25661
0.27394	0.23118
0.23191	0.21719
0.16441	0.22228
0.10073	0.16761
0.015407	0.13964
-0.072468	-0.011655
-0.16034	-0.0014839
-0.24058	0.035386
-0.27242	0.060814
-0.19855	0.012501
-0.011338	-0.020555
0.26757	-0.11082
0.59487	-0.10828
0.91581	-0.10574
1.1909	-0.065053
1.3985	-0.12481
1.5169	-0.12354
1.5589	-0.12226
1.5411	-0.18329
1.4622	-0.16803
1.3437	-0.16422
1.1934	-0.16676
1.0228	-0.11464
0.87633	-0.10955
0.76171	-0.019283
0.6802	-0.054882
0.62926	0.029029
0.61907	0.13964
0.61652	0.1015
0.62926	0.13837
0.6318	0.1727
0.62798	0.23754
0.62034	0.25788
0.59105	0.30238
0.5452	0.23499
0.49171	0.27822
0.42549	0.28712
0.35417	0.26423
0.28413	0.26296
0.22427	0.24135
0.18224	0.17905
0.2179	0.15998
0.35035	0.16761
0.56049	0.063356
0.82156	0.072256
1.0763	0.025215
1.303	-0.011655
1.4532	-0.0014839
1.5373	-0.12989
1.5411	-0.11337
1.4927	-0.073953
1.3794	-0.11972
1.2266	-0.14769
1.0342	-0.196
0.82411	-0.15405
0.61907	-0.16803
0.44332	-0.20745
0.32233	-0.22016
0.24847	-0.13879
0.21663	-0.12608
0.21663	-0.11845
0.237	-0.026912
0.2612	-0.020555
0.28795	0.058271
0.29431	0.045557
0.30578	0.097684
0.28795	0.096412
0.25738	0.16125
0.21408	0.22864
0.15804	0.23754
0.094367	0.23499
0.045972	0.20702
0.023048	0.27441
0.080358	0.29856
0.24337	0.32018
0.49426	0.30238
0.79227	0.22736
1.0801	0.21719
1.317	0.24771
1.4685	0.12565
1.5526	0.14854
1.5526	0.090055
1.4978	0.10277
1.3743	0.0061443
1.2074	-0.0040267
1.0024	-0.029454
0.79227	-0.072681
0.58214	-0.048525
0.41148	-0.073953
0.29177	-0.17693
0.20389	-0.2138
0.15932	-0.19728
0.14149	-0.15659
0.13894	-0.15151
0.13639	-0.098109
0.13257	-0.16295
0.11856	-0.10065
0.093093	-0.14134
0.063801	-0.09938
0.024321	-0.06251
-0.020253	-0.029454
-0.068648	-0.081581
-0.10685	0.013773
-0.14379	0.17651
-0.12214	0.049371
0.0090389	0.18795
0.25101	0.21592
0.57959	0.20575
0.94255	0.25788
1.2762	0.23754
1.5297	0.22482
1.7003	0.24008
1.7818	0.26296
1.7793	0.26551
1.6952	0.15744
1.5551	0.24008
1.3705	0.22991
1.1578	0.19431
0.94764	0.21084
0.75916	0.082427
0.61015	0.095141
0.507	-0.035811
0.4586	-0.0052981
0.44077	0.0392
0.43568	-0.031997
0.44459	-0.082852
0.44459	-0.14006
0.42422	-0.19473
0.3962	-0.18456
0.34653	-0.17185
0.27521	-0.22016
0.1937	-0.13371
0.09182	-0.16803
-0.015159	-0.076495
-0.10813	-0.10192
-0.17435	-0.070138
-0.14888	-0.043439
0.01286	-0.0014839
0.31469	-0.045982
0.69293	0.12311
1.0852	0.074799
1.4405	0.11294
1.7054	0.13583
1.871	0.19177
1.9499	0.20575
1.9397	0.27186
1.8684	0.28203
1.7589	0.23118
1.6035	0.26169
1.4278	0.21846
1.2418	0.26551
1.0674	0.18668
0.92727	0.23754
0.81902	0.19431
0.74642	0.23372
0.6993	0.19685
0.65728	0.11167
0.62926	0.059542
0.58341	-0.044711
0.53501	0.0074157
0.46624	-0.029454
0.3962	-0.10955
0.30195	-0.089209
0.1988	-0.081581
0.087999	-0.15024
-0.029168	-0.17185
-0.12214	-0.21253
-0.16289	-0.15786
-0.08393	-0.20363
0.11347	-0.16931
0.43186	-0.16168
0.77954	-0.13498
1.1145	-0.080309
1.3947	-0.085395
1.587	0.032843
1.6927	-0.076495
1.7207	0.064628
1.6748	0.079884
1.5793	0.092598
1.4265	0.022672
1.2495	0.19304
1.061	0.19685
0.87887	0.26551
0.73751	0.26423
0.63817	0.27186
0.57195	0.17778
0.53629	0.24898
0.51718	0.26169
0.50827	0.18032
0.50063	0.21465
0.47516	0.19558
0.44459	0.18414
0.39747	0.12311
0.32997	0.015044
0.23446	0.067171
0.14149	0.035386
0.03451	0.021401
-0.063553	-0.085395
-0.12341	-0.067596
-0.090298	-0.12226
0.071443	-0.14388
0.33507	-0.12862
0.64836	-0.19855
0.96038	-0.25322
1.2266	-0.2049
1.4125	-0.19219
1.5169	-0.14896
1.5513	-0.19346
1.5106	-0.17312
1.4125	-0.23415
1.2699	-0.12608
1.0992	-0.035811
0.91453	-0.076495
0.76935	-0.02564
0.64963	0.012501
0.59232	0.17778
0.56049	0.025215
0.57322	0.14345
0.59742	0.17015
0.62289	0.16888
0.65091	0.19177
0.64963	0.22609
0.64327	0.31255
0.61397	0.27568
0.55794	0.3011
0.49426	0.27568
0.41021	0.24389
0.31851	0.21974
0.24082	0.21465
0.21281	0.16252
0.27394	0.073527
0.44459	0.043014
0.67893	0.036657
0.94637	-0.020555
1.1909	0.026486
1.3743	-0.020555
1.4902	-0.019283
1.5347	-0.12989
1.5118	-0.072681
1.429	-0.11972
1.3004	-0.19473
1.1234	-0.22143
0.91708	-0.23415
0.72732	-0.077767
0.56176	-0.20999
0.44714	-0.18202
0.38092	-0.17058
0.35544	-0.10828
0.35544	-0.11337
0.36563	-0.087938
0.38983	-0.063782
0.40639	-0.14006
0.40384	-0.037083
0.38856	0.041743
0.35544	-0.033268
0.29559	0.065899
0.24465	0.15871
0.17587	0.14091
0.12238	0.13583
0.086725	0.22101
0.12875	0.22482
0.26247	0.22101
0.48917	0.27822
0.75789	0.29093
1.0292	0.21846
1.2482	0.24135
1.4163	0.17651
1.5029	0.12565
1.5067	0.10658
1.4558	0.12184
1.3475	0.053185
1.2036	0.077342
1.0228	-0.014198
0.83302	-0.015469
0.65345	-0.040897
0.507	-0.042168
0.40257	-0.033268
0.33634	-0.075224
0.31214	-0.14006
0.30578	-0.19092
0.31342	-0.18711
0.32233	-0.19855
0.32997	-0.23287
0.31851	-0.16803
0.29431	-0.14261
0.25611	-0.14261
0.20644	-0.16168
0.1555	-0.11464
0.1071	-0.23033
0.07399	-0.10701
0.082905	-0.040897
0.17842	-0.077767
0.37455	0.013773
0.64327	0.036657
0.92599	0.10658
1.196	0.072256
1.3972	0.12057
1.5322	0.14727
1.5908	0.13964
1.5755	0.23754
1.5055	0.16761
1.3959	0.22991
1.238	0.26551
1.0584	0.29856
0.88779	0.23626
0.73114	0.24135
0.61015	0.24771
0.53374	0.18668
0.48662	0.15617
0.4586	0.1727
0.44841	0.012501
0.43695	0.023944
0.42676	-0.05361
0.39874	-0.052339
0.36309	-0.058696
0.29813	-0.056153
0.23064	-0.11337
0.1555	-0.11082
0.07399	-0.41341
0.010312	0.017587
-0.021526	-0.17948
0.019227	-0.22525
0.14786	-0.098109
0.37582	-0.15024
0.65855	-0.19473
0.93618	-0.15278
1.1731	-0.13244
1.3501	-0.11337
1.4532	0.0010588
1.4889	-0.058696
1.466	-0.07141
1.3832	0.040472
1.2609	-0.047254
1.0941	0.07607
0.92345	0.023944
0.75279	0.040472
0.60761	0.12565
0.507	0.1282
0.44969	0.22228
0.41657	0.20702
0.40639	0.19812
0.40639	0.27186
0.40766	0.27822
0.39874	0.28076
0.37582	0.23754
0.34271	0.24389
0.29559	0.21846
0.24082	0.17397
0.17969	0.12057
0.1122	0.086241
0.059981	0.074799
0.03451	0.030301
0.094367	0.07607
0.24847	-0.028183
0.4828	-0.020555
0.75789	-0.11464
1.0202	-0.11337
1.2355	-0.12226
1.3845	-0.13116
1.4558	-0.18838
1.4571	-0.26847
1.4061	-0.17312
1.3042	-0.14896
1.1641	-0.18583
1.005	-0.16422
0.84194	-0.14515
0.69293	-0.11209
0.58723	-0.10319
0.50954	-0.11718
0.47261	-0.05361
0.4637	-0.052339
0.47006	0.034115
0.4777	0.031572
0.47898	0.088784
0.46752	0.11421
0.45605	0.17142
0.42294	0.24644
0.38092	0.15362
0.3287	0.20829
0.27266	0.25152
0.21408	0.28839
0.17205	0.25915
0.16314	0.23626
0.2421	0.21211
0.40511	0.23118
0.63562	0.24008
0.89925	0.16125
1.1425	0.1104
1.3221	0.088784
1.4456	0.07607
1.494	0.0061443
1.4864	-0.047254
1.4303	-0.00021255
1.3157	0.0086871
1.1705	-0.086666
1.005	-0.10828
0.8292	-0.086666
0.67638	-0.081581
0.55921	-0.12481
0.47516	-0.17948
0.42167	-0.13498
0.39492	-0.13752
0.38728	-0.14515
0.38474	-0.18583
0.38219	-0.14006
0.36309	-0.13752
0.34144	-0.019283
0.3045	-0.15024
0.25611	-0.056153
0.20517	0.01123
0.14786	0.072256
0.084178	0.090055
0.042151	0.049371
0.039604	0.146
0.11729	0.16634
0.30323	0.17905
0.55921	0.14981
0.83939	0.20957
1.1043	0.24389
1.3017	0.22736
1.4431	0.28966
1.5042	0.25915
1.5042	0.13964
1.4354	0.19558
1.3221	0.20702
1.1654	0.19049
0.9884	0.17651
0.80755	0.091327
0.64072	0.013773
0.51209	0.091327
0.43058	-0.011655
0.37964	-0.0027553
0.36563	-0.11591
0.35926	-0.15278
0.36309	-0.15659
0.36945	-0.13752
0.36181	-0.19473
0.34016	-0.20236
0.31087	-0.22779
0.27012	-0.15913
0.21663	-0.20236
0.15804	-0.16803
0.10328	-0.16168
0.058707	-0.14642
0.053613	-0.14134
0.12111	-0.12481
0.29686	-0.039625
0.5452	-0.03454
0.84194	-0.0065694
1.1208	0.004873
1.3488	-0.0078408
1.5004	0.086241
1.5819	0.10913
1.5921	0.15362
1.5411	0.18414
1.4405	0.26805
1.2902	0.33162
1.1247	0.27822
0.94892	0.26805
0.78463	0.26932
0.65855	0.19685
0.5694	0.24262
0.51591	0.24008
0.48025	0.13074
0.46752	0.15108
0.45096	0.081156
0.43695	0.0392
0.4153	0.063356
0.38601	0.0099585
0.33761	-0.058696
0.28285	-0.048525
0.22554	-0.020555
0.15932	-0.077767
0.10201	-0.16041
0.054887	-0.19855
0.059981	-0.16422
0.15677	-0.19473
0.34398	-0.12099
0.59742	-0.18329
0.88397	-0.17948
1.1412	-0.15024
1.3373	-0.14388
1.466	-0.11972
1.522	-0.082852
1.5093	-0.023097
1.4405	-0.024369
1.3246	-0.010384
1.1654	-0.0091122
0.99604	0.013773
0.82156	-0.059967
0.67001	0.090055
0.55284	0.087513
0.47006	0.18922
0.42422	0.23754
0.41403	0.25915
0.40893	0.26932
0.39874	0.18668
0.39874	0.3011
0.38346	0.16252
0.35799	0.18668
0.31214	0.19812
0.25356	0.14854
0.19243	0.14218
0.12366	0.095141
0.05234	0.081156
-0.0062437	-0.0040267
-0.0049702	0.027758
0.085452	0.023944
0.2803	-0.029454
0.55666	-0.082852
0.84958	-0.09938
1.1196	-0.13498
1.3335	-0.15405
1.4736	-0.17821
1.5347	-0.196
1.5309	-0.17821
1.466	-0.20999
1.3475	-0.17439
1.1883	-0.19346
1.0177	-0.20236
0.84321	-0.12989
0.68529	-0.059967
0.56685	-0.045982
0.48662	-0.068867
0.45096	-0.061239
0.4395	-0.042168
0.44587	0.062085
0.45351	0.063356
0.46115	0.08497
0.4586	0.097684
0.44077	0.15108
0.41148	0.13201
0.37327	0.20575
0.31596	0.23881
0.26247	0.2922
0.19625	0.28712
0.15168	0.25279
0.16441	0.24898
0.26502	0.22609
0.44714	0.20067
0.69548	0.19558
0.95656	0.053185
1.1845	0.074799
1.3628	0.030301
1.4685	0.0392
1.5016	0.0036016
1.4749	-0.079038
1.3883	-0.021826
1.2584	-0.068867
1.0992	-0.072681
0.91708	-0.13752
0.74897	-0.2583
0.60124	-0.18965
0.4828	-0.042168
0.41148	-0.18329
0.37073	-0.16803
0.36309	-0.12481
0.36054	-0.22906
0.36563	-0.11845
0.36818	-0.10574
0.36054	-0.03454
0.33889	-0.10701
0.3096	-0.047254
0.25993	-0.10319
0.20517	0.068442
0.14531	0.0010588
0.094367	0.043014
0.070169	0.070985
0.12111	0.19049
0.26375	0.18668
0.49299	0.21846
0.76171	0.24135
1.0381	0.24389
1.2673	0.23372
1.4163	0.18668
1.5042	0.26678
1.5207	0.21719
1.4673	0.24008
1.3577	0.16888
1.2087	0.11803
1.033	0.10913
0.85468	0.067171
0.67765	0.055728
0.53756	0.036657
0.43313	-0.05361
0.38346	-0.066324
0.34908	-0.10574
0.35035	-0.05361
0.35417	-0.12099
0.36436	-0.2227
0.36181	-0.12989
0.34908	-0.25067
0.31851	-0.27229
0.27776	-0.13752
0.22936	-0.21635
0.16951	-0.15151
0.10965	-0.023097
0.065075	-0.15532
0.072716	-0.070138
0.16696	-0.093023
0.35926	-0.075224
0.6178	0.01123
0.91071	0.059542
1.1909	0.054457
1.4048	0.065899
1.5449	0.146
1.6086	0.18668
1.601	0.25788
1.5309	0.30365
1.4112	0.29093
1.2609	0.3011
1.0865	0.29856
0.91708	0.24898
0.7668	0.29602
0.64709	0.15235
0.5694	0.17397
0.52992	0.1282
0.49936	0.13074
0.48789	0.090055
0.48153	0.074799
0.46497	0.0086871
0.44587	-0.047254
0.40766	-0.05361
0.36309	-0.13498
0.30578	-0.11337
0.24337	-0.12608
0.16951	-0.24305
0.11092	-0.19346
0.081631	-0.17439
0.12238	-0.28882
0.25356	-0.20745
0.48153	-0.21889
0.74642	-0.10701
1.0177	-0.14006
1.2495	-0.13752
1.4087	-0.011655
1.5016	-0.029454
1.5195	-0.063782
1.4813	0.13583
1.3857	0.058271
1.2457	0.1104
1.0801	0.23245
0.91326	0.13455
0.75024	0.19812
0.62544	0.29602
0.52992	0.24771
0.48025	0.27568
0.45478	0.29983
0.45096	0.33416
0.44587	0.28839
0.44459	0.27695
0.43822	0.25406
0.41148	0.14981
0.37582	0.14472
0.32361	0.08497
0.26375	0.065899
0.19243	0.040472
0.12875	-0.019283
0.079084	-0.028183
0.082905	-0.073953
0.17205	-0.17821
0.35417	-0.19473
0.59997	-0.24559
