0.75661	0.08497
0.71968	0.095141
0.69293	0.065899
0.65218	0.10277
0.62671	-0.023097
0.59997	0.18922
0.56813	-0.0040267
0.54266	-0.039625
0.51591	0.0036016
0.48662	0.018858
0.46242	-0.02564
0.43822	-0.043439
0.41785	-0.021826
0.40002	0.067171
0.38856	0.11803
0.37709	0.1549
0.36818	0.049371
0.35672	0.1015
0.36054	0.049371
0.35926	0.14091
0.36563	0.12311
0.36691	0.16888
0.37073	0.18287
0.38474	0.17142
0.39238	0.14091
0.39365	0.10913
0.39365	0.12057
0.41275	0.097684
0.4637	0.12184
0.54775	0.31
0.67765	0.0061443
0.80628	0.091327
0.92345	0.35705
1.0228	0.23754
1.0852	0.19049
1.1196	0.21465
1.1399	0.16761
1.1412	0.15998
1.1247	0.12057
1.103	0.10023
1.0661	0.10785
1.0266	-0.13371
0.97948	0.1549
0.92217	0.074799
0.87378	0.12438
0.82156	0.053185
0.78336	0.058271
0.75152	0.11421
0.70949	0.11421
0.68657	0.032843
0.65345	0.074799
0.6369	0.12693
0.60888	0.086241
0.57577	-0.045982
0.55284	0.074799
0.5261	0.08497
0.49808	0.11803
0.48025	0.25533
0.45733	0.20194
0.44459	0.15108
0.43313	0.27186
0.42294	0.33925
0.41021	0.36086
0.40511	0.4346
0.40384	0.28839
0.41021	0.18668
0.40639	0.21974
0.40893	0.083698
0.40257	0.017587
0.41021	-0.0065694
0.44205	0.031572
0.50572	-0.024369
0.61015	-0.11845
0.7235	-0.13879
0.83175	-0.33713
0.92727	-0.11718
0.99731	-0.13371
1.0381	0.15362
1.0546	-0.056153
1.0674	0.046828
1.0546	-0.033268
1.0406	-0.09048
1.0228	0.073527
0.99731	0.21084
0.9642	0.17015
0.92727	0.23881
0.88651	0.29475
0.85213	0.36849
0.80755	0.29856
0.77444	0.31636
0.7426	0.38502
0.70694	0.34179
0.68275	0.26042
0.65473	0.32526
0.62544	0.27949
0.59232	0.15617
0.56049	0.22101
0.53756	0.12184
0.50318	0.12184
0.46879	0.14981
0.44077	-0.0078408
0.42422	-0.17948
0.40129	0.051914
0.38601	-0.067596
0.37327	-0.0078408
0.36054	-0.084124
0.34908	-0.14388
0.34653	-0.18202
0.34653	-0.06251
0.35799	-0.14261
0.3911	-0.17312
0.46497	-0.09938
0.57322	0.022672
0.70058	0.079884
0.83175	0.20321
0.93618	0.0481
1.0241	0.15744
1.0826	0.072256
1.1094	0.20957
1.1349	0.15617
1.1158	0.13583
1.0903	0.19812
1.0495	0.30746
1.0024	0.28331
0.94892	0.25406
0.88906	0.38374
0.83939	0.33925
0.78463	0.28585
0.73751	0.42189
0.69548	0.26551
0.66874	0.15998
0.64709	0.18032
0.62544	0.060814
0.60506	0.090055
0.58214	-0.13752
0.55412	0.026486
0.52865	0.0086871
0.50445	-0.082852
0.47261	0.063356
0.44459	-0.10447
0.41785	0.11548
0.40384	-0.057425
0.38219	-0.12481
0.36563	-0.23923
0.35672	-0.12481
0.33761	-0.084124
0.33125	-0.13498
0.32233	-0.026912
0.32615	-0.084124
0.33252	0.09387
0.33634	0.027758
0.35162	0.146
0.36436	0.18032
0.38346	0.24644
0.40639	0.18668
0.43058	0.23881
0.43822	0.28076
0.44587	0.24898
0.46752	0.16761
0.52865	0.22101
0.63562	0.17397
0.76807	0.28458
0.90816	0.24771
1.0151	0.26169
1.1017	0.22736
1.1501	0.22864
1.182	0.046828
1.1807	-0.049796
1.1692	0.078613
1.145	0.064628
1.1119	0.08497
1.0661	-0.13498
1.01	-0.10447
0.95656	-0.098109
0.90307	-0.374
0.85213	-0.20999
0.80373	-0.14388
0.76553	-0.021826
0.73114	0.0010588
0.6993	-0.021826
0.69039	-0.091752
0.656	-0.077767
0.64072	-0.037083
0.62798	-0.010384
0.61015	0.15235
0.59869	0.21719
0.59232	0.17524
0.57449	0.17142
0.5503	0.16252
0.52228	0.17524
0.50572	0.22609
0.47898	0.13328
0.46242	0.33289
0.44077	0.28839
0.42167	0.3189
0.39492	0.32526
0.3911	0.31382
0.38219	0.25915
0.38092	0.18541
0.37709	0.22101
0.37455	0.16634
0.37073	0.059542
0.38346	0.037929
0.40257	0.045557
0.47261	0.10785
0.56813	0.016315
0.69676	-0.0065694
0.81647	-0.014198
0.91708	-0.14896
0.99604	-0.16041
1.0432	-0.29263
1.0699	-0.06251
1.0737	-0.15659
1.0597	-0.098109
1.0368	-0.030726
0.99094	-0.0078408
0.96165	-0.0014839
0.91708	-0.066324
0.88142	0.079884
0.84449	0.090055
0.81902	0.077342
0.80501	0.07607
0.78336	0.21974
0.77826	0.07607
0.7668	0.13328
0.7426	0.28203
0.7235	0.22991
0.70058	0.23372
0.66492	0.4079
0.64072	0.20067
0.60633	0.28839
0.5694	0.34815
0.53374	0.27822
0.49681	0.23499
0.47006	0.28712
0.44587	0.24008
0.4204	0.19685
0.41148	0.21084
0.38601	0.09387
0.37582	0.1371
0.36563	0.078613
0.36309	-0.049796
0.37455	0.12438
0.41021	0.012501
0.48407	-0.059967
0.59742	-0.06251
0.71204	-0.09048
0.82793	-0.14388
0.91963	-0.10319
0.97821	-0.15405
1.0202	-0.10828
1.033	-0.10701
1.0381	-0.31043
1.0215	-0.018012
1.0037	0.045557
0.97821	0.11548
0.94637	0.15235
0.91071	0.12565
0.88142	0.074799
0.84194	0.12311
0.79991	0.21846
0.76935	0.21974
0.74133	0.27186
0.71713	0.24516
0.68911	0.16888
0.66492	0.21211
0.63435	0.23881
0.59997	0.22609
0.58086	0.22864
0.54266	0.24135
0.51336	0.24389
0.48789	0.1549
0.45478	0.11803
0.42422	0.095141
0.39747	0.092598
0.38219	-0.0040267
0.36691	-0.035811
0.35544	-0.044711
0.34526	-0.047254
0.34016	-0.080309
0.32743	-0.11591
0.32488	0.012501
0.32488	-0.09938
0.31851	-0.06251
0.32615	-0.082852
0.33125	-0.076495
0.32997	-0.021826
0.33889	0.037929
0.35672	0.13964
0.37709	0.12693
0.41403	0.11548
0.48153	0.13201
0.59487	0.18032
0.74897	0.22101
0.90434	0.3901
1.0533	0.3189
1.1603	0.24771
1.2266	0.27568
1.2635	0.22355
1.266	0.29729
1.2469	0.14091
1.2253	0.31636
1.1807	0.31255
1.1259	0.1193
1.0699	0.19049
1.0139	0.10531
0.95911	0.14091
0.8967	0.10913
0.84576	0.053185
0.79864	0.069713
0.75916	-0.045982
0.72987	-0.056153
0.69293	0.02013
0.66874	-0.087938
0.64072	-0.14388
0.61397	-0.042168
0.58596	-0.11209
0.56303	-0.12481
0.53119	-0.20618
0.51591	-0.05361
0.49299	0.068442
0.47898	0.20702
0.46115	0.025215
0.4586	0.063356
0.45478	-0.018012
0.45096	0.17524
0.44841	0.24389
0.44714	0.15617
0.44205	0.15998
0.43568	0.21211
0.42676	0.24516
0.42167	0.25152
0.41275	0.30365
0.41148	0.27822
0.40639	0.26042
0.43568	0.2922
0.51082	0.30238
0.62162	0.24389
0.74897	0.18795
0.86996	0.012501
0.97184	0.1104
1.0483	0.064628
1.0903	-0.044711
1.1107	0.12565
1.1068	-0.043439
1.0839	0.030301
1.0483	-0.085395
1.0011	-0.12989
0.95656	-0.10828
0.9018	-0.2316
0.85213	-0.15024
0.81647	-0.024369
0.77444	-0.024369
0.74388	-0.00021255
0.72223	0.023944
0.71204	0.09387
0.6993	0.054457
0.69293	0.16252
0.68657	0.1193
0.68275	0.20448
0.6802	0.30365
0.65345	0.2922
0.62926	0.26042
0.58723	0.10023
0.56303	0.38502
0.52865	0.25152
0.50318	0.36722
0.4637	0.36976
0.4395	0.33416
0.4153	0.29602
0.39238	0.23881
0.38474	0.1638
0.37455	0.10531
0.38983	0.13074
0.44077	0.091327
0.53247	0.012501
0.65728	-0.045982
0.77444	-0.051068
0.88269	0.031572
0.96547	-0.07141
1.0151	-0.085395
1.0419	-0.096837
1.0495	-0.11337
1.0368	-0.15151
1.0151	-0.081581
0.9833	0.041743
0.94637	-0.019283
0.91071	-0.091752
0.87123	-0.00021255
0.83048	0.036657
0.80755	0.19812
0.78081	0.19431
0.76043	0.17524
0.74006	0.30873
0.72223	0.28203
0.70312	0.25533
0.68402	0.18922
0.656	0.24389
0.62416	0.31255
0.58978	0.25661
0.55412	0.23626
0.52865	0.27949
0.49808	0.049371
0.4637	0.19431
0.43186	0.18287
0.40129	0.087513
0.38092	0.043014
0.35799	0.14981
0.34016	-0.042168
0.31851	0.035386
0.31469	0.013773
0.30323	-0.093023
0.30323	-0.065053
0.30832	-0.073953
0.31978	-0.25067
0.32233	-0.040897
0.34144	0.013773
0.38983	-0.068867
0.49299	-0.031997
0.62798	-0.11209
0.77699	0.0099585
0.91708	0.09387
1.0368	0.025215
1.117	0.14981
1.1794	0.17142
1.2113	0.19685
1.2215	0.065899
1.2113	0.16252
1.1896	0.20957
1.1578	0.35705
1.0992	0.31
1.0457	0.27822
0.98712	0.48545
0.92217	0.32018
0.87505	0.27568
0.82666	0.42824
0.78336	0.23881
0.73751	0.22609
0.70694	0.39646
0.67765	0.23881
0.64581	0.21465
0.62034	0.1015
0.58978	0.14345
0.55666	-0.048525
0.52865	0.062085
0.49553	-0.098109
0.47261	-0.15659
0.45096	-0.16803
0.42294	-0.2316
0.40639	-0.13879
0.39238	-0.19219
0.38092	-0.14388
0.38474	-0.018012
0.38983	-0.12735
0.3962	-0.0014839
0.41275	0.15108
0.43822	0.22736
0.4777	0.3545
0.56813	0.32653
0.67893	0.20575
0.79864	0.26042
0.90816	0.36722
0.9833	0.39137
1.047	0.37103
1.0788	0.42951
1.0877	0.31128
1.0916	0.21338
1.0648	0.11421
1.0432	-0.080309
1.0011	-0.15532
0.96675	-0.20745
0.91071	-0.18711
0.84576	-0.21253
0.78845	-0.14388
0.73624	-0.17948
0.68657	-0.30153
0.65091	-0.18456
0.62926	-0.18329
0.60506	-0.010384
0.59487	0.20829
0.59487	0.28585
0.5936	0.20194
0.5885	0.4435
0.58468	0.49563
0.57449	0.32399
0.55921	0.44477
0.53501	0.5325
0.51464	0.65963
0.49681	0.45113
0.47516	0.30238
0.45733	-0.0065694
0.43695	-0.043439
0.4153	-0.23033
0.39874	-0.39434
0.40257	-0.43375
0.43822	-0.41595
0.50827	-0.29644
0.60888	-0.15913
0.72477	-0.26212
0.81137	-0.16422
0.89161	-0.094295
0.95783	-0.023097
0.99604	0.023944
1.0151	0.25788
1.0304	0.3189
1.0419	0.30365
1.0304	0.42189
1.0075	0.51215
0.97312	0.46257
0.92727	0.52741
0.8776	0.47655
0.83175	0.50325
0.78081	0.28458
0.74133	0.26805
0.69166	0.10404
0.65728	-0.16168
0.6178	-0.30534
0.58596	-0.19346
0.55666	-0.27229
0.52483	-0.23669
0.50572	-0.22525
0.47134	-0.19982
0.45733	-0.3473
0.43568	-0.13879
0.42549	-0.068867
0.41403	0.19939
0.4204	0.42951
0.43313	0.36849
0.44077	0.40154
0.45351	0.5147
0.46242	0.57572
0.47516	0.61132
0.51336	0.58844
0.59105	0.50198
0.69166	0.29348
0.80883	0.25025
0.89543	-0.011655
0.96929	-0.29009
1.0088	-0.2761
1.0279	-0.37908
1.0228	-0.26847
1.0037	-0.2316
0.98076	-0.23669
0.95146	-0.32314
0.91326	-0.22779
0.86996	-0.066324
0.83175	0.017587
0.80501	0.27822
0.77444	0.28585
0.76298	0.64819
0.74515	0.61386
0.73369	0.49181
0.72605	0.52868
0.70822	0.67489
0.70058	0.55157
0.67893	0.36213
0.64836	0.3545
0.61525	0.004873
0.57067	-0.033268
0.53119	-0.3918
0.47516	-0.26085
0.42167	-0.3384
0.37837	-0.25576
0.34908	-0.32187
0.32361	-0.33459
0.31724	-0.24559
0.3096	-0.2672
0.31469	-0.25449
0.31724	0.11548
0.32997	0.29602
0.3529	0.41299
0.39492	0.42316
0.4777	0.46638
0.57959	0.59479
0.70058	0.51597
0.81774	0.51342
0.92345	0.4346
1.0037	0.51215
1.0483	0.36976
1.0648	0.36594
1.0623	0.070985
1.0457	0.0036016
1.0075	-0.15278
0.96038	-0.19855
0.91071	-0.32823
0.84831	-0.3384
0.78972	-0.33967
0.74515	-0.18202
0.70185	-0.25703
0.66237	-0.27102
0.63308	-0.15405
0.61652	-0.063782
0.60379	0.0010588
0.61143	0.20702
0.61907	0.26678
0.62544	0.34815
0.62798	0.39646
0.61907	0.3812
0.60888	0.49563
0.58978	0.50834
0.56813	0.36722
0.54266	0.51215
0.52355	0.40154
0.49936	0.4079
0.48025	0.28203
0.44332	0.096412
0.43313	-0.16295
0.41275	-0.17566
0.40002	-0.34348
0.38728	-0.28754
0.40129	-0.33967
0.44587	-0.25067
0.52737	-0.11464
0.6318	-0.28373
0.73114	-0.19855
0.82411	-0.18329
0.89925	0.004873
0.94764	0.09387
0.98585	0.14727
1.0062	0.31128
1.0126	0.43841
1.0062	0.54394
0.97694	0.55665
0.94764	0.56174
0.91326	0.52995
0.86996	0.62912
0.83048	0.50961
0.79227	0.28966
0.74897	0.26932
0.71204	-0.09048
0.67383	-0.21635
0.63308	-0.31424
0.59869	-0.30026
0.56558	-0.285
0.52865	-0.41341
0.49681	-0.27356
0.46752	-0.14388
0.44714	-0.11845
0.43058	-0.10574
0.41403	0.07607
0.40639	0.12438
0.40766	0.21719
0.4153	0.30873
0.41403	0.41044
0.43313	0.48545
0.44077	0.67362
0.4395	0.7588
0.43695	0.63802
0.43822	0.54267
0.43186	0.47655
0.44714	0.3278
0.48535	0.25788
0.55666	0.012501
0.6611	-0.26085
0.76425	-0.39943
0.85213	-0.4363
0.91708	-0.3918
0.95656	-0.42231
0.97566	-0.3295
0.97821	-0.22525
0.97312	-0.095566
0.95656	-0.093023
0.9451	0.041743
0.91581	0.24389
0.88779	0.32018
0.86232	0.47274
0.83685	0.45876
0.80883	0.39137
0.78463	0.59225
0.75916	0.60115
0.73241	0.55665
0.70694	0.51851
0.68402	0.2922
0.6611	0.16761
0.6318	-0.029454
0.60379	-0.20109
0.56685	-0.24177
0.53119	-0.44392
0.49299	-0.37908
0.4586	-0.54563
0.42804	-0.36256
0.40129	-0.22398
0.39238	-0.059967
0.37582	-0.075224
0.36563	0.079884
0.372	0.079884
0.38346	0.36976
0.39492	0.41553
0.40766	0.54521
0.41657	0.50707
0.43058	0.60369
0.42804	0.61386
0.43058	0.56301
0.4153	0.4791
0.40766	0.35959
0.38856	0.22991
0.37582	0.098955
0.39238	-0.28119
0.45478	-0.33713
0.55794	-0.46935
0.66874	-0.4185
0.791	-0.41977
0.89033	-0.30026
0.96675	-0.2227
1.0228	-0.23923
1.0521	-0.15405
1.061	-0.0040267
1.075	0.16634
1.075	0.25152
1.0712	0.19431
1.0483	0.3011
1.0177	0.30746
0.9833	0.39773
0.93109	0.55157
0.89033	0.57191
0.84831	0.62149
0.79864	0.52614
0.75279	0.46893
0.71968	0.43079
0.67256	0.21974
0.64199	0.040472
0.6178	-0.21253
0.58596	-0.28373
0.55157	-0.47062
0.51336	-0.6537
0.47643	-0.44392
0.45351	-0.34221
0.43186	-0.22016
0.41021	-0.12735
0.39365	-0.096837
0.3962	0.10658
0.40002	0.23754
0.41403	0.4168
0.42422	0.45876
0.44969	0.5414
0.46242	0.61259
0.46624	0.65709
0.47388	0.62658
0.48025	0.50961
0.50954	0.34179
0.54648	0.26932
0.62798	0.12947
0.71076	-0.17566
0.79482	-0.18965
0.86359	-0.31551
0.90944	-0.3206
0.93491	-0.51512
0.95019	-0.48842
0.95019	-0.30026
0.95019	-0.23796
0.93618	-0.12354
0.93364	0.041743
0.90944	0.078613
0.89033	0.30873
0.86741	0.58335
0.84194	0.42443
0.82666	0.53631
0.80755	0.64056
0.78718	0.69015
0.77444	0.62912
0.75152	0.56809
0.74133	0.55284
0.71586	0.29348
0.69293	-0.012926
0.65982	0.0036016
0.62671	-0.22525
0.58341	-0.41087
0.53756	-0.43248
0.50572	-0.54436
0.48662	-0.52275
0.45733	-0.33331
0.4395	-0.27356
0.42422	-0.068867
0.42676	-0.010384
0.42167	0.082427
0.42931	0.38374
0.44969	0.30873
0.47134	0.38629
0.52737	0.4079
0.59232	0.51215
0.6993	0.62658
0.79482	0.77914
0.89033	0.59861
0.95911	0.49308
1.0113	0.20957
1.0279	-0.0065694
1.0279	-0.079038
1.0151	-0.19855
0.98203	-0.31551
0.94637	-0.22906
0.90689	-0.3028
0.85977	-0.32314
0.81902	-0.41468
0.77826	-0.41722
0.74388	-0.16295
0.71204	-0.076495
0.68657	0.25915
0.67256	0.22355
0.66619	0.2922
0.66492	0.42697
0.65218	0.5325
0.63945	0.57064
0.62798	0.4079
0.61015	0.66853
0.58341	0.50325
0.54648	0.20067
0.52355	0.13837
0.48789	-0.00021255
0.44841	-0.374
0.41148	-0.26212
0.38219	-0.40451
0.36691	-0.33967
0.35799	-0.51766
0.35926	-0.39815
0.35799	-0.38035
0.36563	-0.15786
0.37455	-0.12862
0.40002	-0.056153
0.40384	0.24262
0.43058	0.28712
0.43822	0.36722
0.45096	0.40409
0.4586	0.50071
0.46115	0.55665
0.4777	0.42951
0.51846	0.56682
0.60124	0.55284
0.70822	0.40536
0.81392	0.1371
0.8967	0.034115
0.96675	-0.12481
1.0062	-0.26212
1.0215	-0.43502
1.0241	-0.41595
1.0139	-0.32187
0.99859	-0.3918
0.97821	-0.32441
0.95019	-0.22143
0.90689	-0.20363
0.88906	-0.026912
0.86996	0.10023
0.84449	0.20067
0.84321	0.28585
0.83048	0.45113
0.81902	0.4613
0.80883	0.46893
0.79354	0.58716
0.7668	0.59225
0.75534	0.59352
0.72732	0.44986
0.69548	0.36086
0.65982	0.08497
0.6178	-0.10701
0.57195	-0.35366
0.53756	-0.49732
0.51209	-0.44392
0.49553	-0.25703
0.4777	-0.30789
0.47643	-0.26339
0.45988	-0.10955
0.45223	-0.14261
0.44714	0.17142
0.44459	0.28839
0.42931	0.62658
0.45478	0.67998
0.507	0.52487
0.60379	0.78169
0.71076	0.61514
0.82029	0.30238
0.91835	0.35323
0.98458	0.081156
1.0215	-0.23033
1.0279	-0.41595
1.0126	-0.44265
0.97948	-0.64734
0.95019	-0.46299
0.9209	-0.39815
0.88269	-0.2583
0.8534	-0.18965
0.82156	-0.052339
0.78845	-0.20363
0.76043	0.16252
0.7426	0.44477
0.7235	0.5325
0.71076	0.72702
0.70567	0.67616
0.6993	0.66472
0.68275	0.58081
0.67128	0.50961
0.64709	0.25661
0.62034	0.29093
0.57704	0.09387
0.52865	-0.20745
0.49044	-0.37146
0.46115	-0.51258
0.4395	-0.627
0.4204	-0.627
0.4153	-0.42104
0.4153	-0.29136
0.41021	-0.098109
0.41148	0.098955
0.41785	0.29348
0.42931	0.39519
0.44205	0.44223
0.44714	0.58971
0.4637	0.57572
0.4586	0.66726
0.45605	0.70159
0.47643	0.64819
0.52737	0.41934
0.6178	0.086241
0.7235	-0.039625
0.83175	-0.31424
0.92217	-0.3651
0.99222	-0.47189
1.0381	-0.50241
1.0584	-0.4007
1.0661	-0.39307
1.0559	-0.16549
1.0381	-0.15786
1.0139	0.15108
0.97312	0.27822
0.94637	0.5147
0.90562	0.50325
0.86614	0.56937
0.83175	0.53758
0.79609	0.64438
0.76807	0.62149
0.74642	0.56555
0.72477	0.30619
0.69803	0.19304
0.67001	0.087513
0.63435	-0.19473
0.60124	-0.32441
0.57449	-0.46935
0.54393	-0.41595
0.51846	-0.44392
0.50318	-0.3829
0.49171	-0.28119
0.4777	-0.14006
0.47261	0.037929
0.45096	0.072256
0.4586	0.25915
0.4586	0.25279
0.45096	0.45748
0.45351	0.58589
0.44841	0.54648
0.43822	0.53631
0.45096	0.56174
0.48407	0.51724
0.55794	0.32272
0.66364	0.20957
0.76043	0.035386
0.86359	-0.067596
0.92854	-0.23415
0.97312	-0.25957
1.0075	-0.42612
1.0062	-0.51894
0.99477	-0.44647
0.97948	-0.31806
0.95911	-0.26974
0.92727	-0.13498
0.89288	0.15108
0.86359	0.25025
0.8292	0.45367
0.80755	0.52105
0.77317	0.67362
0.75152	0.80076
0.73624	0.95332
0.72095	0.66345
0.70822	0.48291
0.68911	0.3189
0.67256	-0.17185
0.64963	-0.22779
0.61397	-0.41341
0.57704	-0.34857
0.54011	-0.30026
0.51718	-0.47189
0.507	-0.35874
0.49299	-0.10955
0.47516	-0.14134
0.47261	0.015044
0.46242	0.027758
0.45223	0.33289
0.44587	0.52105
0.43568	0.58462
0.44205	0.69142
0.46115	0.71685
0.51718	0.73592
0.6127	0.60624
0.70949	0.399
0.81265	0.17524
0.89543	-0.0052981
0.96038	-0.41214
0.98458	-0.46427
0.99094	-0.54563
0.98585	-0.49478
0.96675	-0.38163
0.95656	-0.34476
0.93873	-0.23033
0.9209	-0.15151
0.87633	0.035386
0.84321	0.26805
0.81265	0.40536
0.77317	0.39519
0.75279	0.56301
0.72987	0.78296
0.71586	0.69905
0.68657	0.73592
0.67128	0.67362
0.656	0.44477
0.62798	0.30365
0.60251	0.029029
0.56813	-0.10319
0.53374	-0.28754
0.50063	-0.34603
0.47261	-0.42612
0.44841	-0.44011
0.4344	-0.45409
0.43313	-0.14896
0.4204	-0.16295
0.42294	0.044286
0.42804	-0.0065694
0.4204	0.19685
0.41912	0.34052
0.43058	0.399
0.44077	0.50961
0.50954	0.67489
0.59614	0.63548
0.71586	0.62912
0.82284	0.66472
0.9209	0.50453
0.9833	0.35832
1.0304	0.0086871
1.0381	-0.077767
1.0368	-0.32314
1.0088	-0.36256
0.97694	-0.49986
0.94637	-0.46045
0.91326	-0.2939
0.87123	-0.43502
0.84067	-0.20872
0.80246	-0.15024
0.77444	-0.076495
0.7477	0.20829
0.72859	0.33416
0.71204	0.48037
0.70822	0.5325
0.68911	0.5414
0.67893	0.63166
0.65855	0.61132
0.64454	0.55284
0.61652	0.4079
0.58978	0.35069
0.55157	0.22101
0.51209	0.13201
0.47261	-0.098109
0.4395	-0.60157
0.41785	-0.64989
0.39492	-0.46299
0.38219	-0.4185
0.37455	-0.2494
0.37837	-0.20618
0.38601	-0.039625
0.40766	0.025215
0.43822	0.17651
0.51082	0.32272
0.62416	0.49817
0.74133	0.61768
0.86232	0.59606
0.94382	0.51724
1.0177	0.50325
1.0533	0.48545
1.0775	0.58335
1.0674	0.4168
1.0495	0.20448
1.0075	-0.0014839
0.95783	-0.11337
0.9018	-0.40197
0.85085	-0.19473
0.79737	-0.36383
0.75916	-0.46045
0.72477	-0.27737
0.69548	-0.24813
0.67893	-0.24559
0.65091	-0.087938
0.65345	0.054457
0.64836	0.26296
0.6611	0.34687
0.65091	0.42316
0.64072	0.53758
0.63562	0.57827
0.61015	0.47147
0.59869	0.43333
0.57067	0.51851
0.54393	0.56937
0.51464	0.52487
0.48662	0.42951
0.44841	0.12311
0.4204	0.02013
0.41148	-0.24686
0.41657	-0.29772
0.46752	-0.39688
0.55284	-0.3473
0.65982	-0.29899
0.76935	-0.31679
0.85977	-0.18456
0.92599	-0.16041
0.97566	0.098955
0.99986	0.0481
1.0126	0.22482
1.0113	0.20829
0.99731	0.40027
0.97821	0.48164
0.95401	0.5236
0.90689	0.58462
0.8725	0.54648
0.82793	0.51088
0.77954	0.5414
0.73624	0.34433
0.69293	0.28839
0.64836	0.02013
0.60888	-0.02564
0.57959	-0.21635
0.55412	-0.48079
0.53247	-0.38163
0.52101	-0.44265
0.51973	-0.50241
0.49808	-0.36764
0.4828	-0.3206
0.46752	-0.19982
0.4586	-0.0091122
0.45478	0.19812
0.45478	0.15744
0.44969	0.35577
0.44459	0.46893
0.4344	0.45113
0.44332	0.52614
0.45478	0.57572
0.49553	0.57318
0.57577	0.4969
0.67256	0.42061
0.77317	0.39646
0.8585	0.10785
0.91326	-0.12862
0.96038	-0.18075
0.96547	-0.14515
0.9642	-0.19982
0.95656	-0.3473
0.94892	-0.3028
0.92472	-0.28246
0.90052	-0.35493
0.8585	-0.25576
0.81774	-0.026912
0.77954	0.046828
0.75661	0.3011
0.73496	0.32018
0.71204	0.43333
0.70185	0.49435
0.68529	0.46003
0.67128	0.48164
0.66492	0.48418
0.64454	0.57827
0.62544	0.39519
0.5936	0.31509
0.56049	0.23372
0.52228	-0.10955
0.48789	-0.11209
0.45605	-0.38035
0.42676	-0.18965
0.40639	-0.38417
0.39747	-0.35366
0.38856	-0.21253
0.38983	-0.24813
0.38983	0.062085
0.38728	0.0023302
0.40129	0.087513
0.40384	0.043014
0.41912	0.13074
0.42422	0.31763
0.42931	0.40536
0.4344	0.49944
0.46879	0.49181
0.53247	0.48673
0.63308	0.43841
0.75152	0.47274
0.85977	0.40027
0.93364	0.35196
0.99859	0.1638
1.0266	0.16507
1.0317	0.086241
1.0228	-0.14769
0.99731	-0.25195
0.97439	-0.14388
0.94892	-0.2049
0.91453	-0.087938
0.88397	-0.16422
0.84321	-0.16168
0.80246	-0.12481
0.77317	-0.15659
0.74515	-0.0091122
0.72223	0.16507
0.70058	0.33797
0.70694	0.25406
0.68784	0.41171
0.67638	0.38629
0.67001	0.44477
0.65855	0.48037
0.63945	0.47528
0.61652	0.3723
0.59487	0.49054
0.57322	0.26296
0.54011	0.34687
0.51209	0.19431
0.49171	0.0392
0.46115	-0.049796
0.4344	0.041743
0.41148	-0.11082
0.39365	-0.15532
0.37455	-0.25322
0.36563	-0.25067
0.3529	-0.30153
0.33889	-0.29263
0.34526	-0.20999
0.37455	-0.12735
0.44714	0.045557
0.55539	0.33925
0.67893	0.37739
0.80501	0.39519
0.90562	0.59606
0.98712	0.50961
1.0406	0.51597
1.0712	0.46893
1.0661	0.38883
1.0546	0.29348
1.0304	0.31255
0.99731	0.22101
0.95783	0.07607
0.91581	-0.054882
0.86232	-0.12989
0.80628	-0.2583
0.76553	-0.3117
0.71713	-0.27992
0.6802	-0.42994
0.64072	-0.12735
0.62034	-0.098109
0.59742	-0.066324
0.56431	-0.031997
0.54775	0.15871
0.53374	0.26423
0.52101	0.36849
0.5019	0.46511
0.48662	0.51597
0.48153	0.33289
0.46242	0.48037
0.45733	0.5414
0.44969	0.22228
0.44459	0.095141
0.43313	0.012501
0.43186	-0.0091122
0.4204	-0.072681
0.41403	-0.085395
0.41912	-0.28373
0.44841	-0.45537
0.52355	-0.085395
0.63945	-0.27992
0.75789	-0.16931
0.87633	-0.093023
0.97694	0.057
1.0572	0.3545
1.1005	0.55919
1.1234	0.39392
1.117	0.49308
1.1043	0.46638
1.0788	0.43206
1.0368	0.17142
0.9833	0.14472
0.94128	-0.0065694
0.89161	0.02013
0.84958	-0.0014839
0.8101	-0.11972
0.77317	-0.12354
0.7426	-0.2316
0.72477	-0.14642
0.70822	-0.02564
0.6802	-0.056153
0.65855	0.09387
0.63945	0.12311
0.61015	0.16888
0.58341	0.23372
0.55666	0.27949
0.52101	0.26932
0.48789	0.59225
0.46624	0.53758
0.43186	0.46003
0.40129	0.37484
0.38856	0.24262
0.37709	0.096412
0.35417	-0.11337
0.35417	-0.26085
0.35926	-0.36637
0.36054	-0.22016
0.35544	-0.39815
0.35926	-0.38925
0.36691	-0.3117
0.36436	-0.070138
0.36563	0.13583
0.36309	0.17651
0.37455	0.41934
0.41403	0.47783
0.49299	0.55284
0.61652	0.4791
0.74897	0.38502
0.8725	0.30873
0.97184	0.3367
1.0521	0.21719
1.1043	0.026486
1.1387	0.040472
1.1489	0.055728
1.1399	0.07607
1.1094	-0.070138
1.0725	-0.16676
1.0279	-0.13625
0.97439	-0.047254
0.91453	0.013773
0.86104	-0.10319
0.81902	-0.10447
0.77317	-0.17821
0.71586	-0.026912
0.69676	0.0086871
0.6611	0.18287
0.63817	0.29348
0.62034	0.35705
0.60888	0.3634
0.57322	0.37103
0.56176	0.46511
0.52992	0.41171
0.49936	0.39773
0.44459	0.29729
0.40129	-0.0014839
0.35162	-0.13116
0.3045	-0.14261
0.25993	-0.23923
0.23191	-0.14896
0.18734	-0.21762
0.16569	-0.15278
0.13257	-0.13244
0.12621	-0.079038
0.11729	-0.018012
0.12111	0.11675
0.12238	0.21338
0.14658	0.32653
0.19625	0.20829
0.29177	0.38629
0.44205	0.39519
0.61907	0.52232
0.78208	0.38502
0.93491	0.32018
1.0495	0.25025
1.1145	0.072256
1.1387	0.0481
1.1285	0.26296
1.0954	0.19304
1.0393	0.13455
0.97439	0.015044
0.89161	-0.15405
0.80246	-0.29644
0.72095	-0.31806
0.64327	-0.16422
0.57195	-0.2405
0.51082	0.068442
0.4637	0.049371
0.42931	0.31382
0.40639	0.56428
0.39492	0.54648
0.39238	0.61386
0.39365	0.57445
0.40384	0.52741
0.41403	0.28712
0.4204	0.18922
0.4153	0.19431
0.41657	-0.0091122
0.41148	-0.17185
0.3911	-0.27102
0.36563	-0.32696
0.33761	-0.24432
0.31214	-0.25067
0.28413	-0.31043
0.26884	-0.26593
0.24847	-0.12862
0.24082	-0.10447
0.24592	0.082427
0.25738	0.21719
0.3045	0.22101
0.3962	0.42824
0.54266	0.53885
0.73496	0.56428
0.93618	0.74482
1.1196	0.64565
1.2711	0.49817
1.3807	0.36594
1.4367	0.21465
1.4571	0.017587
1.4278	-0.25576
1.387	-0.26466
1.3182	-0.31679
1.2304	-0.27229
1.1336	-0.26212
1.0419	-0.17693
0.94128	-0.13116
0.85722	-0.21889
0.78336	-0.19473
0.73751	-0.077767
0.70694	0.082427
0.69421	0.18032
0.69039	0.24516
0.71076	0.38502
0.72477	0.39519
0.73751	0.34815
0.7477	0.45621
0.75152	0.54775
0.73751	0.58462
0.71713	0.48418
0.68911	0.40917
0.6611	0.34687
0.6178	0.20067
0.57704	0.074799
0.53756	0.0010588
0.48917	0.021401
0.44969	-0.037083
0.41275	-0.21635
0.38346	-0.28882
0.36309	-0.29899
0.34271	-0.17821
0.32233	-0.20109
0.31469	-0.16295
0.3096	-0.20999
0.31342	-0.0027553
0.33379	0.1638
0.40766	0.072256
0.54648	0.23245
0.73241	0.37612
0.93618	0.33035
1.1221	0.44477
1.2724	0.4524
1.3781	0.51978
1.4405	0.46511
1.4609	0.46257
1.4532	0.48927
1.4189	0.29602
1.3628	0.28076
1.2877	0.08497
1.2074	0.017587
1.1208	-0.084124
1.0355	-0.22398
0.94764	-0.13498
0.86104	-0.19728
0.78081	-0.31933
0.72605	-0.23669
0.67256	-0.28627
0.63053	-0.25067
0.59232	-0.22652
0.55666	-0.073953
0.52228	0.14345
0.5019	0.18414
0.47516	0.35577
0.4586	0.39646
0.45733	0.59479
0.45223	0.54902
0.44714	0.59098
0.4344	0.43333
0.43695	0.44096
0.43568	0.3723
0.4395	0.25788
0.43822	0.12693
0.44459	0.17651
0.4637	-0.16168
0.51973	-0.072681
0.61525	0.012501
0.74133	-0.098109
0.88015	-0.13371
0.98458	-0.30534
1.0623	-0.24686
1.1196	-0.20745
1.1361	-0.17693
1.1336	-0.087938
1.1094	-0.02564
1.0725	-0.00021255
1.033	0.15362
0.98585	0.14091
0.92217	0.33797
0.87505	0.26423
0.81902	0.33162
0.76171	0.44986
0.71968	0.43079
0.6802	0.59098
0.65345	0.65455
0.6369	0.61895
0.62162	0.34052
0.61525	0.018858
0.6127	-0.25576
0.59869	-0.17185
0.58214	-0.070138
0.54775	-0.13625
0.51336	-0.10574
0.47006	-0.18329
0.41912	-0.26593
0.37709	-0.3651
0.33507	-0.37146
0.29941	-0.21762
0.27012	-0.13116
0.24465	0.19177
0.24082	0.33925
0.24337	0.30746
0.25483	0.24771
0.27903	0.34942
0.31087	0.3189
0.34144	0.44858
0.36691	0.41426
0.3962	0.56174
0.44077	0.56047
0.52228	0.39137
0.66364	0.19685
0.8343	0.017587
0.97821	0.015044
1.103	0.081156
1.1998	0.064628
1.2546	-0.070138
1.2635	-0.019283
1.2622	-0.17948
1.2291	-0.17693
1.1871	-0.31551
1.1387	-0.45028
1.0763	-0.25576
1.0088	-0.19473
0.94	-0.15659
0.87505	0.013773
0.82029	0.041743
0.77826	0.032843
0.74897	0.21719
0.72605	0.22355
0.72095	0.31636
0.71076	0.23499
0.6993	0.21211
0.6802	0.3367
0.66619	0.44731
0.64327	0.3367
0.6318	0.44604
0.60888	0.43206
0.57959	0.33797
0.54266	0.3367
0.51082	0.27949
0.46242	0.14854
0.41148	0.20194
0.36054	0.12057
0.32615	0.026486
0.29813	-0.023097
0.28922	0.030301
0.27521	-0.018012
0.2803	-0.22143
0.29813	-0.13371
0.36309	-0.17185
0.48153	-0.17058
0.62926	-0.29517
0.78081	-0.21508
0.90944	-0.10192
1.0113	-0.22143
1.0737	-0.12354
1.1183	0.19812
1.131	0.22991
1.1272	0.13455
1.1094	0.26169
1.0865	0.20702
1.0508	0.25661
1.0011	0.36976
0.96293	0.47274
0.91326	0.3545
0.85595	0.47783
0.80883	0.38756
0.77189	0.36086
0.7426	0.46893
0.70567	0.3367
0.67383	0.1015
0.64327	0.1371
0.61907	-0.14006
0.58978	-0.019283
0.55921	-0.06251
0.53756	-0.063782
0.5019	-0.20872
0.46115	-0.28246
0.4344	-0.15659
0.40766	-0.18202
0.38474	-0.18202
0.36309	-0.20999
0.34908	-0.14642
0.34526	0.077342
0.3478	0.1193
0.36818	0.26932
0.3911	0.29602
0.42294	0.28458
0.45351	0.22101
0.47261	0.3634
0.48407	0.399
0.49808	0.45621
0.51591	0.43968
0.56303	0.46384
0.6611	0.49817
0.79864	0.40663
0.95656	0.17524
1.0941	0.14218
1.1998	0.0036016
1.2673	-0.10192
1.2851	-0.13498
1.2762	0.046828
1.2418	-0.15913
1.1845	-0.11082
1.1259	-0.10319
1.0584	-0.24305
0.98203	-0.15278
0.91071	-0.18456
0.8534	-0.044711
0.79991	0.073527
0.76807	0.077342
0.75789	0.16888
0.74642	0.26169
0.74897	0.33162
0.73624	0.23372
0.72477	0.27695
0.71841	0.21846
0.69166	0.37357
0.65855	0.48418
0.6318	0.40154
0.5885	0.30873
0.5503	0.34433
0.51082	0.29348
0.46624	0.19049
0.43186	0.16252
0.39874	-0.12989
0.37073	0.021401
0.34398	0.049371
0.32233	-0.15151
0.32997	-0.14134
0.3911	-0.25195
0.49171	-0.27102
0.62926	-0.30026
0.75916	-0.30534
0.86486	-0.37273
0.93746	-0.14642
0.9884	-0.10955
1.0164	0.0023302
1.0151	0.079884
1.0139	0.16507
0.99859	0.22482
0.97057	0.35705
0.94128	0.36976
0.90434	0.15744
0.86741	0.28331
0.82284	0.33162
0.78208	0.21846
0.76043	0.37484
0.73114	0.44477
0.71204	0.36467
0.68529	0.38883
0.66492	0.33416
0.64454	0.21719
0.61525	0.13455
0.57449	0.10531
0.53374	0.064628
0.48917	-0.11082
0.45223	-0.15913
0.41912	-0.0091122
0.37709	-0.16168
0.35035	-0.057425
0.32743	-0.18202
0.31087	-0.26212
0.29304	-0.23287
0.28922	-0.20618
0.27139	-0.14896
0.27012	-0.045982
0.28667	0.20575
0.34144	0.20702
0.45733	0.33797
0.60888	0.22355
0.78208	0.31509
0.93491	0.31
1.0635	0.3545
1.1374	0.48545
1.1845	0.4346
1.2036	0.40536
1.1909	0.46257
1.1756	0.27568
1.1374	0.21719
1.089	0.065899
1.0393	0.091327
0.96547	0.045557
0.90689	-0.12099
0.84321	-0.20236
0.77699	-0.079038
0.72859	-0.16422
0.69039	-0.11845
0.64709	-0.12735
0.62034	-0.28754
0.58468	-0.31679
0.5503	-0.14642
0.51082	-0.07141
0.48662	-0.033268
0.45733	-0.11591
0.43822	0.13964
0.42294	0.32018
0.40511	0.24008
0.40002	0.27313
0.38983	0.3278
0.38346	0.34687
0.37455	0.34433
0.37327	0.4791
0.36181	0.55157
0.35926	0.57572
0.34908	0.37357
0.34144	0.25025
0.33125	0.087513
0.31851	0.023944
0.30832	-0.30153
0.30068	-0.098109
0.30323	-0.11337
0.31851	-0.12354
0.38728	-0.22143
0.51464	-0.11591
0.65855	-0.35874
0.81392	-0.32696
0.93746	-0.3117
1.047	-0.36764
1.1208	-0.042168
1.1654	0.13328
1.1883	0.40027
1.1934	0.27695
1.196	0.22482
1.1896	0.3456
1.1603	0.31636
1.1259	0.35577
1.0839	0.24008
1.0368	0.4079
0.98203	0.54521
0.93236	0.44604
0.89416	0.33162
0.8534	0.19177
0.82284	0.43587
0.77954	0.078613
0.74006	0.017587
0.69166	0.058271
0.64836	-0.13116
0.59487	-0.02564
0.54648	-0.20872
0.49553	-0.19092
0.44969	-0.24305
0.41021	-0.26593
0.37455	-0.3028
0.33889	-0.29263
0.31214	-0.14006
0.29686	0.0481
0.2854	0.041743
0.28285	0.0481
0.29304	0.16507
0.3287	0.33925
0.38601	0.23372
0.48789	0.46638
0.62416	0.53122
0.78336	0.48037
0.92599	0.45113
1.033	0.47655
1.117	0.35196
1.1476	0.37739
1.1489	0.36976
1.1374	0.29983
1.0979	0.15744
1.0483	0.14218
0.99986	0.023944
0.93618	-0.063782
0.8776	-0.18583
0.81902	-0.13116
0.76298	-0.23033
0.71204	-0.26085
0.66874	-0.17693
0.6318	-0.28754
0.60506	-0.26974
0.57449	-0.15405
0.56431	-0.051068
0.55666	0.059542
0.5503	0.33289
0.5503	0.31509
0.54393	0.41044
0.54393	0.36213
0.5452	0.35959
0.53884	0.35832
0.53756	0.36722
0.52483	0.42316
0.51336	0.37103
0.49171	0.41553
0.47261	0.46766
0.44841	0.31128
0.41912	0.11167
