-0.665039	
-0.653687	
-0.537659	
-0.260681	
0.143738	
0.606567	
1.04529	
1.39264	
1.60907	
1.69562	
1.67804	
1.58551	
1.44379	
1.2843	
1.11859	
0.946777	
0.767944	
0.586914	
0.415161	
0.266113	
0.153625	
0.0772095	
0.0407104	
0.0321655	
0.0403442	
0.0513916	
0.0543823	
0.0420532	
0.0108032	
-0.0421143	
-0.108337	
-0.183472	
-0.262695	
-0.343689	
-0.425903	
-0.50531	
-0.57605	
-0.641663	
-0.704041	
-0.754761	
-0.793213	
-0.824097	
-0.849915	
-0.865845	
-0.873901	
-0.880371	
-0.882141	
-0.877747	
-0.870605	
-0.857788	
-0.843323	
-0.827209	
-0.814758	
-0.80658	
-0.801941	
-0.805359	
-0.815735	
-0.822083	
-0.802429	
-0.701782	
-0.457581	
-0.0708618	
0.404053	
0.887207	
1.29779	
1.58679	
1.73877	
1.76593	
1.70074	
1.573	
1.41357	
1.24152	
1.06677	
0.887451	
0.70343	
0.52063	
0.354248	
0.215576	
0.116028	
0.0576172	
0.0362549	
0.0384521	
0.0526733	
0.0635986	
0.0635376	
0.0421753	
0.00158691	
-0.0562134	
-0.127808	
-0.205933	
-0.28656	
-0.369873	
-0.451233	
-0.529663	
-0.599792	
-0.6604	
-0.713623	
-0.761658	
-0.801575	
-0.829773	
-0.851196	
-0.865295	
-0.869446	
-0.868469	
-0.860413	
-0.846985	
-0.831421	
-0.815796	
-0.804016	
-0.797485	
-0.79541	
-0.798584	
-0.801697	
-0.783081	
-0.687073	
-0.456909	
-0.0899048	
0.365479	
0.826111	
1.21271	
1.47943	
1.61115	
1.62189	
1.53986	
1.39972	
1.22992	
1.05115	
0.87323	
0.695923	
0.515808	
0.342224	
0.189209	
0.0715332	
-0.00769043	
-0.0466309	
-0.0475464	
-0.0262451	
0.00396729	
0.0249023	
0.0294189	
0.0132446	
-0.0240479	
-0.0808716	
-0.149597	
-0.225769	
-0.30365	
-0.379456	
-0.450439	
-0.520447	
-0.586304	
-0.647278	
-0.703613	
-0.749084	
-0.786011	
-0.813904	
-0.826477	
-0.82666	
-0.822754	
-0.818665	
-0.813782	
-0.809326	
-0.808838	
-0.809387	
-0.811462	
-0.79187	
-0.703491	
-0.487854	
-0.13092	
0.316284	
0.774048	
1.16479	
1.43561	
1.56934	
1.58044	
1.50171	
1.36847	
1.20923	
1.04382	
0.880188	
0.709351	
0.530457	
0.353455	
0.190491	
0.0597534	
-0.0360718	
-0.0894165	
-0.109009	
-0.10498	
-0.0877686	
-0.0758057	
-0.074646	
-0.0907593	
-0.12677	
-0.180115	
-0.2453	
-0.317993	
-0.395691	
-0.470154	
-0.542847	
-0.612366	
-0.67572	
-0.728088	
-0.772644	
-0.809204	
-0.837952	
-0.859985	
-0.873413	
-0.879395	
-0.876038	
-0.862915	
-0.84845	
-0.837891	
-0.830933	
-0.824951	
-0.822327	
-0.826782	
-0.829651	
-0.797913	
-0.670471	
-0.399597	
-0.00231934	
0.455444	
0.89386	
1.23853	
1.45142	
1.5343	
1.5119	
1.40979	
1.26624	
1.11084	
0.95343	
0.79126	
0.619019	
0.440491	
0.268066	
0.116516	
-0.000976563	
-0.0766602	
-0.113586	
-0.121277	
-0.112732	
-0.0994263	
-0.0974121	
-0.106018	
-0.131775	
-0.174133	
-0.226135	
-0.291504	
-0.364807	
-0.441772	
-0.514465	
-0.58551	
-0.649658	
-0.704956	
-0.753906	
-0.797913	
-0.830444	
-0.854248	
-0.869507	
-0.876404	
-0.874512	
-0.865173	
-0.84845	
-0.829163	
-0.813232	
-0.800415	
-0.79303	
-0.790771	
-0.79303	
-0.798584	
-0.800293	
-0.777893	
-0.671692	
-0.432739	
-0.0665894	
0.366028	
0.779419	
1.10815	
1.3158	
1.40216	
1.38434	
1.29431	
1.16437	
1.01752	
0.864014	
0.706177	
0.539307	
0.367981	
0.203125	
0.0577393	
-0.0524292	
-0.12384	
-0.15625	
-0.156799	
-0.138367	
-0.115662	
-0.102173	
-0.1073	
-0.134949	
-0.180908	
-0.241943	
-0.309692	
-0.381348	
-0.453003	
-0.521179	
-0.583557	
-0.641113	
-0.692566	
-0.737732	
-0.776245	
-0.805786	
-0.827271	
-0.840149	
-0.842346	
-0.843079	
-0.839417	
-0.829834	
-0.8125	
-0.797668	
-0.786072	
-0.774658	
-0.767334	
-0.766846	
-0.773682	
-0.787659	
-0.792419	
-0.744202	
-0.585754	
-0.290283	
0.11084	
0.542358	
0.925964	
1.20752	
1.36548	
1.40857	
1.36206	
1.26074	
1.12897	
0.987061	
0.8396	
0.684448	
0.520996	
0.353699	
0.199524	
0.0648804	
-0.0338135	
-0.0939331	
-0.121216	
-0.122009	
-0.112183	
-0.106201	
-0.109741	
-0.129456	
-0.167358	
-0.218872	
-0.279053	
-0.343994	
-0.40918	
-0.475159	
-0.540833	
-0.600586	
-0.653503	
-0.69989	
-0.740295	
-0.772034	
-0.797668	
-0.814819	
-0.825623	
-0.832397	
-0.834106	
-0.829285	
-0.821838	
-0.815247	
-0.81073	
-0.807678	
-0.805786	
-0.805786	
-0.805359	
-0.806091	
-0.808777	
-0.811218	
-0.815369	
-0.822815	
-0.825256	
-0.825562	
-0.822693	
-0.819458	
-0.815552	
-0.813477	
-0.815491	
-0.819214	
-0.823853	
-0.821838	
-0.7901	
-0.672241	
-0.415161	
-0.0098877	
0.481628	
0.973999	
1.38318	
1.65796	
1.78784	
1.79865	
1.72595	
1.60162	
1.45233	
1.30115	
1.14984	
0.989868	
0.817993	
0.646545	
0.488159	
0.355774	
0.260803	
0.201843	
0.173828	
0.167786	
0.169983	
0.169556	
0.154907	
0.124573	
0.0795288	
0.0184326	
-0.055542	
-0.133789	
-0.211243	
-0.28772	
-0.362793	
-0.431213	
-0.495056	
-0.553223	
-0.602295	
-0.640503	
-0.670349	
-0.691528	
-0.706482	
-0.717163	
-0.719543	
-0.720398	
-0.718567	
-0.715149	
-0.712158	
-0.708374	
-0.705566	
-0.707581	
-0.712402	
-0.719177	
-0.727844	
-0.73584	
-0.74292	
-0.749878	
-0.755066	
-0.760376	
-0.764465	
-0.766479	
-0.7677	
-0.772217	
-0.77655	
-0.767883	
-0.703857	
-0.519348	
-0.192871	
0.240845	
0.709778	
1.12946	
1.43719	
1.60992	
1.65637	
1.60681	
1.49432	
1.34827	
1.19147	
1.0343	
0.876831	
0.716125	
0.555786	
0.406433	
0.281372	
0.185669	
0.122864	
0.0930176	
0.0866089	
0.0947266	
0.102417	
0.0976563	
0.0773315	
0.0392456	
-0.0159912	
-0.0842896	
-0.157593	
-0.231079	
-0.305298	
-0.382019	
-0.454163	
-0.522766	
-0.580872	
-0.632629	
-0.675964	
-0.709473	
-0.733948	
-0.750916	
-0.762573	
-0.770935	
-0.774597	
-0.772583	
-0.768433	
-0.765381	
-0.761841	
-0.761414	
-0.760376	
-0.753418	
-0.748718	
-0.747925	
-0.749634	
-0.754333	
-0.764587	
-0.77771	
-0.791565	
-0.810303	
-0.823914	
-0.802673	
-0.690735	
-0.443298	
-0.0632935	
0.392334	
0.847046	
1.22784	
1.487	
1.61365	
1.62762	
1.55591	
1.43408	
1.28992	
1.14014	
0.993164	
0.843872	
0.687805	
0.52948	
0.38092	
0.261292	
0.172424	
0.115417	
0.0917358	
0.0916748	
0.0963135	
0.0958862	
0.0866699	
0.0609741	
0.0192871	
-0.0372925	
-0.102356	
-0.174927	
-0.25238	
-0.328247	
-0.403198	
-0.475159	
-0.541321	
-0.597839	
-0.646973	
-0.688416	
-0.722168	
-0.74646	
-0.764465	
-0.775208	
-0.779541	
-0.780334	
-0.777405	
-0.77417	
-0.771057	
-0.76709	
-0.763245	
-0.75946	
-0.754883	
-0.750366	
-0.745911	
-0.744019	
-0.744934	
-0.747437	
-0.756226	
-0.766846	
-0.770752	
-0.73822	
-0.607605	
-0.337769	
0.0530396	
0.503967	
0.941711	
1.29517	
1.526	
1.62726	
1.62	
1.53448	
1.40143	
1.24786	
1.09424	
0.944885	
0.795532	
0.639282	
0.487976	
0.351929	
0.243286	
0.170105	
0.131409	
0.122437	
0.131104	
0.142822	
0.148621	
0.136353	
0.105957	
0.0557251	
-0.00866699	
-0.0828247	
-0.160034	
-0.238525	
-0.317627	
-0.393494	
-0.462036	
-0.524963	
-0.579651	
-0.626587	
-0.667053	
-0.698792	
-0.722534	
-0.739929	
-0.750793	
-0.752869	
-0.749512	
-0.744568	
-0.738464	
-0.730774	
-0.721741	
-0.71228	
-0.706238	
-0.703979	
-0.702454	
-0.707581	
-0.717346	
-0.728027	
-0.713867	
-0.622131	
-0.40155	
-0.0487061	
0.380981	
0.813965	
1.18164	
1.43433	
1.5614	
1.57935	
1.51331	
1.39893	
1.26367	
1.12158	
0.97998	
0.836243	
0.682434	
0.521973	
0.371338	
0.244629	
0.149048	
0.0858765	
0.0547485	
0.0464478	
0.0476074	
0.0488892	
0.0393677	
0.0149536	
-0.0272217	
-0.083374	
-0.150208	
-0.22345	
-0.299744	
-0.376038	
-0.451843	
-0.522156	
-0.585876	
-0.643677	
-0.689514	
-0.727356	
-0.759155	
-0.780701	
-0.794861	
-0.804993	
-0.810303	
-0.809326	
-0.80719	
-0.80127	
-0.791809	
-0.780151	
-0.770325	
-0.761536	
-0.754578	
-0.750671	
-0.750793	
-0.7547	
-0.764282	
-0.78064	
-0.794617	
-0.791199	
-0.733093	
-0.558594	
-0.239929	
0.191711	
0.660706	
1.08807	
1.40723	
1.5943	
1.6582	
1.62225	
1.52112	
1.38422	
1.23584	
1.08917	
0.942627	
0.787537	
0.628052	
0.47113	
0.333008	
0.224182	
0.149963	
0.109558	
0.0952759	
0.0938721	
0.0955811	
0.0860596	
0.0667114	
0.0319824	
-0.0192261	
-0.0830078	
-0.152527	
-0.227661	
-0.305542	
-0.382507	
-0.45575	
-0.522888	
-0.585632	
-0.640991	
-0.68634	
-0.721619	
-0.750427	
-0.773132	
-0.789368	
-0.795837	
-0.795166	
-0.793701	
-0.788147	
-0.781555	
-0.774048	
-0.768005	
-0.762939	
-0.757263	
-0.753418	
-0.74884	
-0.744019	
-0.741272	
-0.742859	
-0.748291	
-0.757019	
-0.768311	
-0.774963	
-0.760803	
-0.668945	
-0.445374	
-0.0828857	
0.369446	
0.833618	
1.23199	
1.51147	
1.65411	
1.67938	
1.61243	
1.487	
1.33453	
1.1759	
1.01849	
0.863098	
0.704651	
0.545532	
0.397034	
0.271301	
0.181763	
0.127441	
0.109009	
0.110413	
0.119751	
0.124329	
0.114502	
0.0866089	
0.0391235	
-0.0245972	
-0.0980225	
-0.17804	
-0.257446	
-0.332947	
-0.408752	
-0.481995	
-0.546265	
-0.604248	
-0.656128	
-0.696594	
-0.728516	
-0.750549	
-0.764587	
-0.772705	
-0.773926	
-0.77301	
-0.768127	
-0.762878	
-0.761047	
-0.759155	
-0.755371	
-0.75238	
-0.748901	
-0.745789	
-0.743713	
-0.74469	
-0.752258	
-0.762024	
-0.777893	
-0.793701	
-0.786255	
-0.709534	
-0.501953	
-0.144653	
0.314209	
0.792786	
1.20587	
1.49567	
1.64685	
1.67786	
1.61951	
1.50287	
1.35919	
1.20892	
1.05786	
0.904114	
0.743652	
0.578613	
0.424072	
0.289673	
0.185852	
0.115234	
0.0760498	
0.0644531	
0.0664063	
0.0682983	
0.0601807	
0.032959	
-0.0111694	
-0.0690918	
-0.138	
-0.214294	
-0.290771	
-0.36731	
-0.442627	
-0.513672	
-0.578186	
-0.636047	
-0.683655	
-0.724121	
-0.759827	
-0.787598	
-0.806458	
-0.816895	
-0.82019	
-0.819336	
-0.815674	
-0.813171	
-0.810425	
-0.804626	
-0.801453	
-0.798889	
-0.796814	
-0.796936	
-0.797974	
-0.795593	
-0.795959	
-0.798462	
-0.801941	
-0.8078	
-0.814392	
-0.821228	
-0.82135	
-0.768921	
-0.589539	
-0.256775	
0.195251	
0.689453	
1.13721	
1.474	
1.67065	
1.73297	
1.69012	
1.57806	
1.4278	
1.26202	
1.10181	
0.948792	
0.792419	
0.627991	
0.468201	
0.325806	
0.216248	
0.145752	
0.107849	
0.09375	
0.0951538	
0.0977783	
0.0921631	
0.0740967	
0.0396729	
-0.013855	
-0.0792847	
-0.15271	
-0.230774	
-0.309082	
-0.387695	
-0.464783	
-0.536804	
-0.602783	
-0.659546	
-0.707947	
-0.743835	
-0.769104	
-0.787354	
-0.797974	
-0.799133	
-0.794617	
-0.789246	
-0.783264	
-0.778198	
-0.77301	
-0.764893	
-0.753967	
-0.745117	
-0.733826	
-0.72583	
-0.721924	
-0.717712	
-0.718262	
-0.72522	
-0.732117	
-0.715698	
-0.61731	
-0.380859	
-0.00268555	
0.457886	
0.91394	
1.29095	
1.54065	
1.65411	
1.65027	
1.56036	
1.41949	
1.25653	
1.09528	
0.942078	
0.789368	
0.633179	
0.475281	
0.330383	
0.207825	
0.116211	
0.0588379	
0.0388794	
0.0404053	
0.0463257	
0.0493164	
0.0411987	
0.0166626	
-0.0254517	
-0.0817871	
-0.14801	
-0.220276	
-0.298462	
-0.376038	
-0.454834	
-0.528687	
-0.595764	
-0.654968	
-0.7052	
-0.745178	
-0.778381	
-0.801086	
-0.813904	
-0.821472	
-0.823608	
-0.821045	
-0.811584	
-0.797791	
-0.782776	
-0.767029	
-0.754761	
-0.747986	
-0.749146	
-0.757385	
-0.770264	
-0.781433	
-0.78479	
-0.752808	
-0.620728	
-0.34613	
0.055542	
0.515442	
0.954285	
1.30139	
1.51691	
1.5993	
1.57556	
1.48059	
1.3457	
1.19708	
1.04639	
0.898438	
0.747314	
0.586243	
0.422974	
0.273682	
0.152466	
0.0632324	
0.00939941	
-0.0154419	
-0.0211182	
-0.0199585	
-0.0217896	
-0.0333862	
-0.0619507	
-0.10553	
-0.162476	
-0.232117	
-0.310364	
-0.392578	
-0.4729	
-0.547119	
-0.617188	
-0.677917	
-0.729248	
-0.770813	
-0.806519	
-0.834961	
-0.853455	
-0.865417	
-0.869141	
-0.865662	
-0.859985	
-0.852966	
-0.842285	
-0.828979	
-0.81366	
-0.802673	
-0.791626	
-0.78418	
-0.783386	
-0.787476	
-0.794739	
-0.805115	
-0.812073	
-0.799377	
-0.711426	
-0.48999	
-0.124146	
0.331055	
0.792847	
1.18182	
1.45172	
1.58521	
1.59882	
1.52869	
1.4057	
1.25934	
1.10669	
0.957703	
0.8078	
0.650757	
0.489746	
0.336487	
0.208374	
0.115662	
0.0583496	
0.0352173	
0.0319824	
0.0373535	
0.0395508	
0.0288086	
0.000183105	
-0.0418091	
-0.0960083	
-0.160706	
-0.233154	
-0.306335	
-0.382813	
-0.459229	
-0.525208	
-0.58551	
-0.640991	
-0.68689	
-0.724121	
-0.749939	
-0.768738	
-0.783447	
-0.793823	
-0.798157	
-0.793457	
-0.784119	
-0.769958	
-0.753113	
-0.737488	
-0.726501	
-0.717529	
-0.712219	
-0.71051	
-0.712708	
-0.719421	
-0.721619	
-0.680115	
-0.527771	
-0.238464	
0.165344	
0.608154	
1.01147	
1.31311	
1.4809	
1.52588	
1.47571	
1.36578	
1.22565	
1.07538	
0.927612	
0.777954	
0.623047	
0.466614	
0.316589	
0.18457	
0.0853271	
0.0221558	
-0.00787354	
-0.0122681	
-0.0010376	
0.0106812	
0.010498	
-0.00616455	
-0.0392456	
-0.0886841	
-0.151855	
-0.224792	
-0.301392	
-0.374817	
-0.445618	
-0.513794	
-0.577637	
-0.635315	
-0.680847	
-0.722412	
-0.757935	
-0.783997	
-0.799744	
-0.806885	
-0.807556	
-0.805115	
-0.797058	
-0.785095	
-0.772339	
-0.75647	
-0.745972	
-0.740417	
-0.735107	
-0.735535	
-0.745667	
-0.757568	
-0.758606	
-0.713501	
-0.558899	
-0.262146	
0.148254	
0.59491	
0.999756	
1.30688	
1.48431	
1.53845	
1.4953	
1.39154	
1.25659	
1.11285	
0.970398	
0.825317	
0.668518	
0.510437	
0.356262	
0.2146	
0.101929	
0.0255127	
-0.0175171	
-0.0319214	
-0.0305176	
-0.0267334	
-0.0321045	
-0.0462646	
-0.0770264	
-0.125183	
-0.183533	
-0.249512	
-0.32428	
-0.399109	
-0.471375	
-0.541504	
-0.60553	
-0.659973	
-0.709473	
-0.752686	
-0.785217	
-0.807678	
-0.822571	
-0.829224	
-0.83075	
-0.828674	
-0.823364	
-0.815735	
-0.806824	
-0.794983	
-0.782654	
-0.772095	
-0.765076	
-0.764404	
-0.764282	
-0.771057	
-0.78418	
-0.802185	
-0.817261	
-0.807129	
-0.719543	
-0.495667	
-0.128723	
0.327026	
0.790466	
1.18396	
1.45691	
1.59503	
1.61627	
1.55121	
1.43225	
1.2851	
1.13379	
0.985535	
0.832703	
0.670654	
0.508301	
0.35614	
0.228333	
0.13147	
0.0698242	
0.0394897	
0.0339355	
0.0374146	
0.0402832	
0.0332031	
0.0126953	
-0.0267334	
-0.0808105	
-0.145996	
-0.217957	
-0.293884	
-0.370972	
-0.444824	
-0.515808	
-0.579041	
-0.633118	
-0.68042	
-0.720093	
-0.751465	
-0.770813	
-0.784729	
-0.791687	
-0.793274	
-0.790649	
-0.787476	
-0.778137	
-0.765503	
-0.753967	
-0.742615	
-0.734985	
-0.728699	
-0.724426	
-0.724915	
-0.735352	
-0.750305	
-0.761169	
-0.744202	
-0.647278	
-0.41449	
-0.0476685	
0.400696	
0.850342	
1.22443	
1.47394	
1.5921	
1.59619	
1.5163	
1.38654	
1.23236	
1.07568	
0.924622	
0.772705	
0.614868	
0.456299	
0.311035	
0.188477	
0.0991821	
0.0499268	
0.0358276	
0.0421753	
0.0527954	
0.0562744	
0.0453491	
0.017334	
-0.0269165	
-0.0852661	
-0.153809	
-0.228882	
-0.306274	
-0.383057	
-0.457458	
-0.526672	
-0.592651	
-0.65033	
-0.700684	
-0.743958	
-0.7771	
-0.800781	
-0.815308	
-0.8255	
-0.828247	
-0.826538	
-0.820496	
-0.808838	
-0.794983	
-0.783813	
-0.771729	
-0.765686	
-0.764648	
-0.765442	
-0.771667	
-0.783325	
-0.796448	
-0.782532	
-0.684143	
-0.449341	
-0.0743408	
0.384399	
0.841492	
1.22076	
1.47723	
1.60095	
1.60638	
1.52625	
1.39728	
1.24701	
1.09082	
0.940369	
0.788147	
0.62915	
0.467102	
0.316772	
0.192383	
0.0994263	
0.0427246	
0.0175171	
0.012085	
0.0167847	
0.0217285	
0.0128784	
-0.0131836	
-0.053894	
-0.109985	
-0.179993	
-0.257446	
-0.337463	
-0.416992	
-0.495972	
-0.569214	
-0.634094	
-0.690308	
-0.739563	
-0.780273	
-0.813049	
-0.840149	
-0.858154	
-0.868225	
-0.87207	
-0.869019	
-0.862488	
-0.852478	
-0.839233	
-0.824951	
-0.814514	
-0.807495	
-0.803284	
-0.804932	
-0.809509	
-0.818665	
-0.827454	
-0.817627	
-0.743469	
-0.541321	
-0.190918	
0.258911	
0.727173	
1.138	
1.43176	
1.58228	
1.60876	
1.54211	
1.41504	
1.25836	
1.09656	
0.938721	
0.781311	
0.619263	
0.46051	
0.314941	
0.190857	
0.0996704	
0.0444946	
0.0214233	
0.0213623	
0.03125	
0.039856	
0.0375977	
0.0194702	
-0.0172729	
-0.0739136	
-0.141235	
-0.215271	
-0.29425	
-0.373413	
-0.447876	
-0.518005	
-0.583008	
-0.641418	
-0.693115	
-0.74054	
-0.774841	
-0.799927	
-0.817627	
-0.825806	
-0.829285	
-0.825562	
-0.817139	
-0.80603	
-0.789368	
-0.773376	
-0.760681	
-0.75354	
-0.749756	
-0.753601	
-0.760071	
-0.76355	
-0.735779	
-0.612549	
-0.349182	
0.0407104	
0.493225	
0.926697	
1.27271	
1.48859	
1.57428	
1.54913	
1.44489	
1.29517	
1.12842	
0.96167	
0.801392	
0.640198	
0.47583	
0.320374	
0.188477	
0.0880737	
0.0233154	
-0.00714111	
-0.00994873	
0.00250244	
0.0170288	
0.0233154	
0.012207	
-0.0186768	
-0.0700684	
-0.13739	
-0.213135	
-0.292786	
-0.374512	
-0.453003	
-0.526428	
-0.59729	
-0.661194	
-0.715881	
-0.764526	
-0.80365	
-0.832031	
-0.852051	
-0.865295	
-0.872009	
-0.870239	
-0.861084	
-0.84491	
-0.822876	
-0.806458	
-0.796448	
-0.786804	
-0.781982	
-0.785889	
-0.793945	
-0.791626	
-0.734985	
-0.561768	
-0.248108	
0.179565	
0.641174	
1.05627	
1.36035	
1.52716	
1.57043	
1.51471	
1.39691	
1.24603	
1.08807	
0.934082	
0.777588	
0.616638	
0.4552	
0.298218	
0.16333	
0.0617676	
-0.00201416	
-0.0354614	
-0.0411987	
-0.0350342	
-0.0274658	
-0.0275879	
-0.0457764	
-0.0829468	
-0.13446	
-0.199097	
-0.272644	
-0.353699	
-0.434875	
-0.510315	
-0.583008	
-0.651978	
-0.71106	
-0.762268	
-0.806519	
-0.840271	
-0.863342	
-0.882263	
-0.895203	
-0.902039	
-0.904785	
-0.899902	
-0.887085	
-0.874023	
-0.860596	
-0.846008	
-0.835815	
-0.832336	
-0.836243	
-0.844177	
-0.85553	
-0.866638	
-0.860291	
-0.788635	
-0.591736	
-0.253113	
0.180603	
0.629761	
1.01636	
1.29028	
1.43695	
1.46594	
1.409	
1.29419	
1.1488	
0.993713	
0.843323	
0.694458	
0.539307	
0.382813	
0.241882	
0.125916	
0.0397339	
-0.0144043	
-0.0390625	
-0.0410767	
-0.0333252	
-0.0269775	
-0.0306396	
-0.0524292	
-0.0916138	
-0.144775	
-0.20874	
-0.28186	
-0.356628	
-0.430481	
-0.501343	
-0.568237	
-0.632874	
-0.691467	
-0.743896	
-0.786926	
-0.820801	
-0.845947	
-0.861145	
-0.866211	
-0.862671	
-0.853638	
-0.839966	
-0.825623	
-0.80603	
-0.79126	
-0.778992	
-0.771057	
-0.773254	
-0.779541	
-0.786804	
-0.779297	
-0.708618	
-0.527405	
-0.228088	
0.158203	
0.566284	
0.927063	
1.18781	
1.33276	
1.36749	
1.31671	
1.21228	
1.07874	
0.936096	
0.792114	
0.650208	
0.502991	
0.35498	
0.218933	
0.105225	
0.0239258	
-0.0248413	
-0.0437012	
-0.0441895	
-0.0360107	
-0.0286865	
-0.0353394	
-0.0548706	
-0.0900269	
-0.140015	
-0.203003	
-0.269226	
-0.342102	
-0.415039	
-0.484253	
-0.549683	
-0.60907	
-0.664368	
-0.71167	
-0.747559	
-0.777161	
-0.797241	
-0.812073	
-0.817688	
-0.815918	
-0.809692	
-0.800537	
-0.790833	
-0.781616	
-0.774414	
-0.773132	
-0.777405	
-0.782837	
-0.785522	
-0.765747	
-0.669067	
-0.454041	
-0.127014	
0.269409	
0.671814	
1.01642	
1.25946	
1.38959	
1.4173	
1.36609	
1.26477	
1.14026	
1.00714	
0.870117	
0.727478	
0.575989	
0.424316	
0.287903	
0.177612	
0.0968628	
0.0444946	
0.0209351	
0.0144043	
0.0144043	
0.0103149	
-0.00256348	
-0.029541	
-0.0730591	
-0.130066	
-0.196106	
-0.263916	
-0.334595	
-0.40686	
-0.471191	
-0.529907	
-0.583984	
-0.634216	
-0.679138	
-0.717163	
-0.746155	
-0.768555	
-0.782776	
-0.790161	
-0.793701	
-0.788818	
-0.780151	
-0.768127	
-0.752197	
-0.73822	
-0.728271	
-0.722595	
-0.720032	
-0.723694	
-0.730957	
-0.73645	
-0.721558	
-0.636414	
-0.43335	
-0.108704	
0.294861	
0.709229	
1.06989	
1.32947	
1.4704	
1.50446	
1.45361	
1.35376	
1.22894	
1.0976	
0.962219	
0.8172	
0.66333	
0.505981	
0.36438	
0.251099	
0.167114	
0.119263	
0.0980835	
0.0935669	
0.0960083	
0.0974731	
0.0861206	
0.0584717	
0.0139771	
-0.0443115	
-0.111572	
-0.185303	
-0.260925	
-0.336609	
-0.410339	
-0.478333	
-0.539124	
-0.590698	
-0.635742	
-0.669922	
-0.697571	
-0.716797	
-0.729126	
-0.73584	
-0.73938	
-0.739563	
-0.732727	
-0.722595	
-0.711731	
-0.701294	
-0.69281	
-0.687683	
-0.68396	
-0.685669	
-0.690796	
-0.699341	
-0.70343	
-0.666809	
-0.531982	
-0.267517	
0.101868	
0.518494	
0.913452	
1.2251	
1.41772	
1.49268	
1.47247	
1.38739	
1.26398	
1.12781	
0.992493	
0.853088	
0.704773	
0.551575	
0.402588	
0.272766	
0.170044	
0.0980835	
0.0592651	
0.0456543	
0.0445557	
0.0457153	
0.036438	
0.0151978	
-0.0230713	
-0.0750122	
-0.140686	
-0.213257	
-0.289795	
-0.368347	
-0.438721	
-0.505127	
-0.5672	
-0.622009	
-0.668457	
-0.709595	
-0.742065	
-0.766235	
-0.78302	
-0.79126	
-0.795532	
-0.799316	
-0.7995	
-0.797852	
-0.793335	
-0.78595	
-0.777405	
-0.769165	
-0.76239	
-0.758545	
-0.760254	
-0.767883	
-0.78009	
-0.791321	
-0.796143	
-0.76593	
-0.643433	
-0.384338	
-0.000183105	
0.445251	
0.877808	
1.23157	
1.4657	
1.57452	
1.57568	
1.50232	
1.38727	
1.25226	
1.11133	
0.961548	
0.804382	
0.641174	
0.481079	
0.335754	
0.215393	
0.129883	
0.0778809	
0.0553589	
0.0524902	
0.0583496	
0.0549927	
0.0378418	
0.00537109	
-0.0421753	
-0.106262	
-0.177551	
-0.254272	
-0.331665	
-0.406128	
-0.478455	
-0.545959	
-0.605652	
-0.657837	
-0.702515	
-0.739197	
-0.767456	
-0.786743	
-0.80072	
-0.80835	
-0.810425	
-0.810547	
-0.807251	
-0.801697	
-0.796265	
-0.79303	
-0.788757	
-0.787781	
-0.786804	
-0.787292	
-0.787659	
-0.789551	
-0.795288	
-0.803894	
-0.815857	
-0.82782	
-0.830017	
-0.783752	
-0.632141	
-0.333191	
0.0879517	
0.561707	
1.00787	
1.3598	
1.58063	
1.66998	
1.65387	
1.55994	
1.41998	
1.26379	
1.10742	
0.951355	
0.792603	
0.630859	
0.474487	
0.340759	
0.237854	
0.166016	
0.127014	
0.114319	
0.117737	
0.118652	
0.10791	
0.0841675	
0.0435791	
-0.0101929	
-0.0756836	
-0.147949	
-0.22644	
-0.303894	
-0.382751	
-0.453979	
-0.522339	
-0.587769	
-0.647522	
-0.696045	
-0.732361	
-0.758972	
-0.780151	
-0.79303	
-0.797302	
-0.797913	
-0.795776	
-0.79248	
-0.78894	
-0.785034	
-0.778748	
-0.772339	
-0.765991	
-0.762756	
-0.760437	
-0.763306	
-0.768921	
-0.774353	
-0.783508	
-0.793579	
-0.796814	
-0.764648	
-0.635437	
-0.359863	
0.0476685	
0.517944	
0.967896	
1.33136	
1.56305	
1.65741	
1.63904	
1.54071	
1.39545	
1.23004	
1.06305	
0.897522	
0.731812	
0.565796	
0.405273	
0.267761	
0.166199	
0.100525	
0.0720825	
0.071106	
0.0862427	
0.100769	
0.104248	
0.0921021	
0.0632935	
0.0166016	
-0.0476074	
-0.123413	
-0.205383	
-0.288086	
-0.36853	
-0.446228	
-0.521667	
-0.586609	
-0.641479	
-0.688232	
-0.727234	
-0.759705	
-0.782471	
-0.792236	
-0.797119	
-0.79718	
-0.791565	
-0.783386	
-0.775513	
-0.763611	
-0.751038	
-0.740906	
-0.732666	
-0.72821	
-0.730469	
-0.740906	
-0.753845	
-0.762756	
-0.748169	
-0.651855	
-0.414673	
-0.0394897	
0.415039	
0.868713	
1.24902	
1.508	
1.62878	
1.62561	
1.5368	
1.39642	
1.23438	
1.07062	
0.911255	
0.7547	
0.596191	
0.438293	
0.294678	
0.178223	
0.0928955	
0.0476685	
0.0322266	
0.0380859	
0.0496216	
0.0558472	
0.046814	
0.019165	
-0.0246582	
-0.0831299	
-0.157593	
-0.239319	
-0.322327	
-0.404114	
-0.482422	
-0.555115	
-0.620972	
-0.677063	
-0.726074	
-0.767578	
-0.798096	
-0.821289	
-0.834473	
-0.841309	
-0.845459	
-0.846802	
-0.843201	
-0.832153	
-0.816711	
-0.800415	
-0.789124	
-0.778137	
-0.76947	
-0.763062	
-0.765381	
-0.776306	
-0.789246	
-0.793396	
-0.745056	
-0.577332	
-0.254944	
0.188599	
0.672668	
1.11035	
1.43915	
1.63159	
1.69037	
1.64148	
1.52002	
1.36487	
1.19867	
1.03815	
0.881897	
0.721619	
0.557739	
0.401062	
0.268982	
0.16687	
0.0993652	
0.0654907	
0.0559692	
0.0585938	
0.0631714	
0.0578613	
0.0386963	
0	
-0.0565796	
-0.126709	
-0.20636	
-0.290039	
-0.37085	
-0.44751	
-0.519287	
-0.587463	
-0.64856	
-0.702576	
-0.747009	
-0.782043	
-0.805603	
-0.82489	
-0.836853	
-0.842834	
-0.842285	
-0.836121	
-0.825989	
-0.812134	
-0.800232	
-0.789856	
-0.780334	
-0.770691	
-0.765503	
-0.765381	
-0.770752	
-0.781128	
-0.789612	
-0.773804	
-0.671509	
-0.427979	
-0.043457	
0.421448	
0.882019	
1.26202	
1.51379	
1.62958	
1.62469	
1.53284	
1.38879	
1.22302	
1.05646	
0.899719	
0.745178	
0.586792	
0.434204	
0.296448	
0.184265	
0.105103	
0.0601196	
0.0437012	
0.0472412	
0.0559692	
0.0585327	
0.0479736	
0.0177002	
-0.0282593	
-0.0883789	
-0.15918	
-0.237488	
-0.320374	
-0.402527	
-0.478699	
-0.547852	
-0.609802	
-0.66571	
-0.713684	
-0.753418	
-0.783752	
-0.806396	
-0.818176	
-0.823181	
-0.823364	
-0.818848	
-0.807373	
-0.792969	
-0.780273	
-0.766724	
-0.754944	
-0.745056	
-0.737671	
-0.735291	
-0.736023	
-0.741028	
-0.753296	
-0.766296	
-0.756836	
-0.667358	
-0.441406	
-0.071106	
0.387939	
0.850952	
1.23987	
1.49988	
1.62012	
1.61816	
1.5238	
1.37762	
1.20844	
1.03992	
0.885193	
0.73291	
0.574097	
0.416626	
0.272034	
0.156433	
0.0782471	
0.0352783	
0.0269165	
0.036438	
0.050415	
0.0580444	
0.0514526	
0.0244141	
-0.0252075	
-0.0901489	
-0.161682	
-0.239014	
-0.322876	
-0.406799	
-0.484802	
-0.555908	
-0.6203	
-0.679321	
-0.727661	
-0.763794	
-0.790344	
-0.809937	
-0.817993	
-0.820679	
-0.816467	
-0.80835	
-0.796082	
-0.779236	
-0.76001	
-0.741577	
-0.722534	
-0.708496	
-0.699829	
-0.697998	
-0.701355	
-0.70929	
-0.722961	
-0.726135	
-0.684998	
-0.534668	
-0.236267	
0.183044	
0.649597	
1.07886	
1.40155	
1.58508	
1.63849	
1.58881	
1.46973	
1.31384	
1.1463	
0.986755	
0.834351	
0.680237	
0.519958	
0.362061	
0.223083	
0.112061	
0.036377	
-0.00366211	
-0.0154419	
-0.00970459	
-0.000732422	
0.00195313	
-0.00720215	
-0.0371094	
-0.0880737	
-0.152466	
-0.228088	
-0.306641	
-0.387512	
-0.464111	
-0.534729	
-0.60083	
-0.657104	
-0.703918	
-0.745422	
-0.77887	
-0.801758	
-0.815918	
-0.824768	
-0.825989	
-0.824036	
-0.817993	
-0.807617	
-0.794861	
-0.780823	
-0.769043	
-0.763977	
-0.764587	
-0.772461	
-0.784851	
-0.799011	
-0.80481	
-0.785095	
-0.681274	
-0.440918	
-0.0621948	
0.396545	
0.848999	
1.2149	
1.45209	
1.55115	
1.53363	
1.43079	
1.2785	
1.10431	
0.932922	
0.768677	
0.607788	
0.446106	
0.29248	
0.156982	
0.0477905	
-0.0269165	
-0.0643311	
-0.0760498	
-0.067627	
-0.0552368	
-0.0456543	
-0.0484619	
-0.065979	
-0.102966	
-0.154785	
-0.216736	
-0.289063	
-0.367493	
-0.448792	
-0.523865	
-0.587524	
-0.642456	
-0.691284	
-0.730713	
-0.762268	
-0.7854	
-0.799438	
-0.803467	
-0.800293	
-0.793457	
-0.785706	
-0.777954	
-0.770508	
-0.766785	
-0.763428	
-0.755432	
-0.716492	
-0.589111	
-0.333435	
0.0424194	
0.473816	
0.882019	
1.20374	
1.39862	
1.46228	
1.41785	
1.29895	
1.13251	
0.949219	
0.764648	
0.580322	
0.394653	
0.215759	
0.0535278	
-0.0805054	
-0.175903	
-0.228699	
-0.2453	
-0.234619	
-0.2099	
-0.185547	
-0.173218	
-0.177124	
-0.199768	
-0.240295	
-0.296082	
-0.363647	
-0.436401	
-0.510925	
-0.58429	
-0.653809	
-0.716736	
-0.774719	
-0.822693	
-0.855408	
-0.877747	
-0.893982	
-0.906616	
-0.916748	
-0.924194	
-0.929626	
-0.925964	
-0.911987	
-0.874512	
-0.770264	
-0.544617	
-0.184265	
0.259705	
0.711914	
1.09375	
1.35406	
1.47491	
1.47083	
1.37378	
1.22028	
1.03839	
0.844666	
0.655884	
0.476196	
0.301941	
0.139038	
-6.10352E-05	
-0.103333	
-0.168457	
-0.198242	
-0.197083	
-0.175659	
-0.146606	
-0.122925	
-0.109863	
-0.119019	
-0.150574	
-0.202454	
-0.267578	
-0.343933	
-0.426941	
-0.509521	
-0.587402	
-0.657349	
-0.716736	
-0.767578	
-0.810669	
-0.846497	
-0.876892	
-0.904297	
-0.924988	
-0.937012	
-0.942688	
-0.931213	
-0.876404	
-0.726257	
-0.437988	
-0.0265503	
0.436707	
0.86261	
1.18756	
1.37402	
1.42682	
1.37067	
1.24164	
1.07648	
0.897949	
0.719116	
0.540222	
0.359314	
0.182678	
0.0238647	
-0.106445	
-0.201172	
-0.257568	
-0.278503	
-0.271423	
-0.247864	
-0.220398	
-0.205261	
-0.203125	
-0.220093	
-0.255127	
-0.306824	
-0.371094	
-0.444092	
-0.520447	
-0.596497	
-0.667908	
-0.733704	
-0.788513	
-0.831543	
-0.862427	
-0.884583	
-0.89856	
-0.904541	
-0.904419	
-0.900513	
-0.896851	
-0.888306	
-0.869446	
-0.803528	
-0.627563	
-0.310852	
0.11145	
0.561157	
0.95929	
1.24457	
1.39349	
1.41455	
1.34113	
1.2005	
1.02612	
0.845215	
0.663452	
0.481934	
0.302673	
0.130615	
-0.020874	
-0.142151	
-0.225708	
-0.268372	
-0.276978	
-0.261292	
-0.237488	
-0.210693	
-0.198425	
-0.204468	
-0.230408	
-0.276245	
-0.338684	
-0.41156	
-0.489563	
-0.568359	
-0.642822	
-0.710938	
-0.774597	
-0.829834	
-0.87262	
-0.901855	
-0.919861	
-0.932617	
-0.939575	
-0.9422	
-0.93927	
-0.937256	
-0.934021	
-0.922058	
-0.875549	
-0.738708	
-0.464417	
-0.0647583	
0.395203	
0.83136	
1.17273	
1.38245	
1.45715	
1.42291	
1.31281	
1.16113	
0.99176	
0.816284	
0.640869	
0.461914	
0.287903	
0.126099	
-0.00769043	
-0.105652	
-0.170959	
-0.204468	
-0.206116	
-0.188965	
-0.165466	
-0.152832	
-0.153809	
-0.172058	
-0.21051	
-0.267761	
-0.336792	
-0.410034	
-0.482727	
-0.555298	
-0.625244	
-0.687744	
-0.747375	
-0.800659	
-0.843445	
-0.872437	
-0.888855	
-0.894287	
-0.891663	
-0.884399	
-0.872375	
-0.861938	
-0.852905	
-0.845032	
-0.840088	
-0.831787	
-0.80249	
-0.698425	
-0.465393	
-0.0983276	
0.348755	
0.795593	
1.16791	
1.41565	
1.52783	
1.51935	
1.42456	
1.27551	
1.09692	
0.911804	
0.730652	
0.548889	
0.370239	
0.208618	
0.0775757	
-0.0189819	
-0.0773315	
-0.098999	
-0.0916138	
-0.0668335	
-0.0387573	
-0.0165405	
-0.0115356	
-0.0315552	
-0.0720825	
-0.13446	
-0.207092	
-0.285828	
-0.368591	
-0.44873	
-0.525452	
-0.600708	
-0.668884	
-0.729675	
-0.782349	
-0.824768	
-0.85376	
-0.871277	
-0.878235	
-0.876343	
-0.867065	
-0.855774	
-0.850098	
-0.843445	
-0.839844	
-0.838745	
-0.825989	
-0.76886	
-0.603333	
-0.294006	
0.129944	
0.59375	
1.01379	
1.32977	
1.51135	
1.5647	
1.51569	
1.39844	
1.24011	
1.06714	
0.890076	
0.709229	
0.522583	
0.339844	
0.174072	
0.0377808	
-0.0577393	
-0.112854	
-0.13446	
-0.126221	
-0.103333	
-0.0805664	
-0.0706177	
-0.078064	
-0.104675	
-0.152405	
-0.213379	
-0.284119	
-0.363525	
-0.447754	
-0.531311	
-0.609497	
-0.679016	
-0.743713	
-0.802002	
-0.849731	
-0.887756	
-0.915588	
-0.931702	
-0.935486	
-0.929993	
-0.917969	
-0.901428	
-0.88678	
-0.871338	
-0.860229	
-0.853943	
-0.849548	
-0.832886	
-0.758728	
-0.562683	
-0.225281	
0.218994	
0.694641	
1.12134	
1.43365	
1.60864	
1.65155	
1.59253	
1.46179	
1.29144	
1.11017	
0.924133	
0.737427	
0.550537	
0.368835	
0.206787	
0.0786743	
-0.0113525	
-0.0635986	
-0.079895	
-0.0701904	
-0.0473022	
-0.0253296	
-0.0160522	
-0.0248413	
-0.0537109	
-0.0979004	
-0.159851	
-0.239807	
-0.324341	
-0.412292	
-0.500671	
-0.582764	
-0.658325	
-0.726746	
-0.786255	
-0.83667	
-0.877197	
-0.908325	
-0.931885	
-0.944214	
-0.944946	
-0.937378	
-0.922302	
-0.905884	
-0.888794	
-0.872314	
-0.861755	
-0.855957	
-0.851685	
-0.837952	
-0.768005	
-0.578003	
-0.244812	
0.195679	
0.668823	
1.09357	
1.4115	
1.59161	
1.64221	
1.58582	
1.45374	
1.27643	
1.07892	
0.875793	
0.671204	
0.471802	
0.283203	
0.119019	
-0.00482178	
-0.0836182	
-0.120117	
-0.11969	
-0.0928955	
-0.0542603	
-0.0196533	
0.00299072	
0.00299072	
-0.0202026	
-0.0663452	
-0.128357	
-0.203918	
-0.288147	
-0.375977	
-0.461792	
-0.541016	
-0.612976	
-0.68042	
-0.740173	
-0.786865	
-0.817627	
-0.833923	
-0.838257	
-0.835205	
-0.829834	
-0.824585	
-0.821594	
-0.816956	
-0.81134	
-0.792664	
-0.726196	
-0.550293	
-0.235901	
0.188965	
0.654846	
1.08008	
1.40887	
1.60779	
1.67535	
1.63141	
1.50848	
1.33881	
1.15002	
0.954834	
0.757996	
0.560181	
0.372131	
0.204163	
0.0716553	
-0.0175781	
-0.0641479	
-0.0758667	
-0.0644531	
-0.0394897	
-0.0153809	
-0.00317383	
-0.0132446	
-0.0457153	
-0.0966797	
-0.162659	
-0.239319	
-0.326538	
-0.412476	
-0.497131	
-0.57959	
-0.658386	
-0.728882	
-0.788147	
-0.834717	
-0.864197	
-0.882751	
-0.891846	
-0.897705	
-0.900818	
-0.903015	
-0.906189	
-0.911011	
-0.913574	
-0.8974	
-0.820068	
-0.619507	
-0.27356	
0.1828	
0.666016	
1.09839	
1.41754	
1.59503	
1.63965	
1.57568	
1.43585	
1.2558	
1.06128	
0.866577	
0.672791	
0.479553	
0.293762	
0.128357	
-0.00201416	
-0.0941772	
-0.146851	
-0.163757	
-0.153198	
-0.133301	
-0.114624	
-0.104675	
-0.115784	
-0.146545	
-0.197998	
-0.267029	
-0.345398	
-0.429688	
-0.515137	
-0.597717	
-0.68042	
-0.756958	
-0.825195	
-0.884766	
-0.935608	
-0.973206	
-0.995544	
-1.00372	
-1.00171	
-0.993774	
-0.985657	
-0.977051	
-0.967773	
-0.96283	
-0.959595	
-0.943787	
-0.873779	
-0.682678	
-0.340027	
0.114563	
0.601257	
1.04028	
1.37	
1.55927	
1.61462	
1.56189	
1.43176	
1.25568	
1.06152	
0.865417	
0.666016	
0.465393	
0.275452	
0.111572	
-0.0155029	
-0.0977783	
-0.138733	
-0.137939	
-0.113464	
-0.0791626	
-0.0506592	
-0.0374756	
-0.0454712	
-0.0786743	
-0.131653	
-0.198669	
-0.2771	
-0.362671	
-0.448914	
-0.533508	
-0.612915	
-0.684448	
-0.746216	
-0.793396	
-0.829712	
-0.854797	
-0.868896	
-0.874878	
-0.878235	
-0.879517	
-0.879883	
-0.876709	
-0.856079	
-0.778931	
-0.587952	
-0.255554	
0.180969	
0.645142	
1.05627	
1.35144	
1.51007	
1.54364	
1.47534	
1.336	
1.16071	
0.969727	
0.775024	
0.577148	
0.382324	
0.194824	
0.0331421	
-0.0891724	
-0.168396	
-0.208496	
-0.214355	
-0.198303	
-0.173584	
-0.153259	
-0.148376	
-0.165283	
-0.202759	
-0.258484	
-0.327515	
-0.404541	
-0.488525	
-0.570557	
-0.650452	
-0.722839	
-0.788391	
-0.846008	
-0.893433	
-0.931702	
-0.959778	
-0.976074	
-0.983093	
-0.980957	
-0.975586	
-0.970154	
-0.96637	
-0.962891	
-0.954529	
-0.919189	
-0.798218	
-0.53894	
-0.139282	
0.341187	
0.815125	
1.20789	
1.4715	
1.59607	
1.59265	
1.49695	
1.34161	
1.15955	
0.968811	
0.779175	
0.587585	
0.396362	
0.21637	
0.0639648	
-0.0515137	
-0.126221	
-0.163086	
-0.169678	
-0.15564	
-0.13446	
-0.119995	
-0.120728	
-0.138367	
-0.177612	
-0.237122	
-0.310486	
-0.390503	
-0.471741	
-0.553284	
-0.630859	
-0.701965	
-0.767456	
-0.823914	
-0.875305	
-0.918335	
-0.949463	
-0.971069	
-0.97937	
-0.976685	
-0.96698	
-0.951721	
-0.934326	
-0.917358	
-0.90625	
-0.897339	
-0.892334	
-0.892334	
-0.884155	
-0.81842	
-0.625183	
-0.276428	
0.187683	
0.683655	
1.12543	
1.45068	
1.63232	
1.68011	
1.62109	
1.48419	
1.30591	
1.11096	
0.913086	
0.716797	
0.52063	
0.332458	
0.165955	
0.0385132	
-0.0460205	
-0.0900269	
-0.101563	
-0.0888672	
-0.0657349	
-0.0487061	
-0.0470581	
-0.0672607	
-0.105408	
-0.161621	
-0.230957	
-0.31134	
-0.395386	
-0.48053	
-0.566101	
-0.645996	
-0.716614	
-0.780579	
-0.838562	
-0.882751	
-0.919128	
-0.942505	
-0.954895	
-0.958679	
-0.953308	
-0.937256	
-0.917908	
-0.895691	
-0.874023	
-0.856506	
-0.843811	
-0.838623	
-0.843079	
-0.844238	
-0.813293	
-0.687805	
-0.413513	
-0.000488281	
0.480957	
0.945923	
1.32385	
1.57043	
1.6756	
1.65948	
1.55225	
1.38635	
1.19519	
0.993286	
0.788025	
0.583008	
0.384644	
0.209961	
0.0738525	
-0.0158081	
-0.0617676	
-0.0707397	
-0.0541992	
-0.0219727	
0.0088501	
0.0263672	
0.0230713	
-0.00384521	
-0.0528564	
-0.12146	
-0.205017	
-0.295349	
-0.388489	
-0.47821	
-0.564453	
-0.645569	
-0.717712	
-0.782227	
-0.83783	
-0.882751	
-0.919006	
-0.943054	
-0.953186	
-0.951172	
-0.939697	
-0.92627	
-0.911743	
-0.896912	
-0.887329	
-0.884338	
-0.88562	
-0.886841	
-0.865784	
-0.758606	
-0.505676	
-0.110291	
0.370239	
0.849548	
1.25067	
1.52368	
1.65369	
1.65948	
1.57129	
1.41949	
1.23511	
1.04205	
0.845886	
0.647949	
0.453735	
0.274536	
0.124268	
0.00769043	
-0.0673218	
-0.100647	
-0.0996094	
-0.0790405	
-0.0527954	
-0.0352173	
-0.0361328	
-0.0551147	
-0.0941162	
-0.154297	
-0.227966	
-0.311218	
-0.402222	
-0.493408	
-0.578979	
-0.66095	
-0.735901	
-0.803345	
-0.861206	
-0.907471	
-0.943115	
-0.970703	
-0.988281	
-0.995911	
-0.994019	
-0.985779	
-0.969238	
-0.947327	
-0.925354	
-0.906677	
-0.892395	
-0.886658	
-0.887817	
-0.895142	
-0.900146	
-0.870544	
-0.737488	
-0.446655	
-0.0100708	
0.492981	
0.978638	
1.37317	
1.63306	
1.75549	
1.75281	
1.65472	
1.49683	
1.30707	
1.10803	
0.908508	
0.709473	
0.515381	
0.335815	
0.187134	
0.079834	
0.0115356	
-0.0160522	
-0.0142822	
0.00604248	
0.0280762	
0.0393677	
0.0327759	
-0.00115967	
-0.053894	
-0.123108	
-0.202087	
-0.287598	
-0.374329	
-0.459595	
-0.541504	
-0.616882	
-0.68634	
-0.747681	
-0.802368	
-0.849121	
-0.886353	
-0.912781	
-0.928406	
-0.936523	
-0.93988	
-0.939331	
-0.934143	
-0.925842	
-0.910156	
-0.894287	
-0.877625	
-0.865356	
-0.857117	
-0.856445	
-0.863098	
-0.876282	
-0.889404	
-0.893921	
-0.840088	
-0.652954	
-0.30188	
0.174316	
0.69342	
1.17358	
1.54761	
1.77759	
1.85919	
1.81677	
1.68951	
1.51038	
1.31018	
1.10278	
0.896912	
0.693542	
0.499817	
0.329285	
0.196533	
0.10437	
0.0557251	
0.0441895	
0.0592041	
0.0857544	
0.111328	
0.119019	
0.104431	
0.0673218	
0.0067749	
-0.0667114	
-0.149658	
-0.240112	
-0.335205	
-0.426331	
-0.513306	
-0.594543	
-0.668762	
-0.734497	
-0.789856	
-0.832336	
-0.863159	
-0.879639	
-0.889099	
-0.892517	
-0.888245	
-0.879333	
-0.866638	
-0.852478	
-0.83905	
-0.82312	
-0.810059	
-0.800476	
-0.796204	
-0.798889	
-0.810486	
-0.817261	
-0.781677	
-0.636414	
-0.338318	
0.0950317	
0.590637	
1.06696	
1.44403	
1.68658	
1.7868	
1.76129	
1.64532	
1.47247	
1.27283	
1.06781	
0.863831	
0.661865	
0.467285	
0.294617	
0.156738	
0.0648193	
0.015564	
0.00701904	
0.0247192	
0.0530396	
0.0758057	
0.0875854	
0.0802612	
0.0494995	
-0.00531006	
-0.0765991	
-0.161926	
-0.25293	
-0.345947	
-0.433777	
-0.515625	
-0.595215	
-0.670105	
-0.736023	
-0.79248	
-0.841064	
-0.87915	
-0.909851	
-0.930969	
-0.940002	
-0.936218	
-0.92157	
-0.9021	
-0.882263	
-0.867065	
-0.853943	
-0.845886	
-0.844849	
-0.847778	
-0.846313	
-0.798279	
-0.638245	
-0.319153	
0.1297	
0.62793	
1.09589	
1.46442	
1.69055	
1.77551	
1.74231	
1.62457	
1.45477	
1.26068	
1.06342	
0.869751	
0.674194	
0.48468	
0.314209	
0.174927	
0.072937	
0.0148926	
-0.00402832	
0.00421143	
0.0271606	
0.0493774	
0.059082	
0.0497437	
0.0175781	
-0.0358276	
-0.108032	
-0.191406	
-0.281616	
-0.372681	
-0.461548	
-0.546875	
-0.625732	
-0.693176	
-0.753479	
-0.804321	
-0.844849	
-0.877625	
-0.903442	
-0.921631	
-0.926025	
-0.920532	
-0.90625	
-0.888123	
-0.869751	
-0.852661	
-0.838623	
-0.828369	
-0.82489	
-0.824036	
-0.820496	
-0.794006	
-0.682251	
-0.423279	
-0.0221558	
0.460388	
0.938171	
1.33319	
1.59967	
1.72833	
1.7262	
1.63184	
1.47797	
1.29681	
1.10443	
0.910889	
0.716125	
0.522766	
0.342102	
0.191223	
0.081543	
0.0124512	
-0.0218506	
-0.0231934	
-0.00592041	
0.0140381	
0.0214844	
0.0109863	
-0.0197754	
-0.0669556	
-0.124939	
-0.196472	
-0.282043	
-0.372375	
-0.456604	
-0.539001	
-0.614929	
-0.68158	
-0.740479	
-0.792236	
-0.832825	
-0.864685	
-0.890869	
-0.90625	
-0.914246	
-0.914001	
-0.904297	
-0.888672	
-0.867737	
-0.846191	
-0.82605	
-0.813843	
-0.810181	
-0.812073	
-0.820679	
-0.828491	
-0.815308	
-0.72113	
-0.489075	
-0.110046	
0.356262	
0.828979	
1.22845	
1.5033	
1.64075	
1.65582	
1.57355	
1.42584	
1.24774	
1.05957	
0.871582	
0.6828	
0.497559	
0.324524	
0.18042	
0.0753784	
0.0123291	
-0.0162964	
-0.015564	
0.00244141	
0.0249634	
0.0352173	
0.0285034	
0.00158691	
-0.0466919	
-0.112854	
-0.191345	
-0.277222	
-0.365295	
-0.450989	
-0.530945	
-0.599915	
-0.66217	
-0.718384	
-0.768066	
-0.812073	
-0.847839	
-0.873779	
-0.887207	
-0.893982	
-0.892761	
-0.883728	
-0.870789	
-0.854187	
-0.836182	
-0.820801	
-0.811035	
-0.806396	
-0.805725	
-0.81073	
-0.817932	
-0.821899	
-0.79657	
-0.675964	
-0.408386	
-0.00317383	
0.468811	
0.926392	
1.29755	
1.53485	
1.63525	
1.61963	
1.51495	
1.35547	
1.17249	
0.983154	
0.793579	
0.610962	
0.437317	
0.279175	
0.150024	
0.0596924	
0.010437	
-0.00170898	
0.012207	
0.0366821	
0.0559082	
0.0601196	
0.0452881	
0.0100098	
-0.0444946	
-0.111694	
-0.189758	
-0.274902	
-0.358948	
-0.440918	
-0.519043	
-0.58905	
-0.653625	
-0.710388	
-0.757874	
-0.794678	
-0.820068	
-0.83844	
-0.845398	
-0.840759	
-0.830017	
-0.8172	
-0.800598	
-0.787903	
-0.78302	
-0.783813	
-0.790283	
-0.795288	
-0.785217	
-0.709106	
-0.51123	
-0.169678	
0.269287	
0.725281	
1.12219	
1.40686	
1.55597	
1.58325	
1.51654	
1.38501	
1.21973	
1.04236	
0.865234	
0.689575	
0.510254	
0.336243	
0.182495	
0.0606689	
-0.0161133	
-0.0527344	
-0.0628052	
-0.052063	
-0.0339355	
-0.0235596	
-0.0278931	
-0.0523682	
-0.0951538	
-0.154846	
-0.229004	
-0.311951	
-0.394775	
-0.475891	
-0.55188	
-0.624329	
-0.690552	
-0.748901	
-0.796936	
-0.834167	
-0.862549	
-0.88208	
-0.893372	
-0.897766	
-0.890503	
-0.877686	
-0.85968	
-0.8396	
-0.822144	
-0.808594	
-0.800964	
-0.80011	
-0.805603	
-0.812805	
-0.81311	
-0.766479	
-0.599548	
-0.27533	
0.165588	
0.64563	
1.08093	
1.40894	
1.60181	
1.6601	
1.61072	
1.48962	
1.32843	
1.15466	
0.979553	
0.80249	
0.623474	
0.447449	
0.287537	
0.158569	
0.0650635	
0.00939941	
-0.0146484	
-0.0150146	
-0.00439453	
0.00146484	
-0.00341797	
-0.0246582	
-0.0667725	
-0.125793	
-0.196655	
-0.275208	
-0.356628	
-0.438293	
-0.514587	
-0.585144	
-0.652588	
-0.711426	
-0.759338	
-0.802063	
-0.834961	
-0.859314	
-0.875732	
-0.885315	
-0.886963	
-0.883789	
-0.878235	
-0.869873	
-0.85968	
-0.844238	
-0.828674	
-0.817749	
-0.806641	
-0.801208	
-0.7995	
-0.80304	
-0.809753	
-0.82428	
-0.83844	
-0.822144	
-0.709351	
-0.441162	
-0.0282593	
0.4646	
0.943481	
1.33557	
1.59277	
1.70459	
1.69354	
1.59283	
1.43555	
1.25977	
1.08167	
0.907959	
0.731201	
0.555176	
0.389099	
0.249207	
0.142883	
0.0743408	
0.0423584	
0.0388184	
0.0501709	
0.0630493	
0.0636597	
0.0487061	
0.0161133	
-0.0357056	
-0.102234	
-0.179077	
-0.261658	
-0.341309	
-0.420654	
-0.497131	
-0.564575	
-0.625244	
-0.68042	
-0.726929	
-0.766602	
-0.798218	
-0.817566	
-0.830688	
-0.835632	
-0.834106	
-0.8302	
-0.821533	
-0.808777	
-0.794128	
-0.781738	
-0.773438	
-0.767456	
-0.766357	
-0.770691	
-0.783264	
-0.802002	
-0.819397	
-0.803589	
-0.69812	
-0.448364	
-0.0562134	
0.408264	
0.865051	
1.23865	
1.4787	
1.58264	
1.57068	
1.47607	
1.32935	
1.16077	
0.989746	
0.821167	
0.650757	
0.479187	
0.314758	
0.175354	
0.0679321	
-0.00634766	
-0.0435181	
-0.0524292	
-0.0470581	
-0.0388794	
-0.0368652	
-0.0505981	
-0.083252	
-0.136292	
-0.205627	
-0.281311	
-0.36084	
-0.442383	
-0.520691	
-0.596252	
-0.663086	
-0.721375	
-0.769653	
-0.807556	
-0.838928	
-0.864136	
-0.875183	
-0.880859	
-0.881653	
-0.875793	
-0.869263	
-0.860535	
-0.854187	
-0.845581	
-0.832458	
-0.819702	
-0.809875	
-0.799072	
-0.79425	
-0.799438	
-0.807312	
-0.817139	
-0.830505	
-0.837463	
-0.788025	
-0.615112	
-0.284912	
0.170776	
0.66925	
1.12317	
1.46539	
1.66589	
1.72925	
1.68237	
1.56079	
1.39673	
1.21985	
1.04449	
0.874573	
0.703796	
0.534912	
0.379517	
0.247925	
0.15033	
0.0852661	
0.0540771	
0.0477905	
0.0535278	
0.0566406	
0.0494995	
0.0269775	
-0.0137939	
-0.0703735	
-0.139282	
-0.219971	
-0.304382	
-0.387756	
-0.464539	
-0.534424	
-0.596741	
-0.652222	
-0.702148	
-0.74054	
-0.770996	
-0.796204	
-0.813782	
-0.824768	
-0.829468	
-0.826538	
-0.820679	
-0.814758	
-0.810425	
-0.803284	
-0.791992	
-0.781433	
-0.774109	
-0.770691	
-0.770813	
-0.772156	
-0.773438	
-0.781982	
-0.79541	
-0.810669	
-0.820618	
-0.801514	
-0.687927	
-0.419861	
-0.00384521	
0.492126	
0.979492	
1.3783	
1.64178	
1.7572	
1.74469	
1.64172	
1.48517	
1.30725	
1.1283	
0.956116	
0.785645	
0.612793	
0.448914	
0.309082	
0.19989	
0.12561	
0.0872803	
0.0769653	
0.088562	
0.102783	
0.108215	
0.0950317	
0.0609741	
0.00860596	
-0.055603	
-0.130676	
-0.209412	
-0.292358	
-0.373535	
-0.449463	
-0.52356	
-0.586548	
-0.640564	
-0.683838	
-0.715637	
-0.743408	
-0.763611	
-0.777161	
-0.781372	
-0.781799	
-0.778687	
-0.771729	
-0.760254	
-0.746826	
-0.733459	
-0.725525	
-0.721436	
-0.719666	
-0.726746	
-0.744507	
-0.768921	
-0.785339	
-0.767151	
-0.655029	
-0.393799	
0.00561523	
0.478516	
0.9375	
1.31055	
1.55157	
1.65387	
1.64044	
1.54083	
1.38837	
1.21625	
1.04456	
0.879456	
0.715088	
0.546326	
0.383545	
0.238831	
0.124512	
0.0469971	
0.00720215	
-0.00512695	
6.10352E-05	
0.00842285	
0.0112305	
-0.00262451	
-0.0324707	
-0.0808716	
-0.142212	
-0.215088	
-0.296509	
-0.3797	
-0.462524	
-0.541687	
-0.611694	
-0.675415	
-0.72876	
-0.775574	
-0.815002	
-0.843994	
-0.866943	
-0.8797	
-0.881592	
-0.878967	
-0.873413	
-0.863037	
-0.847168	
-0.827698	
-0.810974	
-0.799988	
-0.791626	
-0.789063	
-0.792358	
-0.802612	
-0.817444	
-0.828979	
-0.796204	
-0.657532	
-0.362366	
0.0684814	
0.560669	
1.02618	
1.39343	
1.62177	
1.7121	
1.68707	
1.58417	
1.43225	
1.26355	
1.091	
0.925537	
0.761169	
0.592529	
0.430176	
0.291321	
0.182617	
0.107971	
0.0689697	
0.0598145	
0.0623779	
0.0665894	
0.0634155	
0.043335	
0.00494385	
-0.0497437	
-0.117737	
-0.197205	
-0.280823	
-0.362305	
-0.441589	
-0.517273	
-0.58728	
-0.649292	
-0.701538	
-0.745789	
-0.781616	
-0.807068	
-0.821289	
-0.8302	
-0.835449	
-0.83197	
-0.824951	
-0.816284	
-0.804199	
-0.792908	
-0.781738	
-0.773682	
-0.769409	
-0.768921	
-0.775757	
-0.785095	
-0.796631	
-0.800537	
-0.764282	
-0.622986	
-0.32959	
0.0950317	
0.576477	
1.02802	
1.3775	
1.58771	
1.66187	
1.62463	
1.51202	
1.35883	
1.18701	
1.01721	
0.850769	
0.683838	
0.515991	
0.358521	
0.225891	
0.132141	
0.0736694	
0.0465698	
0.0470581	
0.060791	
0.0726318	
0.072876	
0.0561523	
0.0186157	
-0.0349731	
-0.105164	
-0.185913	
-0.269592	
-0.352295	
-0.427307	
-0.497375	
-0.562805	
-0.616028	
-0.665161	
-0.708801	
-0.746094	
-0.773376	
-0.789124	
-0.796448	
-0.797302	
-0.78949	
-0.776855	
-0.760986	
-0.745422	
-0.728882	
-0.71759	
-0.713318	
-0.716492	
-0.72644	
-0.739319	
-0.742493	
-0.69342	
-0.527405	
-0.213562	
0.215271	
0.677063	
1.08759	
1.38702	
1.55176	
1.59302	
1.53479	
1.41119	
1.25385	
1.08734	
0.921875	
0.758179	
0.589905	
0.424988	
0.275146	
0.151672	
0.062439	
0.00897217	
-0.0153198	
-0.0166626	
-0.00939941	
-0.00628662	
-0.0175171	
-0.0432129	
-0.0866089	
-0.143799	
-0.213806	
-0.29364	
-0.375916	
-0.456665	
-0.534729	
-0.603638	
-0.663513	
-0.715393	
-0.757874	
-0.792419	
-0.817139	
-0.835999	
-0.849243	
-0.857666	
-0.858826	
-0.850464	
-0.839111	
-0.823975	
-0.805054	
-0.789978	
-0.778015	
-0.774902	
-0.779602	
-0.791016	
-0.80365	
-0.801697	
-0.742126	
-0.559692	
-0.221313	
0.231567	
0.710938	
1.13062	
1.43372	
1.59943	
1.63849	
1.58075	
1.46179	
1.31158	
1.14856	
0.98761	
0.82489	
0.657227	
0.486572	
0.324036	
0.18927	
0.0888672	
0.0247192	
-0.00708008	
-0.0155029	
-0.0131836	
-0.0131836	
-0.0219116	
-0.046814	
-0.0917358	
-0.150269	
-0.218323	
-0.292419	
-0.369751	
-0.447266	
-0.522583	
-0.592834	
-0.653015	
-0.704407	
-0.751648	
-0.791504	
-0.822815	
-0.84491	
-0.856812	
-0.864075	
-0.867859	
-0.865234	
-0.861267	
-0.852661	
-0.84082	
-0.827637	
-0.814819	
-0.80542	
-0.800842	
-0.802734	
-0.810242	
-0.82196	
-0.836609	
-0.837097	
-0.778015	
-0.594788	
-0.253296	
0.202209	
0.689819	
1.1261	
1.4472	
1.62781	
1.67389	
1.61676	
1.49231	
1.33215	
1.16309	
0.999878	
0.839294	
0.674683	
0.508484	
0.355103	
0.22876	
0.134949	
0.0756226	
0.0478516	
0.0489502	
0.0595703	
0.0612183	
0.0527344	
0.0263062	
-0.0176392	
-0.0756836	
-0.145081	
-0.223755	
-0.303955	
-0.383118	
-0.459839	
-0.533508	
-0.599365	
-0.654846	
-0.703613	
-0.742371	
-0.771484	
-0.792175	
-0.805054	
-0.809265	
-0.807922	
-0.798706	
-0.786438	
-0.771362	
-0.75531	
-0.738708	
-0.72876	
-0.726318	
-0.730713	
-0.740051	
-0.749084	
-0.729492	
-0.622009	
-0.369263	
0.0183105	
0.470764	
0.905762	
1.25616	
1.48425	
1.57849	
1.55969	
1.45685	
1.31079	
1.15027	
0.987183	
0.823853	
0.65448	
0.482361	
0.31897	
0.176941	
0.0718384	
0.00335693	
-0.0310059	
-0.0330811	
-0.0244751	
-0.0169067	
-0.0195923	
-0.0368042	
-0.0696411	
-0.119934	
-0.18689	
-0.264709	
-0.345337	
-0.424927	
-0.501587	
-0.573486	
-0.641479	
-0.702454	
-0.755798	
-0.800537	
-0.8349	
-0.857849	
-0.871643	
-0.878723	
-0.87616	
-0.867004	
-0.85437	
-0.836121	
-0.821045	
-0.806885	
-0.796692	
-0.796143	
-0.80011	
-0.808655	
-0.816162	
-0.792969	
-0.674927	
-0.410034	
-0.00714111	
0.463013	
0.916687	
1.28516	
1.52527	
1.6283	
1.61646	
1.52197	
1.37885	
1.21686	
1.05322	
0.895264	
0.732483	
0.563293	
0.398376	
0.254517	
0.141541	
0.0609131	
0.0155029	
-0.00109863	
-0.00250244	
0.000610352	
-0.00537109	
-0.0267944	
-0.0639038	
-0.11676	
-0.181274	
-0.256958	
-0.336975	
-0.417847	
-0.493713	
-0.568298	
-0.635864	
-0.697021	
-0.750244	
-0.793457	
-0.826355	
-0.853088	
-0.87146	
-0.876221	
-0.872131	
-0.860474	
-0.846985	
-0.833557	
-0.821655	
-0.813232	
-0.810852	
-0.814453	
-0.822205	
-0.827148	
-0.820923	
-0.758667	
-0.575195	
-0.236145	
0.21106	
0.682251	
1.09772	
1.39801	
1.55878	
1.59241	
1.53308	
1.40967	
1.25751	
1.09576	
0.934692	
0.769592	
0.601746	
0.430115	
0.272705	
0.141663	
0.0458984	
-0.0131836	
-0.0393066	
-0.0422974	
-0.0368652	
-0.0349731	
-0.0455933	
-0.0750732	
-0.120605	
-0.180298	
-0.252625	
-0.331543	
-0.411865	
-0.489868	
-0.562073	
-0.627686	
-0.687805	
-0.73938	
-0.783691	
-0.818604	
-0.844666	
-0.864136	
-0.873535	
-0.875977	
-0.875061	
-0.869751	
-0.859558	
-0.847473	
-0.833008	
-0.818054	
-0.806641	
-0.798218	
-0.79248	
-0.793701	
-0.798279	
-0.806885	
-0.81958	
-0.821899	
-0.773865	
-0.610046	
-0.286926	
0.167053	
0.6651	
1.11743	
1.4599	
1.6582	
1.71783	
1.66895	
1.54938	
1.39307	
1.22601	
1.06384	
0.899658	
0.728516	
0.554626	
0.394287	
0.264221	
0.17041	
0.110962	
0.0818481	
0.0720215	
0.0742798	
0.0751953	
0.065979	
0.0376587	
-0.00921631	
-0.0725708	
-0.147522	
-0.227539	
-0.311707	
-0.393127	
-0.46875	
-0.537842	
-0.598938	
-0.652893	
-0.69873	
-0.733093	
-0.757324	
-0.77478	
-0.786926	
-0.788208	
-0.781982	
-0.772095	
-0.758362	
-0.743591	
-0.727905	
-0.715576	
-0.704468	
-0.701477	
-0.706177	
-0.719055	
-0.73822	
-0.755737	
-0.759521	
-0.704041	
-0.524292	
-0.193909	
0.24292	
0.700928	
1.10156	
1.38666	
1.54059	
1.57172	
1.50757	
1.38251	
1.23053	
1.07465	
0.918884	
0.755249	
0.583069	
0.413513	
0.262146	
0.140869	
0.0604248	
0.0206909	
0.00848389	
0.0135498	
0.0200195	
0.0194702	
0.00518799	
-0.0273438	
-0.0770874	
-0.141663	
-0.216003	
-0.295593	
-0.374573	
-0.451416	
-0.520203	
-0.58374	
-0.641846	
-0.694031	
-0.738159	
-0.769531	
-0.793274	
-0.806152	
-0.802002	
-0.790405	
-0.777893	
-0.763306	
-0.748535	
-0.736511	
-0.730225	
-0.731995	
-0.740234	
-0.751953	
-0.752808	
-0.701965	
-0.538391	
-0.235291	
0.175659	
0.614502	
0.999939	
1.2782	
1.42596	
1.45728	
1.3988	
1.28406	
1.14404	
0.995911	
0.846191	
0.692017	
0.524109	
0.350952	
0.191711	
0.0610352	
-0.0356445	
-0.0953369	
-0.121826	
-0.129578	
-0.130676	
-0.133728	
-0.141479	
-0.165344	
-0.20874	
-0.268494	
-0.338989	
-0.412964	
-0.486938	
-0.556458	
-0.62616	
-0.68866	
-0.743286	
-0.791687	
-0.827698	
-0.857849	
-0.879028	
-0.892944	
-0.89856	
-0.897888	
-0.890991	
-0.879517	
-0.864563	
-0.849792	
-0.838135	
-0.829102	
-0.825439	
-0.826477	
-0.838867	
-0.85321	
-0.863586	
-0.848083	
-0.756165	
-0.527771	
-0.15387	
0.309509	
0.776245	
1.16803	
1.43311	
1.55823	
1.56537	
1.48651	
1.35773	
1.21124	
1.06299	
0.914124	
0.754456	
0.582275	
0.409668	
0.252747	
0.125	
0.0320435	
-0.0244751	
-0.0551147	
-0.0628662	
-0.0619507	
-0.06427	
-0.0772095	
-0.109619	
-0.156311	
-0.217712	
-0.289673	
-0.364807	
-0.440613	
-0.515137	
-0.585266	
-0.651306	
-0.705444	
-0.750305	
-0.787415	
-0.818481	
-0.842773	
-0.860413	
-0.871399	
-0.877258	
-0.876038	
-0.865356	
-0.851013	
-0.834778	
-0.820251	
-0.808411	
-0.801392	
-0.797607	
-0.799866	
-0.808228	
-0.820068	
-0.83667	
-0.842407	
-0.799377	
-0.648987	
-0.345764	
0.0862427	
0.570313	
1.02148	
1.36438	
1.56683	
1.63501	
1.59674	
1.48682	
1.34088	
1.18243	
1.02393	
0.860901	
0.690796	
0.519775	
0.355469	
0.215088	
0.113525	
0.0462036	
0.00952148	
-0.00146484	
-0.000671387	
0.00256348	
-0.00671387	
-0.0305176	
-0.0732422	
-0.13031	
-0.197876	
-0.273865	
-0.351074	
-0.427368	
-0.502197	
-0.570618	
-0.632324	
-0.685303	
-0.729858	
-0.763916	
-0.790588	
-0.809265	
-0.81897	
-0.823059	
-0.818909	
-0.808655	
-0.798584	
-0.788879	
-0.779114	
-0.764771	
-0.752563	
-0.747803	
-0.7453	
-0.746033	
-0.750244	
-0.758118	
-0.77124	
-0.790039	
-0.785461	
-0.697937	
-0.467773	
-0.0836792	
0.389343	
0.863403	
1.25909	
1.52399	
1.64557	
1.64069	
1.54828	
1.40381	
1.23938	
1.07446	
0.910095	
0.74231	
0.57196	
0.409058	
0.26825	
0.157959	
0.0817871	
0.0383301	
0.0221558	
0.0183716	
0.0181274	
0.0131836	
-0.0055542	
-0.0447998	
-0.098877	
-0.167175	
-0.245117	
-0.3255	
-0.406799	
-0.485718	
-0.561523	
-0.63031	
-0.694641	
-0.751953	
-0.797729	
-0.831665	
-0.855896	
-0.869385	
-0.876221	
-0.879578	
-0.879822	
-0.87384	
-0.860779	
-0.842529	
-0.825684	
-0.81665	
-0.81073	
-0.808411	
-0.814026	
-0.824219	
-0.835693	
-0.846191	
-0.830444	
-0.717102	
-0.45282	
-0.0448608	
0.442383	
0.919678	
1.31122	
1.57037	
1.68555	
1.68256	
1.59412	
1.45203	
1.28723	
1.1217	
0.956909	
0.791443	
0.618591	
0.445984	
0.289856	
0.164429	
0.0724487	
0.013916	
-0.0133057	
-0.0198975	
-0.0172729	
-0.019165	
-0.0365601	
-0.0702515	
-0.122131	
-0.188049	
-0.25946	
-0.336975	
-0.417297	
-0.497559	
-0.574524	
-0.644836	
-0.711182	
-0.766235	
-0.809937	
-0.84613	
-0.873413	
-0.893433	
-0.903687	
-0.905884	
-0.900635	
-0.892761	
-0.88147	
-0.868164	
-0.853516	
-0.837646	
-0.826477	
-0.820007	
-0.818542	
-0.821838	
-0.830017	
-0.846069	
-0.858765	
-0.845886	
-0.751526	
-0.502136	
-0.0990601	
0.395569	
0.890564	
1.30365	
1.58252	
1.71515	
1.71906	
1.63037	
1.48059	
1.30408	
1.1261	
0.950134	
0.778137	
0.603577	
0.434326	
0.287109	
0.168701	
0.085022	
0.0393677	
0.0276489	
0.034729	
0.0492554	
0.0559692	
0.0466309	
0.0168457	
-0.0321045	
-0.097168	
-0.174805	
-0.258911	
-0.346863	
-0.435059	
-0.520813	
-0.597656	
-0.664185	
-0.724854	
-0.775146	
-0.814453	
-0.842346	
-0.859863	
-0.869873	
-0.87085	
-0.864868	
-0.851624	
-0.835571	
-0.818115	
-0.799011	
-0.777649	
-0.760681	
-0.754395	
-0.758118	
-0.768921	
-0.781494	
-0.778992	
-0.705017	
-0.492126	
-0.128662	
0.336548	
0.816772	
1.22699	
1.5105	
1.65009	
1.66077	
1.57117	
1.41992	
1.24146	
1.05963	
0.884583	
0.712341	
0.533569	
0.360352	
0.207764	
0.0913696	
0.00756836	
-0.0421143	
-0.0595093	
-0.0529175	
-0.0377808	
-0.0303955	
-0.041626	
-0.0719604	
-0.117798	
-0.178589	
-0.252686	
-0.335083	
-0.418152	
-0.500427	
-0.58197	
-0.658081	
-0.725891	
-0.783508	
-0.834595	
-0.878723	
-0.913513	
-0.938965	
-0.953918	
-0.959839	
-0.958679	
-0.948975	
-0.933594	
-0.919067	
-0.905701	
-0.89032	
-0.876709	
-0.869751	
-0.872559	
-0.88031	
-0.886414	
-0.849121	
-0.700378	
-0.391846	
0.0532837	
0.55658	
1.03052	
1.40527	
1.63678	
1.72589	
1.69745	
1.58643	
1.42896	
1.25165	
1.07404	
0.901489	
0.724304	
0.544556	
0.374084	
0.224487	
0.109131	
0.0296021	
-0.013855	
-0.0249634	
-0.0203857	
-0.0137329	
-0.0168457	
-0.0343628	
-0.0648804	
-0.114868	
-0.179382	
-0.257141	
-0.340454	
-0.427856	
-0.51416	
-0.595703	
-0.669006	
-0.734009	
-0.789307	
-0.837158	
-0.877319	
-0.911255	
-0.936768	
-0.949219	
-0.956543	
-0.955017	
-0.946167	
-0.933228	
-0.91626	
-0.900024	
-0.884521	
-0.86969	
-0.858826	
-0.855896	
-0.864197	
-0.875977	
-0.874695	
-0.811096	
-0.615479	
-0.25354	
0.225037	
0.733704	
1.18481	
1.51886	
1.7077	
1.75751	
1.69617	
1.55933	
1.38	
1.19165	
1.00989	
0.830811	
0.651489	
0.476379	
0.315552	
0.183411	
0.0861206	
0.0301514	
0.0103149	
0.0127563	
0.0281372	
0.0419312	
0.0432739	
0.0259399	
-0.0133667	
-0.071228	
-0.142151	
-0.224304	
-0.310425	
-0.397217	
-0.484985	
-0.565979	
-0.645752	
-0.716858	
-0.776123	
-0.820496	
-0.855225	
-0.883057	
-0.900085	
-0.907166	
-0.905945	
-0.893555	
-0.875977	
-0.856201	
-0.839661	
-0.82019	
-0.804443	
-0.799438	
-0.80426	
-0.806763	
-0.783875	
-0.672729	
-0.415894	
-0.0143433	
0.462952	
0.929871	
1.31281	
1.57013	
1.68488	
1.6745	
1.57117	
1.41125	
1.22278	
1.02856	
0.834045	
0.645813	
0.4599	
0.285461	
0.144226	
0.0411377	
-0.0237427	
-0.0493774	
-0.045105	
-0.0215454	
0.00610352	
0.0217896	
0.0196533	
0.000366211	
-0.0406494	
-0.0982056	
-0.170898	
-0.253662	
-0.341797	
-0.429749	
-0.514771	
-0.591309	
-0.660461	
-0.721497	
-0.770874	
-0.810303	
-0.840454	
-0.857605	
-0.865234	
-0.864441	
-0.85968	
-0.852905	
-0.846924	
-0.845032	
-0.84552	
-0.836243	
-0.788452	
-0.639099	
-0.343445	
0.0787354	
0.555908	
1.00189	
1.35114	
1.56042	
1.6319	
1.59113	
1.47272	
1.31049	
1.12897	
0.946594	
0.767395	
0.585693	
0.403076	
0.233337	
0.0907593	
-0.0170898	
-0.0880737	
-0.122131	
-0.125916	
-0.115967	
-0.101379	
-0.0927124	
-0.0999756	
-0.12561	
-0.171509	
-0.231689	
-0.307617	
-0.389282	
-0.472351	
-0.556946	
-0.640381	
-0.714844	
-0.778748	
-0.831665	
-0.874207	
-0.909424	
-0.934021	
-0.945435	
-0.948059	
-0.944641	
-0.934082	
-0.921875	
-0.907593	
-0.894897	
-0.888977	
-0.888733	
-0.891357	
-0.894043	
-0.86261	
-0.732849	
-0.445557	
-0.010376	
0.498352	
0.98053	
1.36182	
1.60425	
1.70215	
1.67828	
1.56775	
1.40424	
1.2243	
1.04498	
0.867737	
0.689941	
0.509888	
0.335205	
0.184875	
0.0687866	
-0.00927734	
-0.0482178	
-0.0591431	
-0.0560303	
-0.0443726	
-0.0401611	
-0.0523071	
-0.0820313	
-0.126709	
-0.183533	
-0.254517	
-0.337036	
-0.423584	
-0.508118	
-0.588196	
-0.666382	
-0.735107	
-0.793945	
-0.843933	
-0.885986	
-0.914612	
-0.932312	
-0.939453	
-0.935486	
-0.925171	
-0.910034	
-0.894775	
-0.884033	
-0.875427	
-0.874695	
-0.880554	
-0.886108	
-0.864685	
-0.759949	
-0.505859	
-0.10321	
0.384399	
0.865906	
1.26147	
1.52649	
1.64899	
1.64508	
1.54865	
1.39148	
1.20807	
1.01868	
0.833069	
0.643188	
0.454163	
0.276062	
0.125549	
0.0123291	
-0.0596924	
-0.0953979	
-0.0975952	
-0.0811768	
-0.059082	
-0.0473633	
-0.0530396	
-0.0797729	
-0.125549	
-0.189026	
-0.264404	
-0.344177	
-0.425964	
-0.51062	
-0.593201	
-0.667664	
-0.732056	
-0.78479	
-0.829773	
-0.867432	
-0.897217	
-0.918762	
-0.930359	
-0.93335	
-0.931885	
-0.922852	
-0.910645	
-0.895935	
-0.879456	
-0.86499	
-0.860107	
-0.860413	
-0.863464	
-0.861328	
-0.818481	
-0.666992	
-0.356506	
0.0895386	
0.592773	
1.06287	
1.42834	
1.65198	
1.73297	
1.69714	
1.57593	
1.40649	
1.21875	
1.02515	
0.83313	
0.64209	
0.457336	
0.2901	
0.152771	
0.0567017	
0.00354004	
-0.0168457	
-0.012085	
0.00415039	
0.0189819	
0.0215454	
0.00512695	
-0.031189	
-0.0853271	
-0.155273	
-0.233582	
-0.317078	
-0.403748	
-0.484314	
-0.559937	
-0.628479	
-0.688538	
-0.74176	
-0.789734	
-0.827515	
-0.85437	
-0.872192	
-0.882202	
-0.882385	
-0.875427	
-0.862488	
-0.84613	
-0.829834	
-0.812622	
-0.799011	
-0.789246	
-0.787415	
-0.791687	
-0.790771	
-0.741516	
-0.577942	
-0.261353	
0.178894	
0.65918	
1.09351	
1.42279	
1.61432	
1.67072	
1.61621	
1.48529	
1.30707	
1.11304	
0.91864	
0.726746	
0.533447	
0.351685	
0.196289	
0.0795898	
0.00793457	
-0.0258179	
-0.0252075	
-0.00488281	
0.0206299	
0.0380249	
0.0421143	
0.0263062	
-0.0114136	
-0.0696411	
-0.143372	
-0.225098	
-0.312866	
-0.398438	
-0.475952	
-0.549011	
-0.614929	
-0.675598	
-0.7276	
-0.765747	
-0.792542	
-0.810059	
-0.815552	
-0.809021	
-0.802368	
-0.796082	
-0.789795	
-0.784546	
-0.779846	
-0.771973	
-0.744873	
-0.648682	
-0.42334	
-0.0565796	
0.394165	
0.848877	
1.23096	
1.49152	
1.61298	
1.60956	
1.51276	
1.35583	
1.17096	
0.982361	
0.797119	
0.610962	
0.425903	
0.254333	
0.110229	
0.000488281	
-0.0718384	
-0.104736	
-0.104553	
-0.0889893	
-0.0682373	
-0.0545044	
-0.0549316	
-0.0784912	
-0.123962	
-0.186462	
-0.26239	
-0.345947	
-0.431824	
-0.513428	
-0.591797	
-0.664917	
-0.7323	
-0.79071	
-0.835266	
-0.869202	
-0.891968	
-0.908142	
-0.914429	
-0.911377	
-0.906433	
-0.904358	
-0.899048	
-0.898132	
-0.893494	
-0.878479	
-0.813477	
-0.628357	
-0.295166	
0.152954	
0.635742	
1.06543	
1.38098	
1.55511	
1.59625	
1.53381	
1.40356	
1.23718	
1.05798	
0.883057	
0.708557	
0.531189	
0.357117	
0.200012	
0.0713501	
-0.0235596	
-0.0822754	
-0.108215	
-0.110413	
-0.102783	
-0.0936279	
-0.0942383	
-0.11438	
-0.153992	
-0.212097	
-0.284912	
-0.366272	
-0.450806	
-0.53186	
-0.607239	
-0.678345	
-0.743896	
-0.802429	
-0.852478	
-0.893066	
-0.923584	
-0.946716	
-0.962219	
-0.967407	
-0.961487	
-0.949097	
-0.937988	
-0.928467	
-0.923157	
-0.92334	
-0.926636	
-0.934204	
-0.930115	
-0.868286	
-0.685181	
-0.362	
0.0637207	
0.517578	
0.920776	
1.21472	
1.37866	
1.42059	
1.36786	
1.25214	
1.10535	
0.947388	
0.784241	
0.614929	
0.444336	
0.278503	
0.131104	
0.0175781	
-0.0580444	
-0.10199	
-0.119934	
-0.120728	
-0.112976	
-0.112305	
-0.125977	
-0.153931	
-0.199341	
-0.259766	
-0.328186	
-0.400757	
-0.476074	
-0.547302	
-0.615601	
-0.679321	
-0.740845	
-0.793701	
-0.838989	
-0.878479	
-0.908264	
-0.926758	
-0.935852	
-0.93811	
-0.932922	
-0.921875	
-0.912781	
-0.905273	
-0.896423	
-0.891846	
-0.896851	
-0.906006	
-0.911133	
-0.88208	
-0.767761	
-0.529724	
-0.175842	
0.236389	
0.636719	
0.967163	
1.18842	
1.28961	
1.289	
1.21466	
1.09344	
0.949402	
0.794983	
0.634033	
0.471924	
0.310669	
0.165894	
0.0457764	
-0.0415039	
-0.0924683	
-0.111572	
-0.109314	
-0.0987549	
-0.0878296	
-0.0883789	
-0.103699	
-0.138062	
-0.187622	
-0.246094	
-0.312073	
-0.37854	
-0.445313	
-0.51123	
-0.573059	
-0.632568	
-0.687073	
-0.73468	
-0.772339	
-0.803589	
-0.825012	
-0.837891	
-0.839783	
-0.833313	
-0.82605	
-0.818481	
-0.811035	
-0.801636	
-0.795959	
-0.797241	
-0.801208	
-0.793823	
-0.739807	
-0.589111	
-0.320496	
0.0389404	
0.434082	
0.798157	
1.07916	
1.25354	
1.31964	
1.29541	
1.21124	
1.09204	
0.958374	
0.815857	
0.665039	
0.505371	
0.345276	
0.20282	
0.0866089	
0.0032959	
-0.0487671	
-0.0761108	
-0.0830688	
-0.0820923	
-0.0838013	
-0.0924072	
-0.116638	
-0.155396	
-0.208008	
-0.264587	
-0.328735	
-0.397644	
-0.465759	
-0.532654	
-0.595276	
-0.653809	
-0.7052	
-0.747681	
-0.785034	
-0.814026	
-0.836182	
-0.855591	
-0.869263	
-0.869507	
-0.865417	
-0.860046	
-0.853394	
-0.845215	
-0.840881	
-0.842102	
-0.847168	
-0.852844	
-0.854309	
-0.814758	
-0.67865	
-0.418152	
-0.0578003	
0.352234	
0.74823	
1.07031	
1.28357	
1.38452	
1.38837	
1.32306	
1.22083	
1.09796	
0.962219	
0.817688	
0.662781	
0.506042	
0.360596	
0.236389	
0.140076	
0.0756226	
0.0377197	
0.0205688	
0.0159302	
0.0129395	
-0.0010376	
-0.0297852	
-0.069397	
-0.118896	
-0.180359	
-0.248718	
-0.321289	
-0.391052	
-0.460327	
-0.527649	
-0.588013	
-0.641479	
-0.688843	
-0.731079	
-0.763733	
-0.786133	
-0.805298	
-0.818726	
-0.824463	
-0.825378	
-0.825745	
-0.822205	
-0.814941	
-0.809814	
-0.806946	
-0.803711	
-0.805298	
-0.811218	
-0.82074	
-0.832153	
-0.818604	
-0.734192	
-0.530701	
-0.203491	
0.201111	
0.620483	
0.989502	
1.2616	
1.41748	
1.46503	
1.42535	
1.32764	
1.20068	
1.06226	
0.914978	
0.760437	
0.6026	
0.454285	
0.325378	
0.22467	
0.152954	
0.114136	
0.102417	
0.104675	
0.108887	
0.110168	
0.0985107	
0.0697632	
0.0250244	
-0.0322266	
-0.100403	
-0.171814	
-0.244202	
-0.31665	
-0.39032	
-0.459167	
-0.517761	
-0.568237	
-0.61261	
-0.653137	
-0.686401	
-0.714233	
-0.730591	
-0.737976	
-0.735962	
-0.728943	
-0.715576	
-0.706299	
-0.700562	
-0.699585	
-0.702759	
-0.712891	
-0.723572	
-0.718506	
-0.656494	
-0.487061	
-0.190552	
0.200684	
0.624451	
1.01196	
1.30591	
1.48114	
1.54315	
1.50696	
1.40717	
1.27075	
1.11993	
0.965759	
0.80542	
0.641602	
0.483948	
0.340027	
0.224487	
0.143188	
0.0987549	
0.0844727	
0.0871582	
0.0987549	
0.108276	
0.103699	
0.0845947	
0.0463257	
-0.0111694	
-0.0834961	
-0.163086	
-0.244629	
-0.328186	
-0.409363	
-0.483582	
-0.551941	
-0.612854	
-0.661377	
-0.703186	
-0.738281	
-0.761841	
-0.774719	
-0.777771	
-0.774963	
-0.770508	
-0.762146	
-0.753601	
-0.747986	
-0.745056	
-0.743408	
-0.742981	
-0.742676	
-0.719543	
-0.619141	
-0.390076	
-0.0333252	
0.398804	
0.836548	
1.21198	
1.47473	
1.60815	
1.6261	
1.55353	
1.42896	
1.27917	
1.12213	
0.961914	
0.797546	
0.629272	
0.464539	
0.321472	
0.20874	
0.12915	
0.0828247	
0.0643311	
0.0625	
0.0652466	
0.0651855	
0.0479126	
0.0150146	
-0.0349731	
-0.100037	
-0.175659	
-0.256531	
-0.338135	
-0.41803	
-0.494873	
-0.56842	
-0.637817	
-0.69928	
-0.752136	
-0.798279	
-0.83728	
-0.865295	
-0.883362	
-0.89093	
-0.889038	
-0.883118	
-0.875732	
-0.867004	
-0.855957	
-0.847534	
-0.840271	
-0.837341	
-0.840881	
-0.849121	
-0.856873	
-0.850952	
-0.784912	
-0.59314	
-0.251343	
0.199341	
0.681091	
1.11633	
1.44275	
1.63062	
1.68774	
1.63947	
1.52045	
1.36169	
1.19098	
1.01794	
0.844727	
0.668762	
0.492065	
0.335144	
0.208069	
0.114746	
0.0557251	
0.0274658	
0.0230713	
0.0319824	
0.0414429	
0.0423584	
0.0227661	
-0.019165	
-0.078125	
-0.151123	
-0.237305	
-0.327698	
-0.416077	
-0.499084	
-0.574768	
-0.64325	
-0.705261	
-0.756348	
-0.800293	
-0.835266	
-0.863586	
-0.884399	
-0.899902	
-0.905945	
-0.907471	
-0.902588	
-0.894043	
-0.882813	
-0.870728	
-0.861511	
-0.85437	
-0.851624	
-0.856079	
-0.865295	
-0.872925	
-0.867432	
-0.798706	
-0.599731	
-0.250732	
0.205994	
0.69342	
1.12683	
1.44226	
1.62	
1.66449	
1.60187	
1.47003	
1.29907	
1.11578	
0.934326	
0.748657	
0.564026	
0.388306	
0.231934	
0.114197	
0.0327148	
-0.0100098	
-0.0198975	
-0.0111084	
0.00457764	
0.0150146	
0.0130005	
-0.00872803	
-0.0527954	
-0.11377	
-0.187988	
-0.271851	
-0.356079	
-0.438782	
-0.518677	
-0.592712	
-0.661194	
-0.723267	
-0.774719	
-0.815796	
-0.851013	
-0.875061	
-0.888977	
-0.899292	
-0.903503	
-0.901123	
-0.888672	
-0.874451	
-0.858276	
-0.841187	
-0.829224	
-0.821289	
-0.822571	
-0.829285	
-0.837585	
-0.838196	
-0.797546	
-0.648438	
-0.352051	
0.0692749	
0.548645	
1.00012	
1.35364	
1.57202	
1.65338	
1.62048	
1.50549	
1.33765	
1.14868	
0.955322	
0.763184	
0.573547	
0.391907	
0.233948	
0.111877	
0.0281372	
-0.0151367	
-0.0247192	
-0.0103149	
0.0151367	
0.0351563	
0.0440063	
0.0319214	
-0.000976563	
-0.0547485	
-0.125244	
-0.205627	
-0.291626	
-0.373474	
-0.454407	
-0.532776	
-0.607727	
-0.677063	
-0.736694	
-0.785522	
-0.82312	
-0.854736	
-0.876831	
-0.884338	
-0.88385	
-0.874573	
-0.858521	
-0.840454	
-0.821838	
-0.807007	
-0.796936	
-0.794495	
-0.792297	
-0.764587	
-0.656616	
-0.413818	
-0.038269	
0.415588	
0.863831	
1.23608	
1.4859	
1.59796	
1.58691	
1.48279	
1.31976	
1.12762	
0.931519	
0.739685	
0.548218	
0.362793	
0.193604	
0.0546875	
-0.0374756	
-0.09021	
-0.102051	
-0.0847168	
-0.0514526	
-0.020813	
-0.00250244	
-0.000732422	
-0.0206299	
-0.0623779	
-0.124634	
-0.202393	
-0.285828	
-0.374023	
-0.462097	
-0.543823	
-0.620728	
-0.690002	
-0.749634	
-0.800293	
-0.837646	
-0.862732	
-0.879517	
-0.886719	
-0.882935	
-0.874451	
-0.86615	
-0.854858	
-0.84259	
-0.834595	
-0.830933	
-0.817383	
-0.754639	
-0.578125	
-0.255493	
0.183044	
0.650757	
1.06665	
1.37299	
1.54242	
1.57983	
1.51288	
1.37317	
1.19641	
1.00635	
0.819458	
0.637573	
0.454895	
0.280884	
0.128784	
0.00628662	
-0.078064	
-0.127136	
-0.144836	
-0.132202	
-0.107544	
-0.0860596	
-0.0767822	
-0.0853882	
-0.116211	
-0.168884	
-0.238708	
-0.31781	
-0.399658	
-0.484619	
-0.567139	
-0.644531	
-0.712708	
-0.774048	
-0.827515	
-0.872559	
-0.908936	
-0.937012	
-0.953308	
-0.960754	
-0.95929	
-0.951965	
-0.938538	
-0.923767	
-0.911133	
-0.902588	
-0.896729	
-0.894775	
-0.892395	
-0.878174	
-0.800659	
-0.592957	
-0.229675	
0.238892	
0.729675	
1.16089	
1.46838	
1.63074	
1.66248	
1.5907	
1.44812	
1.27039	
1.08032	
0.895752	
0.711853	
0.526794	
0.349792	
0.198303	
0.081543	
-0.00164795	
-0.0462646	
-0.0597534	
-0.0487671	
-0.0280762	
-0.0150146	
-0.0176392	
-0.0408936	
-0.0842896	
-0.143738	
-0.217773	
-0.300659	
-0.384338	
-0.464355	
-0.542419	
-0.617676	
-0.684143	
-0.744995	
-0.796143	
-0.840088	
-0.874573	
-0.899597	
-0.914307	
-0.918213	
-0.916626	
-0.907532	
-0.891418	
-0.87439	
-0.857666	
-0.845459	
-0.84137	
-0.842712	
-0.846252	
-0.839722	
-0.790283	
-0.628845	
-0.312378	
0.1297	
0.617615	
1.06537	
1.40851	
1.60913	
1.67133	
1.6178	
1.48541	
1.31128	
1.11774	
0.9245	
0.733887	
0.545105	
0.361816	
0.201721	
0.0755005	
-0.0098877	
-0.053894	
-0.0632935	
-0.0466919	
-0.0206909	
0.000366211	
0.00439453	
-0.0119019	
-0.0498047	
-0.10376	
-0.17041	
-0.247192	
-0.332703	
-0.42041	
-0.500549	
-0.578674	
-0.646912	
-0.707397	
-0.76062	
-0.810303	
-0.851807	
-0.880798	
-0.901245	
-0.909302	
-0.907532	
-0.900024	
-0.885254	
-0.870056	
-0.853394	
-0.839539	
-0.829224	
-0.82251	
-0.819153	
-0.821106	
-0.819153	
-0.772522	
-0.611084	
-0.291443	
0.152771	
0.644775	
1.09827	
1.44427	
1.64655	
1.71051	
1.65747	
1.52258	
1.34088	
1.14008	
0.938843	
0.741455	
0.546387	
0.358032	
0.195618	
0.074707	
-0.00250244	
-0.0373535	
-0.0350342	
-0.0130615	
0.0169678	
0.0430908	
0.0510254	
0.038269	
0.00415039	
-0.0519409	
-0.124146	
-0.204102	
-0.289368	
-0.376038	
-0.461304	
-0.539978	
-0.613953	
-0.680481	
-0.73761	
-0.784729	
-0.819458	
-0.846802	
-0.868286	
-0.880066	
-0.880188	
-0.871948	
-0.856995	
-0.839111	
-0.81958	
-0.802368	
-0.788513	
-0.778992	
-0.776855	
-0.780457	
-0.783875	
-0.769714	
-0.67981	
-0.444763	
-0.0618286	
0.406128	
0.876404	
1.27136	
1.53711	
1.66315	
1.66266	
1.56305	
1.39984	
1.20374	
0.995667	
0.793091	
0.591675	
0.400574	
0.231934	
0.0977783	
0.00372314	
-0.0443726	
-0.0543823	
-0.0361938	
-0.00152588	
0.0314331	
0.0501099	
0.0517578	
0.0324097	
-0.0107422	
-0.074707	
-0.146912	
-0.226563	
-0.313232	
-0.398621	
-0.480103	
-0.558105	
-0.632446	
-0.69635	
-0.748047	
-0.793274	
-0.828247	
-0.854126	
-0.862854	
-0.862732	
-0.852478	
-0.839233	
-0.823303	
-0.805603	
-0.78656	
-0.772522	
-0.763794	
-0.761658	
-0.752502	
-0.692017	
-0.511719	
-0.180176	
0.261597	
0.732605	
1.15735	
1.47052	
1.64233	
1.67621	
1.60352	
1.45697	
1.26764	
1.06628	
0.870789	
0.677673	
0.487488	
0.308777	
0.156494	
0.0345459	
-0.0465088	
-0.0824585	
-0.0809937	
-0.0562134	
-0.0219727	
0.0043335	
0.0147705	
0.00762939	
-0.0224609	
-0.078064	
-0.148926	
-0.228638	
-0.317322	
-0.403137	
-0.484436	
-0.561279	
-0.628235	
-0.686218	
-0.740356	
-0.785767	
-0.821411	
-0.844788	
-0.852905	
-0.853699	
-0.848145	
-0.837341	
-0.826599	
-0.821289	
-0.819214	
-0.816895	
-0.802063	
-0.735657	
-0.552368	
-0.218872	
0.224487	
0.692688	
1.10266	
1.39764	
1.55121	
1.57263	
1.49365	
1.34393	
1.1557	
0.961548	
0.772095	
0.585327	
0.396973	
0.21814	
0.0643311	
-0.0554199	
-0.134521	
-0.175232	
-0.182556	
-0.163269	
-0.134888	
-0.108765	
-0.095459	
-0.104797	
-0.139404	
-0.195313	
-0.263306	
-0.341492	
-0.428589	
-0.513672	
-0.592529	
-0.665588	
-0.730774	
-0.790161	
-0.843323	
-0.886719	
-0.920288	
-0.942993	
-0.954346	
-0.953918	
-0.946289	
-0.934937	
-0.923523	
-0.911133	
-0.901855	
-0.895203	
-0.887573	
-0.875793	
-0.823669	
-0.666687	
-0.355713	
0.081543	
0.568359	
1.0177	
1.35645	
1.55194	
1.60925	
1.55652	
1.42407	
1.24866	
1.05865	
0.864563	
0.675659	
0.487122	
0.307739	
0.147888	
0.0189209	
-0.069458	
-0.117065	
-0.127991	
-0.113892	
-0.0893555	
-0.0698242	
-0.06073	
-0.0697632	
-0.100891	
-0.153381	
-0.221191	
-0.297302	
-0.381409	
-0.463135	
-0.541687	
-0.617859	
-0.689514	
-0.749756	
-0.798523	
-0.840332	
-0.873596	
-0.895447	
-0.908569	
-0.91394	
-0.910217	
-0.901184	
-0.886169	
-0.872375	
-0.861267	
-0.853577	
-0.853882	
-0.85553	
-0.858093	
-0.845642	
-0.77356	
-0.576172	
-0.226074	
0.235779	
0.71936	
1.13849	
1.43475	
1.58685	
1.60425	
1.51941	
1.36975	
1.18219	
0.982788	
0.786133	
0.593384	
0.402222	
0.223206	
0.0755005	
-0.0303345	
-0.095459	
-0.119751	
-0.113159	
-0.0908203	
-0.0651855	
-0.0449219	
-0.0426025	
-0.0648193	
-0.106873	
-0.164856	
-0.238098	
-0.315918	
-0.396973	
-0.474854	
-0.550293	
-0.622559	
-0.689209	
-0.747559	
-0.798645	
-0.842163	
-0.878174	
-0.903381	
-0.916565	
-0.920837	
-0.920898	
-0.912292	
-0.897583	
-0.881531	
-0.864807	
-0.850891	
-0.843079	
-0.840454	
-0.844727	
-0.85022	
-0.849365	
-0.805359	
-0.646545	
-0.330383	
0.114136	
0.606567	
1.06207	
1.40704	
1.60956	
1.67047	
1.61719	
1.47784	
1.29553	
1.09857	
0.903442	
0.708252	
0.515076	
0.330261	
0.171631	
0.0485229	
-0.02948	
-0.0639648	
-0.0658569	
-0.0441284	
-0.0136719	
0.010498	
0.0150146	
-0.000854492	
-0.0407715	
-0.0994263	
-0.171936	
-0.253906	
-0.338318	
-0.421021	
-0.500183	
-0.575317	
-0.644836	
-0.707764	
-0.759338	
-0.800476	
-0.834534	
-0.864136	
-0.886169	
-0.901489	
-0.909058	
-0.905457	
-0.893127	
-0.875488	
-0.856628	
-0.838379	
-0.823853	
-0.816223	
-0.812988	
-0.816345	
-0.823975	
-0.823181	
-0.763184	
-0.577881	
-0.231262	
0.231628	
0.7229	
1.16132	
1.48401	
1.66241	
1.70227	
1.63184	
1.48743	
1.30029	
1.10107	
0.899597	
0.703735	
0.508667	
0.324219	
0.168335	
0.053833	
-0.0144043	
-0.0438843	
-0.0414429	
-0.019043	
0.00817871	
0.0261841	
0.0266724	
0.00714111	
-0.0337524	
-0.0944214	
-0.167542	
-0.249573	
-0.337463	
-0.424011	
-0.50647	
-0.584351	
-0.654419	
-0.713318	
-0.762268	
-0.804993	
-0.838928	
-0.865051	
-0.88385	
-0.894226	
-0.895752	
-0.886841	
-0.869934	
-0.852112	
-0.832642	
-0.815247	
-0.799927	
-0.792114	
-0.790405	
-0.792664	
-0.782288	
-0.711182	
-0.517029	
-0.170959	
0.284973	
0.762268	
1.18011	
1.48218	
1.64545	
1.67749	
1.59802	
1.44519	
1.2514	
1.04663	
0.842224	
0.640015	
0.445618	
0.267944	
0.120483	
0.0159912	
-0.0465088	
-0.0686646	
-0.0551758	
-0.0213013	
0.0170288	
0.0444946	
0.053833	
0.0422363	
0.00970459	
-0.0440063	
-0.114136	
-0.191528	
-0.275574	
-0.362854	
-0.445435	
-0.524109	
-0.600098	
-0.668274	
-0.724854	
-0.768982	
-0.802307	
-0.82312	
-0.832336	
-0.82959	
-0.82135	
-0.809753	
-0.794861	
-0.780457	
-0.770325	
-0.766296	
-0.764526	
-0.752686	
-0.692078	
-0.520569	
-0.200012	
0.236206	
0.708496	
1.13855	
1.45844	
1.638	
1.68127	
1.61542	
1.4751	
1.29004	
1.09021	
0.890625	
0.69751	
0.509094	
0.333862	
0.178345	
0.0584106	
-0.020752	
-0.0595093	
-0.0609741	
-0.0410156	
-0.0142822	
0.00811768	
0.0164185	
0.00305176	
-0.0323486	
-0.0865479	
-0.152893	
-0.23114	
-0.318787	
-0.410339	
-0.49884	
-0.578125	
-0.648193	
-0.710999	
-0.764648	
-0.804016	
-0.834412	
-0.852051	
-0.858032	
-0.858582	
-0.854187	
-0.843323	
-0.835999	
-0.830688	
-0.829407	
-0.831482	
-0.820618	
-0.763306	
-0.598938	
-0.284668	
0.147278	
0.618896	
1.04742	
1.36639	
1.54688	
1.59778	
1.5423	
1.40948	
1.23608	
1.04889	
0.862427	
0.678955	
0.495544	
0.318787	
0.161682	
0.0358887	
-0.0552368	
-0.109375	
-0.128418	
-0.123535	
-0.107788	
-0.09375	
-0.0871582	
-0.0980835	
-0.130981	
-0.180359	
-0.246643	
-0.326721	
-0.410645	
-0.493164	
-0.575195	
-0.651306	
-0.720703	
-0.781067	
-0.83252	
-0.875732	
-0.907959	
-0.927612	
-0.9375	
-0.937805	
-0.927551	
-0.913147	
-0.898315	
-0.882141	
-0.868713	
-0.861694	
-0.857971	
-0.858337	
-0.848022	
-0.789612	
-0.616699	
-0.291321	
0.153625	
0.633301	
1.06586	
1.38416	
1.56152	
1.60663	
1.54694	
1.41376	
1.23767	
1.04877	
0.862427	
0.679565	
0.495605	
0.315491	
0.155945	
0.0303345	
-0.0576172	
-0.104431	
-0.114807	
-0.10437	
-0.0863037	
-0.0720825	
-0.069519	
-0.0864868	
-0.121277	
-0.171814	
-0.237244	
-0.31311	
-0.393188	
-0.472595	
-0.552734	
-0.629761	
-0.696594	
-0.753723	
-0.803223	
-0.845825	
-0.877808	
-0.905762	
-0.925842	
-0.933228	
-0.929993	
-0.918213	
-0.900574	
-0.88208	
-0.862732	
-0.850647	
-0.84375	
-0.843384	
-0.846313	
-0.841309	
-0.790283	
-0.625183	
-0.306519	
0.135681	
0.620422	
1.05774	
1.38281	
1.56451	
1.61359	
1.55371	
1.41968	
1.24573	
1.05804	
0.872009	
0.687073	
0.503967	
0.324707	
0.168213	
0.0472412	
-0.0342407	
-0.0755005	
-0.0840454	
-0.0668945	
-0.0420532	
-0.0240479	
-0.024231	
-0.0454102	
-0.0853882	
-0.141663	
-0.212952	
-0.292358	
-0.377991	
-0.461243	
-0.537109	
-0.607971	
-0.671143	
-0.727844	
-0.779663	
-0.823547	
-0.859985	
-0.890198	
-0.90802	
-0.916321	
-0.914307	
-0.906372	
-0.893677	
-0.875427	
-0.859192	
-0.844238	
-0.836365	
-0.833313	
-0.838684	
-0.846436	
-0.837769	
-0.759155	
-0.544189	
-0.17511	
0.293213	
0.77655	
1.19287	
1.48474	
1.63513	
1.6568	
1.57678	
1.43231	
1.25092	
1.06055	
0.868713	
0.676819	
0.481934	
0.299622	
0.147034	
0.0379028	
-0.0301514	
-0.0598145	
-0.0558472	
-0.0339355	
-0.00720215	
0.00921631	
0.00927734	
-0.0142212	
-0.060791	
-0.121521	
-0.195618	
-0.276123	
-0.358459	
-0.438416	
-0.516113	
-0.589294	
-0.653503	
-0.712036	
-0.761292	
-0.803589	
-0.840149	
-0.867065	
-0.884644	
-0.889221	
-0.884888	
-0.870972	
-0.85199	
-0.833008	
-0.816467	
-0.802124	
-0.791504	
-0.787781	
-0.791382	
-0.796082	
-0.780334	
-0.686035	
-0.450439	
-0.0690918	
0.396423	
0.861511	
1.24878	
1.51141	
1.63708	
1.6377	
1.53784	
1.37622	
1.18298	
0.984314	
0.786926	
0.590393	
0.396423	
0.223145	
0.0876465	
-0.00195313	
-0.0472412	
-0.0498657	
-0.0280762	
0.00177002	
0.0308838	
0.0493164	
0.0484619	
0.0258789	
-0.0183105	
-0.0809937	
-0.154358	
-0.236572	
-0.323975	
-0.410828	
-0.492737	
-0.568176	
-0.634888	
-0.695496	
-0.746155	
-0.785339	
-0.813171	
-0.832214	
-0.845032	
-0.848083	
-0.839661	
-0.825928	
-0.813232	
-0.798706	
-0.784546	
-0.77594	
-0.774048	
-0.774475	
-0.772827	
-0.744568	
-0.621338	
-0.353088	
0.0513916	
0.52478	
0.982605	
1.35168	
1.5874	
1.68384	
1.65979	
1.54718	
1.38135	
1.19037	
0.995239	
0.806885	
0.619446	
0.434753	
0.268921	
0.131287	
0.0322266	
-0.0291138	
-0.0490723	
-0.0437622	
-0.0231323	
-0.00305176	
0.00695801	
0.000427246	
-0.02771	
-0.0722046	
-0.133484	
-0.2099	
-0.296021	
-0.385986	
-0.472168	
-0.553772	
-0.630554	
-0.697205	
-0.75769	
-0.80957	
-0.851074	
-0.882996	
-0.905457	
-0.916504	
-0.915405	
-0.904724	
-0.888672	
-0.870361	
-0.852234	
-0.834839	
-0.821472	
-0.815857	
-0.817017	
-0.825684	
-0.829529	
-0.794556	
-0.655273	
-0.361267	
0.0679932	
0.559387	
1.02356	
1.39178	
1.62317	
1.71283	
1.68329	
1.56915	
1.40442	
1.21637	
1.02838	
0.843323	
0.658813	
0.475342	
0.306763	
0.166809	
0.0606079	
-0.00872803	
-0.0430908	
-0.0518799	
-0.045166	
-0.0369873	
-0.0338135	
-0.0453491	
-0.0769653	
-0.128845	
-0.197021	
-0.277588	
-0.362549	
-0.452209	
-0.539246	
-0.620972	
-0.696716	
-0.760925	
-0.81665	
-0.865601	
-0.905457	
-0.93811	
-0.964233	
-0.979614	
-0.986267	
-0.986206	
-0.978821	
-0.964294	
-0.948181	
-0.928711	
-0.909302	
-0.895752	
-0.886719	
-0.882751	
-0.884705	
-0.893127	
-0.9021	
-0.882935	
-0.773804	
-0.514771	
-0.100525	
0.404663	
0.906372	
1.32483	
1.60919	
1.74896	
1.75732	
1.66595	
1.51062	
1.32458	
1.13318	
0.943909	
0.756775	
0.571289	
0.395203	
0.245483	
0.132141	
0.052124	
0.0100708	
0.00134277	
0.0134277	
0.0305786	
0.0384521	
0.0342407	
0.00787354	
-0.0401001	
-0.105225	
-0.182007	
-0.267029	
-0.356506	
-0.44696	
-0.530212	
-0.608398	
-0.678589	
-0.739502	
-0.794189	
-0.842468	
-0.882446	
-0.912415	
-0.935974	
-0.949585	
-0.955627	
-0.955261	
-0.947571	
-0.931885	
-0.914124	
-0.896545	
-0.883484	
-0.871826	
-0.865051	
-0.864807	
-0.870972	
-0.881836	
-0.892639	
-0.888062	
-0.817139	
-0.605774	
-0.22699	
0.265747	
0.77771	
1.23065	
1.56323	
1.74866	
1.79858	
1.73737	
1.60278	
1.42151	
1.22302	
1.02625	
0.830566	
0.634644	
0.450439	
0.28772	
0.161438	
0.0774536	
0.0331421	
0.0251465	
0.0415649	
0.0648193	
0.0793457	
0.0830688	
0.0638428	
0.0203857	
-0.0420532	
-0.117737	
-0.198914	
-0.286194	
-0.376526	
-0.464111	
-0.548889	
-0.62561	
-0.694031	
-0.7547	
-0.806641	
-0.848877	
-0.881653	
-0.905518	
-0.918823	
-0.92749	
-0.926697	
-0.920105	
-0.90863	
-0.893677	
-0.874939	
-0.858582	
-0.841736	
-0.827209	
-0.820374	
-0.822449	
-0.830322	
-0.828674	
-0.763	
-0.563171	
-0.206299	
0.262207	
0.75824	
1.20215	
1.53204	
1.71765	
1.76904	
1.70996	
1.57391	
1.39178	
1.19049	
0.987122	
0.785156	
0.58783	
0.4021	
0.24231	
0.121094	
0.0408936	
0.00500488	
0.00640869	
0.031311	
0.0622559	
0.0883789	
0.0969238	
0.0855103	
0.0527954	
-0.00128174	
-0.072876	
-0.155396	
-0.244507	
-0.333801	
-0.420166	
-0.503113	
-0.579773	
-0.648315	
-0.707092	
-0.758728	
-0.803833	
-0.838257	
-0.862305	
-0.878174	
-0.884521	
-0.880066	
-0.871582	
-0.859314	
-0.845337	
-0.834351	
-0.827271	
-0.827332	
-0.824463	
-0.794128	
-0.676147	
-0.412354	
-0.00402832	
0.480347	
0.955078	
1.34479	
1.60565	
1.72369	
1.71625	
1.61902	
1.45654	
1.26477	
1.06647	
0.872192	
0.678955	
0.484375	
0.302795	
0.152283	
0.0404663	
-0.0321655	
-0.0658569	
-0.0656128	
-0.0476074	
-0.0252075	
-0.0128784	
-0.019043	
-0.0401001	
-0.0799561	
-0.134827	
-0.20752	
-0.291382	
-0.380432	
-0.470764	
-0.559692	
-0.640808	
-0.711548	
-0.774841	
-0.830078	
-0.875671	
-0.913574	
-0.943054	
-0.963013	
-0.973267	
-0.971191	
-0.963745	
-0.947388	
-0.926819	
-0.907776	
-0.892273	
-0.882629	
-0.883179	
-0.887024	
-0.878052	
-0.802551	
-0.590637	
-0.222656	
0.256775	
0.761841	
1.20929	
1.53326	
1.71448	
1.76147	
1.69977	
1.56177	
1.37982	
1.18268	
0.988403	
0.800049	
0.611755	
0.428955	
0.264771	
0.133057	
0.043457	
-0.0109253	
-0.0336914	
-0.0324707	
-0.0175781	
-0.00616455	
-0.00592041	
-0.0229492	
-0.0581665	
-0.111389	
-0.181641	
-0.263	
-0.348877	
-0.436646	
-0.522949	
-0.604858	
-0.679077	
-0.747192	
-0.807922	
-0.858826	
-0.903748	
-0.938904	
-0.963318	
-0.976013	
-0.977722	
-0.974365	
-0.963623	
-0.94873	
-0.933411	
-0.915344	
-0.898621	
-0.887573	
-0.883728	
-0.888123	
-0.895752	
-0.887939	
-0.80835	
-0.590149	
-0.210083	
0.280029	
0.789368	
1.23364	
1.55396	
1.72699	
1.76123	
1.68695	
1.53894	
1.34772	
1.14856	
0.956177	
0.764709	
0.573486	
0.39032	
0.229736	
0.106079	
0.0227661	
-0.0223389	
-0.0358887	
-0.0283813	
-0.00982666	
0.00701904	
0.0057373	
-0.0155029	
-0.0529785	
-0.108826	
-0.178955	
-0.261902	
-0.348755	
-0.436584	
-0.524902	
-0.604004	
-0.676636	
-0.74115	
-0.800476	
-0.85022	
-0.894531	
-0.929504	
-0.950806	
-0.964355	
-0.971252	
-0.971741	
-0.966248	
-0.952698	
-0.930908	
-0.90741	
-0.884644	
-0.870239	
-0.862244	
-0.857788	
-0.863464	
-0.873474	
-0.86969	
-0.80896	
-0.616394	
-0.259766	
0.217712	
0.728882	
1.18542	
1.52356	
1.71686	
1.76862	
1.70599	
1.56207	
1.37238	
1.16711	
0.96283	
0.763245	
0.56543	
0.379272	
0.2229	
0.103455	
0.0271606	
-0.0107422	
-0.0166626	
0.00109863	
0.0265503	
0.0505371	
0.0609741	
0.0515137	
0.0197754	
-0.0336914	
-0.103882	
-0.185181	
-0.269043	
-0.356506	
-0.440186	
-0.521179	
-0.596985	
-0.663879	
-0.722717	
-0.775513	
-0.82019	
-0.857544	
-0.883972	
-0.901672	
-0.908203	
-0.903381	
-0.891113	
-0.877441	
-0.861938	
-0.852356	
-0.849487	
-0.845581	
-0.84491	
-0.846863	
-0.822693	
-0.708862	
-0.446777	
-0.0389404	
0.449768	
0.931824	
1.32898	
1.59308	
1.71417	
1.70514	
1.60028	
1.43732	
1.24353	
1.03687	
0.836487	
0.642029	
0.454346	
0.278625	
0.128052	
0.0204468	
-0.0448608	
-0.072998	
-0.0748291	
-0.0580444	
-0.0369263	
-0.020752	
-0.0233154	
-0.0457153	
-0.0874023	
-0.15033	
-0.226257	
-0.310425	
-0.397827	
-0.487244	
-0.571594	
-0.650146	
-0.721863	
-0.786804	
-0.844482	
-0.89386	
-0.934204	
-0.962097	
-0.980225	
-0.989197	
-0.987366	
-0.978699	
-0.961792	
-0.94574	
-0.931091	
-0.920044	
-0.917542	
-0.919312	
-0.911499	
-0.85553	
-0.686035	
-0.358398	
0.100891	
0.606079	
1.07562	
1.44421	
1.67572	
1.76147	
1.72516	
1.60193	
1.4256	
1.23059	
1.03888	
0.849121	
0.661438	
0.475891	
0.305786	
0.16449	
0.0579834	
-0.00921631	
-0.043396	
-0.0502319	
-0.0389404	
-0.026062	
-0.0212402	
-0.0292969	
-0.0546265	
-0.101807	
-0.162964	
-0.235718	
-0.318359	
-0.406128	
-0.492737	
-0.572205	
-0.645447	
-0.714294	
-0.774597	
-0.82428	
-0.8703	
-0.906189	
-0.930359	
-0.946594	
-0.955872	
-0.953674	
-0.943787	
-0.928528	
-0.912781	
-0.896729	
-0.886292	
-0.880554	
-0.88269	
-0.893921	
-0.896057	
-0.840881	
-0.66217	
-0.32135	
0.148682	
0.662109	
1.13013	
1.48541	
1.69672	
1.76404	
1.71509	
1.58514	
1.40552	
1.20862	
1.01379	
0.820129	
0.630188	
0.44342	
0.27124	
0.135193	
0.0404053	
-0.0134277	
-0.0304565	
-0.022522	
-0.00653076	
0.00830078	
0.0136719	
-0.00152588	
-0.0344849	
-0.0855713	
-0.152954	
-0.234375	
-0.32019	
-0.405518	
-0.489685	
-0.570007	
-0.643616	
-0.710449	
-0.767883	
-0.818848	
-0.858521	
-0.891479	
-0.916626	
-0.932312	
-0.93573	
-0.92865	
-0.915222	
-0.903015	
-0.890137	
-0.878662	
-0.872375	
-0.871948	
-0.875793	
-0.87738	
-0.8526	
-0.746826	
-0.498413	
-0.102417	
0.383118	
0.870972	
1.2821	
1.56152	
1.6947	
1.69775	
1.6062	
1.45117	
1.26367	
1.06494	
0.87085	
0.676697	
0.486633	
0.306641	
0.156311	
0.048645	
-0.0168457	
-0.0473633	
-0.0467529	
-0.0305176	
-0.0106201	
0.00164795	
-0.0010376	
-0.0223999	
-0.06073	
-0.119141	
-0.191895	
-0.268677	
-0.350769	
-0.434814	
-0.514954	
-0.59082	
-0.658813	
-0.71936	
-0.769653	
-0.807983	
-0.838928	
-0.862061	
-0.87439	
-0.873901	
-0.867371	
-0.856323	
-0.844604	
-0.828918	
-0.816528	
-0.81012	
-0.808594	
-0.804932	
-0.772461	
-0.651306	
-0.391296	
0.00665283	
0.476685	
0.932495	
1.30029	
1.53625	
1.62872	
1.60278	
1.4895	
1.32324	
1.13354	
0.941467	
0.754211	
0.56073	
0.371277	
0.202026	
0.0640869	
-0.0341797	
-0.0899658	
-0.108337	
-0.100464	
-0.0801392	
-0.0582886	
-0.0454102	
-0.0490723	
-0.0731812	
-0.11908	
-0.18457	
-0.261536	
-0.3479	
-0.436462	
-0.521057	
-0.597839	
-0.666443	
-0.727905	
-0.781921	
-0.827332	
-0.866028	
-0.897461	
-0.917236	
-0.928101	
-0.930298	
-0.924988	
-0.912048	
-0.89624	
-0.88324	
-0.872009	
-0.863647	
-0.863342	
-0.864014	
-0.851868	
-0.778687	
-0.574097	
-0.212891	
0.258789	
0.749329	
1.17596	
1.48199	
1.64832	
1.6842	
1.61908	
1.48193	
1.30365	
1.11517	
0.929871	
0.742004	
0.548767	
0.362	
0.198975	
0.0670776	
-0.0280762	
-0.0838013	
-0.10321	
-0.0968628	
-0.0787964	
-0.06073	
-0.055481	
-0.0688477	
-0.102356	
-0.15686	
-0.227112	
-0.307312	
-0.391235	
-0.471558	
-0.547546	
-0.61792	
-0.682312	
-0.743896	
-0.796997	
-0.841248	
-0.87616	
-0.898865	
-0.91626	
-0.927734	
-0.930176	
-0.927979	
-0.918701	
-0.90332	
-0.88855	
-0.876221	
-0.867493	
-0.86261	
-0.86261	
-0.869263	
-0.875122	
-0.854187	
-0.742188	
-0.474915	
-0.0563965	
0.445496	
0.940308	
1.34875	
1.61932	
1.74316	
1.73834	
1.63898	
1.48267	
1.2962	
1.10516	
0.914551	
0.722412	
0.528748	
0.349243	
0.194336	
0.0737915	
-0.0078125	
-0.0527954	
-0.0643311	
-0.0583496	
-0.0444336	
-0.0346069	
-0.0424194	
-0.0697021	
-0.115906	
-0.177429	
-0.249451	
-0.328064	
-0.409607	
-0.492188	
-0.570007	
-0.642212	
-0.709229	
-0.769165	
-0.82019	
-0.863342	
-0.897522	
-0.920898	
-0.939758	
-0.950195	
-0.951843	
-0.94397	
-0.931091	
-0.914124	
-0.897156	
-0.883972	
-0.869568	
-0.863281	
-0.863464	
-0.870422	
-0.874817	
-0.847534	
-0.722229	
-0.441162	
-0.0158081	
0.483276	
0.96698	
1.35687	
1.61139	
1.72266	
1.70837	
1.60052	
1.43597	
1.24567	
1.05206	
0.860596	
0.66925	
0.482117	
0.309692	
0.16687	
0.0560913	
-0.0128784	
-0.0446167	
-0.0452271	
-0.0275879	
-0.00622559	
0.00512695	
-0.00317383	
-0.0288696	
-0.0718994	
-0.130981	
-0.203369	
-0.283997	
-0.367065	
-0.448181	
-0.529358	
-0.605835	
-0.672241	
-0.733521	
-0.785461	
-0.826904	
-0.856628	
-0.881653	
-0.895813	
-0.898315	
-0.891541	
-0.877075	
-0.860474	
-0.840515	
-0.824219	
-0.811707	
-0.804199	
-0.802734	
-0.803223	
-0.773315	
-0.648926	
-0.378357	
0.0301514	
0.50708	
0.968262	
1.33765	
1.57703	
1.67688	
1.65393	
1.53979	
1.37317	
1.18304	
0.986755	
0.791016	
0.595459	
0.403564	
0.228333	
0.086853	
-0.0136108	
-0.0731201	
-0.0914307	
-0.0828857	
-0.0583496	
-0.0304565	
-0.0134888	
-0.0161133	
-0.0408936	
-0.088501	
-0.155945	
-0.233765	
-0.317322	
-0.403442	
-0.490112	
-0.571533	
-0.646484	
-0.711365	
-0.768005	
-0.819092	
-0.861389	
-0.886108	
-0.899292	
-0.90625	
-0.908875	
-0.903076	
-0.892944	
-0.878662	
-0.866272	
-0.859192	
-0.857727	
-0.853516	
-0.82312	
-0.708313	
-0.448975	
-0.0457764	
0.432678	
0.899536	
1.28137	
1.52869	
1.63806	
1.62848	
1.52631	
1.36676	
1.18225	
0.990601	
0.80127	
0.612976	
0.421814	
0.240417	
0.0871582	
-0.0280151	
-0.103149	
-0.138367	
-0.1427	
-0.125916	
-0.103394	
-0.0876465	
-0.0872192	
-0.110168	
-0.153564	
-0.212036	
-0.282104	
-0.360352	
-0.440552	
-0.518127	
-0.592896	
-0.665222	
-0.733337	
-0.794495	
-0.847778	
-0.891357	
-0.929016	
-0.956848	
-0.973145	
-0.976257	
-0.971802	
-0.960632	
-0.942444	
-0.921021	
-0.904602	
-0.893005	
-0.884338	
-0.882751	
-0.885315	
-0.886963	
-0.859802	
-0.732788	
-0.44928	
-0.0169678	
0.488037	
0.979065	
1.37158	
1.62488	
1.73083	
1.71875	
1.61749	
1.45569	
1.26831	
1.08081	
0.893982	
0.705078	
0.515076	
0.336487	
0.186035	
0.0706787	
-0.00598145	
-0.0490112	
-0.0641479	
-0.0571289	
-0.0415649	
-0.0323486	
-0.0383911	
-0.065918	
-0.113098	
-0.175049	
-0.247375	
-0.329529	
-0.415649	
-0.500061	
-0.579224	
-0.651306	
-0.718872	
-0.779785	
-0.835144	
-0.878357	
-0.909485	
-0.933411	
-0.94989	
-0.956543	
-0.958313	
-0.957947	
-0.951416	
-0.937134	
-0.920166	
-0.904419	
-0.891113	
-0.883423	
-0.87915	
-0.876526	
-0.8797	
-0.88739	
-0.879944	
-0.813354	
-0.608704	
-0.238403	
0.248596	
0.764099	
1.2226	
1.56195	
1.75317	
1.80457	
1.74481	
1.60425	
1.42273	
1.22522	
1.02753	
0.832886	
0.640442	
0.454407	
0.290222	
0.159973	
0.067627	
0.0112915	
-0.012146	
-0.00683594	
0.0119019	
0.0292358	
0.031189	
0.0158081	
-0.0188599	
-0.0726929	
-0.141052	
-0.221619	
-0.308044	
-0.394836	
-0.479675	
-0.559448	
-0.635132	
-0.701233	
-0.758972	
-0.80658	
-0.844849	
-0.877502	
-0.902466	
-0.920776	
-0.927612	
-0.924683	
-0.913879	
-0.900513	
-0.886414	
-0.870117	
-0.854126	
-0.842346	
-0.833008	
-0.830261	
-0.835876	
-0.84082	
-0.81189	
-0.677673	
-0.38623	
0.0475464	
0.545288	
1.01776	
1.39215	
1.63116	
1.72961	
1.70325	
1.58789	
1.41486	
1.2135	
1.00909	
0.807617	
0.605408	
0.409363	
0.232361	
0.0921631	
-0.00463867	
-0.057251	
-0.072876	
-0.055542	
-0.0245361	
0.00384521	
0.0210571	
0.0193481	
-0.00592041	
-0.0525513	
-0.117981	
-0.195435	
-0.275574	
-0.360962	
-0.443909	
-0.524414	
-0.599731	
-0.664734	
-0.721802	
-0.77301	
-0.816406	
-0.848328	
-0.873169	
-0.890259	
-0.89447	
-0.888489	
-0.875916	
-0.863037	
-0.848938	
-0.837769	
-0.830933	
-0.828796	
-0.830688	
-0.818481	
-0.737	
-0.518616	
-0.145508	
0.330322	
0.818176	
1.24066	
1.53851	
1.69427	
1.71857	
1.63953	
1.49384	
1.31378	
1.12396	
0.935791	
0.747925	
0.554565	
0.369019	
0.20636	
0.0783081	
-0.012146	
-0.0634155	
-0.0775146	
-0.0657959	
-0.0458374	
-0.0300903	
-0.0250854	
-0.039917	
-0.0776978	
-0.136353	
-0.210754	
-0.2948	
-0.383545	
-0.469543	
-0.551392	
-0.628174	
-0.698059	
-0.763428	
-0.820557	
-0.866821	
-0.906006	
-0.932617	
-0.94989	
-0.957275	
-0.954041	
-0.944641	
-0.93335	
-0.921448	
-0.913879	
-0.91217	
-0.913452	
-0.911316	
-0.903809	
-0.861816	
-0.718872	
-0.419128	
0.0231323	
0.527222	
1.00806	
1.39288	
1.63605	
1.73425	
1.71545	
1.60767	
1.44708	
1.2666	
1.08392	
0.901062	
0.716919	
0.534363	
0.359741	
0.207642	
0.0894165	
0.0127563	
-0.02771	
-0.0352173	
-0.0238037	
-0.0124512	
-0.0111694	
-0.024353	
-0.0535278	
-0.100281	
-0.163574	
-0.237366	
-0.317078	
-0.400146	
-0.482239	
-0.561035	
-0.633362	
-0.699097	
-0.757324	
-0.809021	
-0.8526	
-0.882202	
-0.90271	
-0.911499	
-0.909546	
-0.90271	
-0.89447	
-0.88562	
-0.877991	
-0.875916	
-0.874878	
-0.872253	
-0.860352	
-0.800049	
-0.620178	
-0.286804	
0.16095	
0.64502	
1.078	
1.39722	
1.57971	
1.63171	
1.57477	
1.44061	
1.26477	
1.07629	
0.888916	
0.700012	
0.511292	
0.328796	
0.171082	
0.0498047	
-0.0345459	
-0.0772095	
-0.0836792	
-0.0686646	
-0.0420532	
-0.0217285	
-0.0186157	
-0.0374146	
-0.0744019	
-0.127136	
-0.196106	
-0.273865	
-0.354797	
-0.4375	
-0.51532	
-0.586365	
-0.653625	
-0.713684	
-0.763367	
-0.802429	
-0.831177	
-0.850403	
-0.859497	
-0.86145	
-0.856567	
-0.853882	
-0.849976	
-0.848267	
-0.850952	
-0.853943	
-0.845337	
-0.794495	
-0.640686	
-0.344055	
0.0686035	
0.51825	
0.931213	
1.24567	
1.43262	
1.49158	
1.44946	
1.33569	
1.18604	
1.02393	
0.855713	
0.685303	
0.509277	
0.329956	
0.168335	
0.0392456	
-0.053894	
-0.110229	
-0.137817	
-0.140991	
-0.130798	
-0.124084	
-0.124512	
-0.142212	
-0.180359	
-0.235535	
-0.302856	
-0.375305	
-0.450256	
-0.520569	
-0.591675	
-0.659729	
-0.720337	
-0.774109	
-0.821838	
-0.865723	
-0.898987	
-0.920288	
-0.934326	
-0.939697	
-0.940125	
-0.936707	
-0.933838	
-0.935669	
-0.937805	
-0.940918	
-0.947266	
-0.942505	
-0.898132	
-0.752991	
-0.47168	
-0.0806274	
0.35675	
0.768677	
1.09436	
1.29901	
1.38422	
1.36859	
1.28265	
1.15533	
1.00775	
0.857239	
0.702698	
0.53772	
0.370422	
0.2146	
0.083313	
-0.0199585	
-0.0892944	
-0.128235	
-0.144348	
-0.146057	
-0.145203	
-0.150452	
-0.167969	
-0.202026	
-0.248047	
-0.303406	
-0.368591	
-0.440063	
-0.509827	
-0.576721	
-0.638	
-0.698547	
-0.753845	
-0.804626	
-0.845764	
-0.876831	
-0.903015	
-0.921265	
-0.930115	
-0.935791	
-0.932129	
-0.927612	
-0.921692	
-0.913818	
-0.90686	
-0.905823	
-0.905823	
-0.901123	
-0.87677	
-0.780396	
-0.561401	
-0.217285	
0.196899	
0.610962	
0.964111	
1.21289	
1.3446	
1.3739	
1.32471	
1.22266	
1.09015	
0.945862	
0.792542	
0.631226	
0.463989	
0.305481	
0.168823	
0.0654907	
-0.00305176	
-0.0412598	
-0.0596924	
-0.059021	
-0.053772	
-0.0526733	
-0.0626831	
-0.0893555	
-0.130981	
-0.182251	
-0.241394	
-0.304443	
-0.369385	
-0.434814	
-0.498962	
-0.561218	
-0.621887	
-0.677979	
-0.723694	
-0.758789	
-0.785278	
-0.801392	
-0.807373	
-0.807617	
-0.803406	
-0.796936	
-0.787231	
-0.783508	
-0.782043	
-0.781738	
-0.782349	
-0.764954	
-0.682983	
-0.491211	
-0.181335	
0.206421	
0.602478	
0.945557	
1.19104	
1.32623	
1.35962	
1.30872	
1.20398	
1.0694	
0.921509	
0.764282	
0.60022	
0.435242	
0.283875	
0.162048	
0.0717773	
0.0137329	
-0.0135498	
-0.0177002	
-0.00500488	
0.00860596	
0.013916	
0.00506592	
-0.0177612	
-0.0587769	
-0.113525	
-0.17926	
-0.249695	
-0.320984	
-0.388367	
-0.456726	
-0.520264	
-0.577576	
-0.629211	
-0.677002	
-0.712036	
-0.734558	
-0.745789	
-0.749512	
-0.746338	
-0.740051	
-0.732483	
-0.725098	
-0.723633	
-0.725708	
-0.727417	
-0.716553	
-0.650085	
-0.473022	
-0.172058	
0.210754	
0.614319	
0.972229	
1.23895	
1.39386	
1.44135	
1.40369	
1.30597	
1.17725	
1.03534	
0.88208	
0.719238	
0.549744	
0.382629	
0.234253	
0.119324	
0.0379028	
-0.0148315	
-0.0361938	
-0.0375977	
-0.0317993	
-0.03125	
-0.0393066	
-0.0606689	
-0.0958862	
-0.146729	
-0.209778	
-0.278625	
-0.352966	
-0.42865	
-0.504761	
-0.573853	
-0.631958	
-0.683655	
-0.730957	
-0.77002	
-0.802124	
-0.82843	
-0.844788	
-0.853149	
-0.855164	
-0.849731	
-0.842712	
-0.837341	
-0.835205	
-0.835876	
-0.839722	
-0.840271	
-0.815002	
-0.71283	
-0.482422	
-0.129333	
0.292236	
0.714478	
1.07349	
1.32428	
1.45685	
1.4823	
1.42584	
1.31689	
1.18231	
1.039	
0.88623	
0.720642	
0.552368	
0.390015	
0.244507	
0.124817	
0.0406494	
-0.010498	
-0.0306396	
-0.0354614	
-0.0333862	
-0.0333862	
-0.0466919	
-0.0731201	
-0.11676	
-0.171143	
-0.237732	
-0.310303	
-0.388245	
-0.467957	
-0.542603	
-0.613281	
-0.677795	
-0.735413	
-0.783386	
-0.824585	
-0.858093	
-0.885559	
-0.90509	
-0.913025	
-0.916138	
-0.912659	
-0.905823	
-0.895996	
-0.887451	
-0.885071	
-0.886719	
-0.891357	
-0.898438	
-0.887207	
-0.815552	
-0.628052	
-0.310242	
0.102173	
0.539185	
0.931274	
1.22754	
1.4007	
1.45966	
1.42529	
1.32434	
1.18726	
1.03467	
0.875732	
0.711975	
0.541382	
0.371338	
0.224548	
0.109619	
0.0297852	
-0.0158081	
-0.0342407	
-0.0322876	
-0.0201416	
-0.00866699	
-0.010437	
-0.0297852	
-0.0645142	
-0.118347	
-0.18158	
-0.252502	
-0.325928	
-0.402161	
-0.477295	
-0.54895	
-0.61676	
-0.677002	
-0.731445	
-0.774231	
-0.805725	
-0.829041	
-0.844238	
-0.849182	
-0.846619	
-0.842224	
-0.832214	
-0.819946	
-0.806641	
-0.79834	
-0.797791	
-0.79657	
-0.785583	
-0.725647	
-0.555237	
-0.253479	
0.144714	
0.578247	
0.976563	
1.28467	
1.46948	
1.53021	
1.49219	
1.38062	
1.22882	
1.06134	
0.887878	
0.712524	
0.533325	
0.360718	
0.20874	
0.0878296	
0.00134277	
-0.0442505	
-0.0541992	
-0.0409546	
-0.0213623	
-0.00170898	
0.00616455	
-0.00598145	
-0.0392456	
-0.088623	
-0.150696	
-0.22406	
-0.306824	
-0.388916	
-0.468933	
-0.544067	
-0.610535	
-0.672302	
-0.723938	
-0.763489	
-0.795959	
-0.82135	
-0.833435	
-0.837463	
-0.83844	
-0.838928	
-0.841309	
-0.844482	
-0.845215	
-0.842957	
-0.821045	
-0.736938	
-0.52594	
-0.175964	
0.261841	
0.718323	
1.11316	
1.39435	
1.54504	
1.57129	
1.50055	
1.36578	
1.19739	
1.01892	
0.843933	
0.667542	
0.487122	
0.316345	
0.167236	
0.0453491	
-0.0443726	
-0.095459	
-0.10968	
-0.0987549	
-0.0775146	
-0.0596313	
-0.0565796	
-0.0731812	
-0.110657	
-0.164917	
-0.23468	
-0.312439	
-0.39447	
-0.473083	
-0.549744	
-0.624023	
-0.692261	
-0.752869	
-0.806335	
-0.850525	
-0.88678	
-0.914673	
-0.933167	
-0.946838	
-0.952393	
-0.947388	
-0.938477	
-0.929565	
-0.918091	
-0.910583	
-0.905396	
-0.90033	
-0.87262	
-0.76947	
-0.534058	
-0.150696	
0.324402	
0.803833	
1.20709	
1.48517	
1.62622	
1.64392	
1.5694	
1.43146	
1.25952	
1.08142	
0.904602	
0.722595	
0.536804	
0.357971	
0.197998	
0.0689697	
-0.0212402	
-0.0745239	
-0.0903931	
-0.0807495	
-0.0628052	
-0.0482178	
-0.0483398	
-0.0690918	
-0.107178	
-0.163269	
-0.230957	
-0.310425	
-0.394287	
-0.475769	
-0.553955	
-0.625916	
-0.697998	
-0.763245	
-0.821899	
-0.873474	
-0.913696	
-0.942444	
-0.96051	
-0.971313	
-0.975769	
-0.969666	
-0.958069	
-0.944092	
-0.932434	
-0.92395	
-0.917664	
-0.917175	
-0.919067	
-0.911316	
-0.860291	
-0.69873	
-0.384766	
0.0536499	
0.540588	
0.992676	
1.34015	
1.54742	
1.61914	
1.57947	
1.45874	
1.29205	
1.10876	
0.92395	
0.740723	
0.553955	
0.366516	
0.197937	
0.060791	
-0.0322876	
-0.086731	
-0.107056	
-0.102234	
-0.0802002	
-0.0545044	
-0.0402832	
-0.0484009	
-0.0795288	
-0.129028	
-0.193909	
-0.267517	
-0.348938	
-0.430542	
-0.510803	
-0.586853	
-0.657654	
-0.723389	
-0.779724	
-0.827759	
-0.869568	
-0.903137	
-0.930969	
-0.946106	
-0.951599	
-0.947693	
-0.937012	
-0.922302	
-0.905762	
-0.893921	
-0.885193	
-0.878662	
-0.874878	
-0.863953	
-0.806396	
-0.641724	
-0.329285	
0.1026	
0.575867	
1.00964	
1.33606	
1.52728	
1.58502	
1.53351	
1.40625	
1.23199	
1.03802	
0.840332	
0.642944	
0.45105	
0.269348	
0.113037	
-0.00634766	
-0.0834351	
-0.120789	
-0.123047	
-0.10083	
-0.0692749	
-0.0377197	
-0.0172729	
-0.0171509	
-0.0372314	
-0.0773315	
-0.134399	
-0.207764	
-0.288513	
-0.368713	
-0.44873	
-0.523315	
-0.595276	
-0.658936	
-0.717468	
-0.768555	
-0.809265	
-0.840637	
-0.860535	
-0.869446	
-0.871582	
-0.86792	
-0.858215	
-0.845093	
-0.83374	
-0.824402	
-0.818054	
-0.801514	
-0.735352	
-0.553833	
-0.222595	
0.221619	
0.695435	
1.11731	
1.42456	
1.59222	
1.62915	
1.5614	
1.42267	
1.24475	
1.05334	
0.861328	
0.672729	
0.482361	
0.303467	
0.150146	
0.0362549	
-0.0386353	
-0.0724487	
-0.0717163	
-0.0479736	
-0.0187378	
0.003479	
0.012207	
0.00311279	
-0.0314941	
-0.0836792	
-0.151184	
-0.229858	
-0.316223	
-0.400208	
-0.484741	
-0.563354	
-0.638733	
-0.707275	
-0.768005	
-0.81842	
-0.856934	
-0.881897	
-0.897949	
-0.904968	
-0.906677	
-0.902039	
-0.894775	
-0.89209	
-0.890564	
-0.886719	
-0.867676	
-0.790222	
-0.591125	
-0.242432	
0.218994	
0.70752	
1.1377	
1.44714	
1.6156	
1.64996	
1.57916	
1.43964	
1.26355	
1.07758	
0.895691	
0.715088	
0.531433	
0.353455	
0.194031	
0.0639648	
-0.0286865	
-0.0828857	
-0.10144	
-0.0928955	
-0.0722656	
-0.0529785	
-0.0438843	
-0.0513916	
-0.0812378	
-0.136536	
-0.206909	
-0.283936	
-0.36615	
-0.451965	
-0.53241	
-0.606873	
-0.677185	
-0.741272	
-0.798401	
-0.845947	
-0.882874	
-0.912354	
-0.934387	
-0.94519	
-0.945618	
-0.93457	
-0.921997	
-0.914124	
-0.906799	
-0.89917	
-0.8927	
-0.888367	
-0.877319	
-0.820984	
-0.652283	
-0.326294	
0.127014	
0.623474	
1.0766	
1.4187	
1.61755	
1.67554	
1.62366	
1.49628	
1.32043	
1.12622	
0.932556	
0.742249	
0.550842	
0.366577	
0.202271	
0.0692749	
-0.0231323	
-0.0770264	
-0.0940552	
-0.0818481	
-0.053894	
-0.03125	
-0.0239868	
-0.0354004	
-0.0685425	
-0.11908	
-0.185364	
-0.263062	
-0.345154	
-0.428528	
-0.506653	
-0.583801	
-0.659973	
-0.727356	
-0.787476	
-0.838074	
-0.881042	
-0.912415	
-0.932068	
-0.945374	
-0.950012	
-0.946655	
-0.935669	
-0.919067	
-0.900757	
-0.882202	
-0.867798	
-0.859558	
-0.85498	
-0.855347	
-0.857117	
-0.836182	
-0.736755	
-0.490112	
-0.0892944	
0.401001	
0.889832	
1.29767	
1.57037	
1.6944	
1.68579	
1.58228	
1.41895	
1.2243	
1.02399	
0.828003	
0.634155	
0.441589	
0.265808	
0.121765	
0.0194702	
-0.0428467	
-0.0636597	
-0.0488892	
-0.0150146	
0.0216064	
0.0463867	
0.0505981	
0.0327759	
-0.00836182	
-0.0709839	
-0.149048	
-0.234863	
-0.323486	
-0.41217	
-0.495972	
-0.577698	
-0.649536	
-0.711792	
-0.765198	
-0.810486	
-0.847351	
-0.873413	
-0.887451	
-0.887207	
-0.877563	
-0.86084	
-0.841553	
-0.820923	
-0.802551	
-0.791321	
-0.78717	
-0.781189	
-0.755615	
-0.661804	
-0.433289	
-0.0578613	
0.408142	
0.881958	
1.27881	
1.54895	
1.67523	
1.67523	
1.57642	
1.41187	
1.21869	
1.02142	
0.825073	
0.626221	
0.433411	
0.254883	
0.105164	
-0.000244141	
-0.0628662	
-0.0880737	
-0.0780029	
-0.0505981	
-0.0205078	
-0.00134277	
0.000854492	
-0.0169067	
-0.0592041	
-0.120361	
-0.193481	
-0.27655	
-0.364868	
-0.453735	
-0.538269	
-0.618469	
-0.69574	
-0.762939	
-0.821228	
-0.866516	
-0.899536	
-0.921204	
-0.932922	
-0.93689	
-0.93512	
-0.928528	
-0.923279	
-0.920654	
-0.921509	
-0.918213	
-0.883789	
-0.756226	
-0.47876	
-0.0541992	
0.442139	
0.919067	
1.2998	
1.54065	
1.63721	
1.61017	
1.49231	
1.32275	
1.13226	
0.940308	
0.752258	
0.563721	
0.376099	
0.198914	
0.0516968	
-0.0586548	
-0.125366	
-0.153625	
-0.150757	
-0.124512	
-0.0967407	
-0.0813599	
-0.079834	
-0.0986328	
-0.140442	
-0.201538	
-0.278076	
-0.359009	
-0.443054	
-0.529907	
-0.610352	
-0.683411	
-0.746033	
-0.805237	
-0.857849	
-0.9021	
-0.935242	
-0.956116	
-0.964417	
-0.963928	
-0.955139	
-0.943848	
-0.931152	
-0.920288	
-0.916199	
-0.914124	
-0.910583	
-0.894714	
-0.820313	
-0.613464	
-0.246948	
0.231995	
0.738098	
1.17767	
1.48962	
1.65729	
1.68903	
1.61328	
1.46429	
1.27747	
1.07825	
0.879883	
0.683716	
0.486084	
0.298279	
0.134827	
0.00866699	
-0.0745239	
-0.115906	
-0.116577	
-0.0946045	
-0.0650024	
-0.0380249	
-0.0263062	
-0.0390015	
-0.076416	
-0.132935	
-0.203552	
-0.283142	
-0.368103	
-0.45752	
-0.545471	
-0.625244	
-0.700073	
-0.766052	
-0.824951	
-0.875793	
-0.916443	
-0.940002	
-0.95166	
-0.953186	
-0.948669	
-0.935791	
-0.918091	
-0.90155	
-0.886719	
-0.878235	
-0.874878	
-0.868347	
-0.824585	
-0.685791	
-0.395325	
0.0338135	
0.523743	
0.985718	
1.34607	
1.56531	
1.64038	
1.59668	
1.47284	
1.29712	
1.09406	
0.886719	
0.681519	
0.479736	
0.288208	
0.120544	
-0.00805664	
-0.0930176	
-0.133057	
-0.138367	
-0.110413	
-0.0650635	
-0.0248413	
-0.00231934	
-0.00158691	
-0.0270996	
-0.0740967	
-0.137451	
-0.215759	
-0.298401	
-0.384155	
-0.470337	
-0.552307	
-0.627563	
-0.692749	
-0.753479	
-0.805603	
-0.844177	
-0.867493	
-0.882629	
-0.885254	
-0.882141	
-0.880554	
-0.875671	
-0.871704	
-0.871948	
-0.871155	
-0.856079	
-0.782654	
-0.581848	
-0.22467	
0.243958	
0.737183	
1.17188	
1.48303	
1.6463	
1.66998	
1.58557	
1.42804	
1.23132	
1.02283	
0.814026	
0.612793	
0.415955	
0.232056	
0.0737915	
-0.0449829	
-0.120789	
-0.157043	
-0.153198	
-0.126587	
-0.0883789	
-0.0570679	
-0.0388184	
-0.0441284	
-0.076416	
-0.128662	
-0.198486	
-0.278076	
-0.359436	
-0.44458	
-0.532227	
-0.612427	
-0.686035	
-0.750488	
-0.807068	
-0.852539	
-0.88739	
-0.910339	
-0.924011	
-0.931702	
-0.930725	
-0.922913	
-0.916687	
-0.913757	
-0.914795	
-0.91095	
-0.883118	
-0.780884	
-0.535645	
-0.135498	
0.352112	
0.840576	
1.24896	
1.52197	
1.64624	
1.64355	
1.54291	
1.37756	
1.18488	
0.987488	
0.792847	
0.599854	
0.40625	
0.225342	
0.0718994	
-0.0460815	
-0.122803	
-0.160339	
-0.1651	
-0.144653	
-0.115967	
-0.0948486	
-0.0921631	
-0.110962	
-0.148987	
-0.210571	
-0.287842	
-0.369446	
-0.453674	
-0.533936	
-0.613647	
-0.690552	
-0.756165	
-0.814575	
-0.866943	
-0.909485	
-0.943176	
-0.967834	
-0.97876	
-0.980103	
-0.9729	
-0.963501	
-0.954834	
-0.946045	
-0.938477	
-0.93689	
-0.937561	
-0.926941	
-0.868713	
-0.694153	
-0.358337	
0.105469	
0.611328	
1.07043	
1.41919	
1.62134	
1.68225	
1.62769	
1.49255	
1.30975	
1.10718	
0.904297	
0.702393	
0.50116	
0.305847	
0.133118	
-0.00012207	
-0.0899048	
-0.133972	
-0.138794	
-0.116028	
-0.0826416	
-0.0523071	
-0.036499	
-0.041687	
-0.0713501	
-0.124084	
-0.193115	
-0.272705	
-0.360535	
-0.449341	
-0.531189	
-0.60907	
-0.681885	
-0.74762	
-0.804504	
-0.854309	
-0.892456	
-0.916748	
-0.928528	
-0.932312	
-0.933533	
-0.93042	
-0.922791	
-0.913208	
-0.902466	
-0.891663	
-0.879456	
-0.850464	
-0.761902	
-0.545166	
-0.178406	
0.284973	
0.762024	
1.16974	
1.45221	
1.58997	
1.59802	
1.50232	
1.33893	
1.13977	
0.929565	
0.719177	
0.511414	
0.306458	
0.124634	
-0.0236816	
-0.12616	
-0.1745	
-0.18103	
-0.157227	
-0.112366	
-0.0639038	
-0.0275269	
-0.0160522	
-0.0250244	
-0.0560303	
-0.109436	
-0.177246	
-0.258118	
-0.346375	
-0.433105	
-0.517639	
-0.597778	
-0.674072	
-0.738586	
-0.788513	
-0.82782	
-0.853455	
-0.870483	
-0.881531	
-0.882324	
-0.878296	
-0.868835	
-0.860779	
-0.848267	
-0.816895	
-0.722046	
-0.49762	
-0.129639	
0.333557	
0.80896	
1.21173	
1.48737	
1.62335	
1.62628	
1.52667	
1.36353	
1.16638	
0.958008	
0.751892	
0.546936	
0.342407	
0.155518	
0.00384521	
-0.101501	
-0.162842	
-0.181702	
-0.169128	
-0.134338	
-0.0952759	
-0.0690308	
-0.0606689	
-0.0770874	
-0.116089	
-0.17511	
-0.249023	
-0.330811	
-0.417969	
-0.50769	
-0.591858	
-0.666748	
-0.732422	
-0.789124	
-0.833618	
-0.868469	
-0.894104	
-0.912537	
-0.927002	
-0.934387	
-0.941101	
-0.944092	
-0.944092	
-0.930237	
-0.871948	
-0.702576	
-0.374512	
0.0762939	
0.567017	
1.00897	
1.33429	
1.51178	
1.55261	
1.4856	
1.34424	
1.16296	
0.967224	
0.770752	
0.573486	
0.375793	
0.188049	
0.0239868	
-0.104309	
-0.191467	
-0.236511	
-0.246033	
-0.230225	
-0.201599	
-0.175598	
-0.164307	
-0.171448	
-0.200989	
-0.251038	
-0.315186	
-0.391418	
-0.470764	
-0.554077	
-0.63324	
-0.709045	
-0.775757	
-0.834229	
-0.884277	
-0.921082	
-0.949463	
-0.969421	
-0.980713	
-0.982971	
-0.977722	
-0.971436	
-0.967285	
-0.963379	
-0.959595	
-0.952393	
-0.93866	
-0.900757	
-0.775024	
-0.498779	
-0.0767822	
0.421082	
0.905762	
1.29712	
1.54596	
1.64813	
1.62494	
1.51044	
1.34314	
1.15063	
0.951111	
0.753723	
0.553467	
0.355286	
0.176086	
0.0280151	
-0.0772705	
-0.134644	
-0.149963	
-0.134155	
-0.10437	
-0.0789185	
-0.0678101	
-0.0768433	
-0.104858	
-0.153259	
-0.216858	
-0.295593	
-0.382202	
-0.465149	
-0.544128	
-0.623901	
-0.696655	
-0.759155	
-0.812866	
-0.857483	
-0.895569	
-0.924805	
-0.942627	
-0.952881	
-0.949341	
-0.940613	
-0.929077	
-0.915955	
-0.902161	
-0.894104	
-0.892761	
-0.894348	
-0.88324	
-0.825317	
-0.650391	
-0.319214	
0.134644	
0.626404	
1.06775	
1.39313	
1.57428	
1.61761	
1.55078	
1.40851	
1.22375	
1.02246	
0.820679	
0.618408	
0.414978	
0.226929	
0.0681763	
-0.0439453	
-0.108398	
-0.133667	
-0.123718	
-0.0929565	
-0.0562134	
-0.0308228	
-0.0206909	
-0.03479	
-0.0748901	
-0.132568	
-0.201965	
-0.280884	
-0.362732	
-0.446716	
-0.528076	
-0.602539	
-0.671326	
-0.733093	
-0.786011	
-0.830994	
-0.866211	
-0.888977	
-0.897217	
-0.8927	
-0.88269	
-0.872375	
-0.861206	
-0.853882	
-0.849243	
-0.845093	
-0.824768	
-0.738098	
-0.520264	
-0.155701	
0.300537	
0.762512	
1.15289	
1.42065	
1.54993	
1.5509	
1.44995	
1.2829	
1.08466	
0.875427	
0.66687	
0.460876	
0.263184	
0.0880737	
-0.0439453	
-0.127197	
-0.164368	
-0.164185	
-0.135132	
-0.0891113	
-0.0452271	
-0.0159912	
-0.00976563	
-0.031189	
-0.0715942	
-0.130371	
-0.202759	
-0.283691	
-0.368347	
-0.450989	
-0.524902	
-0.591736	
-0.653076	
-0.702637	
-0.7453	
-0.777771	
-0.803955	
-0.82428	
-0.839661	
-0.85199	
-0.862244	
-0.869629	
-0.867554	
-0.833801	
-0.713257	
-0.450317	
-0.0480957	
0.425964	
0.883118	
1.24866	
1.47729	
1.56232	
1.52686	
1.40411	
1.23218	
1.0368	
0.83728	
0.63739	
0.434814	
0.236084	
0.0560913	
-0.0849609	
-0.17981	
-0.233521	
-0.243713	
-0.223389	
-0.189514	
-0.156189	
-0.140381	
-0.144348	
-0.168884	
-0.215698	
-0.279785	
-0.357422	
-0.440491	
-0.521301	
-0.601563	
-0.676086	
-0.744385	
-0.804077	
-0.856018	
-0.89801	
-0.927002	
-0.947571	
-0.959839	
-0.966614	
-0.967651	
-0.966187	
-0.961548	
-0.958862	
-0.956604	
-0.927917	
-0.821716	
-0.574951	
-0.173218	
0.320618	
0.810425	
1.21423	
1.48193	
1.60059	
1.59052	
1.48285	
1.31494	
1.12274	
0.927002	
0.728821	
0.528503	
0.332275	
0.153564	
0.00628662	
-0.103638	
-0.171875	
-0.200623	
-0.198364	
-0.175537	
-0.146179	
-0.127686	
-0.125977	
-0.145874	
-0.186035	
-0.244568	
-0.31958	
-0.399292	
-0.482361	
-0.564392	
-0.641418	
-0.712402	
-0.780823	
-0.842163	
-0.897522	
-0.941711	
-0.970703	
-0.98938	
-0.99353	
-0.989258	
-0.982727	
-0.971985	
-0.960449	
-0.950806	
-0.94342	
-0.935547	
-0.919128	
-0.855835	
-0.674072	
-0.335632	
0.122253	
0.623047	
1.07245	
1.40326	
1.58392	
1.62231	
1.55151	
1.40527	
1.21368	
1.00391	
0.794617	
0.591736	
0.39032	
0.202576	
0.0443726	
-0.0748291	
-0.150818	
-0.182861	
-0.177368	
-0.146545	
-0.107971	
-0.0752563	
-0.060791	
-0.0680542	
-0.09552	
-0.146912	
-0.215698	
-0.296082	
-0.379883	
-0.465637	
-0.548035	
-0.626404	
-0.699768	
-0.765137	
-0.820374	
-0.863464	
-0.892578	
-0.908508	
-0.912354	
-0.908325	
-0.901611	
-0.895996	
-0.890137	
-0.885803	
-0.881653	
-0.87323	
-0.836609	
-0.714661	
-0.448303	
-0.0350952	
0.454651	
0.931458	
1.31659	
1.55975	
1.65558	
1.6264	
1.5011	
1.3194	
1.11176	
0.897339	
0.685791	
0.480103	
0.281433	
0.103577	
-0.0374146	
-0.133606	
-0.183716	
-0.191528	
-0.168884	
-0.132874	
-0.0960693	
-0.0701294	
-0.0631714	
-0.0784302	
-0.11969	
-0.182556	
-0.261536	
-0.349976	
-0.440613	
-0.530823	
-0.617859	
-0.701782	
-0.776001	
-0.841919	
-0.896851	
-0.937683	
-0.966309	
-0.985229	
-0.994934	
-0.99884	
-0.99823	
-0.995667	
-0.99408	
-0.991943	
-0.985474	
-0.950256	
-0.824829	
-0.545715	
-0.11731	
0.392944	
0.891357	
1.29651	
1.56024	
1.67255	
1.65527	
1.54193	
1.36676	
1.16162	
0.952454	
0.745667	
0.537537	
0.335083	
0.148987	
-0.00500488	
-0.112854	
-0.17572	
-0.199585	
-0.188843	
-0.159302	
-0.125488	
-0.101563	
-0.0931396	
-0.107971	
-0.147644	
-0.206116	
-0.279907	
-0.36145	
-0.445862	
-0.531677	
-0.618164	
-0.701416	
-0.773987	
-0.835388	
-0.889709	
-0.932068	
-0.968079	
-0.993835	
-1.00861	
-1.01166	
-1.00867	
-1.00159	
-0.992615	
-0.984741	
-0.97699	
-0.972046	
-0.964905	
-0.933044	
-0.81366	
-0.54126	
-0.11084	
0.404968	
0.911682	
1.33069	
1.61121	
1.73889	
1.73108	
1.62268	
1.44763	
1.24219	
1.02985	
0.818848	
0.607178	
0.39679	
0.207031	
0.0545044	
-0.0535278	
-0.115417	
-0.136475	
-0.127319	
-0.0933838	
-0.0551147	
-0.0285034	
-0.0241089	
-0.0426025	
-0.0839844	
-0.147766	
-0.224976	
-0.310242	
-0.399353	
-0.488281	
-0.574402	
-0.655273	
-0.728088	
-0.793823	
-0.853455	
-0.905334	
-0.944885	
-0.971191	
-0.988892	
-0.993713	
-0.991699	
-0.984924	
-0.973877	
-0.960632	
-0.946533	
-0.934021	
-0.926941	
-0.919983	
-0.893616	
-0.783936	
-0.526001	
-0.113892	
0.387573	
0.889893	
1.31134	
1.59839	
1.73566	
1.73669	
1.6344	
1.46344	
1.25543	
1.03571	
0.815674	
0.59668	
0.384094	
0.195068	
0.0447388	
-0.0582275	
-0.114807	
-0.129395	
-0.111511	
-0.0719604	
-0.0270996	
0.00463867	
0.0178223	
0.00634766	
-0.0302734	
-0.085083	
-0.154907	
-0.235229	
-0.322266	
-0.414124	
-0.505249	
-0.591187	
-0.671082	
-0.74231	
-0.806274	
-0.860107	
-0.899414	
-0.928162	
-0.946472	
-0.950317	
-0.946655	
-0.941711	
-0.93103	
-0.918518	
-0.906921	
-0.894836	
-0.864258	
-0.765015	
-0.53186	
-0.142578	
0.347839	
0.845398	
1.26733	
1.56635	
1.72131	
1.73914	
1.6496	
1.48486	
1.27582	
1.05151	
0.825867	
0.600647	
0.38147	
0.185913	
0.0311279	
-0.0759888	
-0.134155	
-0.147278	
-0.123718	
-0.0802612	
-0.0316162	
0.00811768	
0.0281982	
0.0256958	
-0.00445557	
-0.0587158	
-0.129822	
-0.211914	
-0.300476	
-0.390991	
-0.481323	
-0.567566	
-0.647888	
-0.718018	
-0.779175	
-0.828125	
-0.86499	
-0.889465	
-0.907654	
-0.919434	
-0.927979	
-0.93335	
-0.937012	
-0.939148	
-0.913513	
-0.805115	
-0.553711	
-0.144592	
0.356201	
0.85321	
1.26752	
1.54974	
1.68408	
1.68768	
1.58704	
1.41638	
1.21039	
0.993103	
0.777039	
0.559082	
0.344055	
0.145752	
-0.0172729	
-0.136475	
-0.209045	
-0.235596	
-0.222107	
-0.1875	
-0.144348	
-0.105774	
-0.0844727	
-0.0899048	
-0.117981	
-0.171509	
-0.244446	
-0.328491	
-0.415161	
-0.498352	
-0.582581	
-0.665649	
-0.744629	
-0.81366	
-0.871765	
-0.920654	
-0.955383	
-0.978516	
-0.992126	
-0.99823	
-1.00232	
-1.00256	
-1.00122	
-0.998596	
-0.995605	
-0.971375	
-0.878357	
-0.649719	
-0.259949	
0.241089	
0.762695	
1.21753	
1.54523	
1.71948	
1.75104	
1.6709	
1.5152	
1.31433	
1.10114	
0.883728	
0.664978	
0.449158	
0.247192	
0.0796509	
-0.0454712	
-0.124878	
-0.158142	
-0.152527	
-0.124146	
-0.0879517	
-0.0578613	
-0.041748	
-0.0475464	
-0.0764771	
-0.124512	
-0.191956	
-0.269775	
-0.356934	
-0.445496	
-0.535034	
-0.620361	
-0.697937	
-0.765808	
-0.826843	
-0.881104	
-0.92572	
-0.958984	
-0.980896	
-0.990295	
-0.991821	
-0.989258	
-0.981506	
-0.972473	
-0.966431	
-0.962891	
-0.956116	
-0.927917	
-0.81897	
-0.563171	
-0.154236	
0.350647	
0.857117	
1.28369	
1.57739	
1.72235	
1.72778	
1.62817	
1.461	
1.25769	
1.04114	
0.821777	
0.6026	
0.390564	
0.200134	
0.0470581	
-0.0593262	
-0.118103	
-0.13208	
-0.109741	
-0.0744629	
-0.0359497	
-0.0123291	
-0.00592041	
-0.0206909	
-0.0581665	
-0.118408	
-0.194946	
-0.281006	
-0.370728	
-0.457947	
-0.540894	
-0.620728	
-0.695923	
-0.763245	
-0.825317	
-0.878784	
-0.920471	
-0.953369	
-0.972778	
-0.980347	
-0.978516	
-0.970032	
-0.957092	
-0.941345	
-0.927673	
-0.915161	
-0.90802	
-0.900146	
-0.8797	
-0.796143	
-0.576355	
-0.199707	
0.284058	
0.786072	
1.22321	
1.53589	
1.70306	
1.73022	
1.64734	
1.48688	
1.2818	
1.05981	
0.83374	
0.612061	
0.399658	
0.206055	
0.0507813	
-0.0549316	
-0.11438	
-0.129639	
-0.105591	
-0.0635986	
-0.020752	
0.00939941	
0.0199585	
0.0112305	
-0.0175171	
-0.0671387	
-0.137268	
-0.215271	
-0.298279	
-0.384949	
-0.470398	
-0.552124	
-0.630249	
-0.701111	
-0.764038	
-0.818298	
-0.859436	
-0.892578	
-0.911804	
-0.917725	
-0.9151	
-0.904114	
-0.894043	
-0.883667	
-0.873657	
-0.864502	
-0.853455	
-0.821228	
-0.713135	
-0.460388	
-0.0586548	
0.431335	
0.920715	
1.33044	
1.61243	
1.74585	
1.74475	
1.6402	
1.46881	
1.26337	
1.04364	
0.820374	
0.598145	
0.383911	
0.193848	
0.0445557	
-0.0606079	
-0.118225	
-0.130737	
-0.108948	
-0.0686646	
-0.0266724	
0.00408936	
0.0170288	
0.00531006	
-0.0319214	
-0.0864868	
-0.158569	
-0.240234	
-0.326111	
-0.412598	
-0.502136	
-0.587524	
-0.666565	
-0.734497	
-0.794006	
-0.841858	
-0.876465	
-0.900818	
-0.915039	
-0.919373	
-0.919189	
-0.918823	
-0.916504	
-0.914795	
-0.911377	
-0.883789	
-0.775391	
-0.526672	
-0.127869	
0.360596	
0.848267	
1.26007	
1.53778	
1.66803	
1.66791	
1.56628	
1.39642	
1.19598	
0.987244	
0.77887	
0.572449	
0.369629	
0.183105	
0.0292969	
-0.0810547	
-0.147827	
-0.172363	
-0.161438	
-0.128235	
-0.0874634	
-0.0598145	
-0.0539551	
-0.0700684	
-0.106934	
-0.166687	
-0.242249	
-0.324341	
-0.413879	
-0.505859	
-0.591492	
-0.668701	
-0.741455	
-0.807434	
-0.86554	
-0.917236	
-0.958984	
-0.990479	
-1.01086	
-1.02106	
-1.01874	
-1.00354	
-0.987915	
-0.973572	
-0.964233	
-0.95874	
-0.958618	
-0.955811	
-0.929382	
-0.821838	
-0.560791	
-0.139465	
0.373657	
0.88385	
1.31146	
1.60309	
1.74219	
1.74524	
1.64349	
1.47253	
1.26672	
1.0542	
0.842834	
0.629333	
0.420105	
0.228271	
0.0716553	
-0.0429077	
-0.111389	
-0.138306	
-0.131592	
-0.106384	
-0.0767822	
-0.055481	
-0.0501099	
-0.0669556	
-0.10614	
-0.163452	
-0.236694	
-0.320313	
-0.40979	
-0.497925	
-0.580322	
-0.657349	
-0.730469	
-0.7948	
-0.851563	
-0.899658	
-0.938599	
-0.967712	
-0.986328	
-0.994568	
-0.993958	
-0.986206	
-0.972656	
-0.959473	
-0.947388	
-0.937134	
-0.933289	
-0.929321	
-0.918762	
-0.860229	
-0.677551	
-0.334778	
0.133606	
0.643616	
1.10809	
1.46033	
1.6662	
1.72699	
1.66791	
1.52441	
1.3327	
1.12225	
0.903931	
0.687683	
0.473938	
0.273254	
0.100525	
-0.0274048	
-0.111267	
-0.152588	
-0.154419	
-0.128967	
-0.0926514	
-0.0596924	
-0.0429688	
-0.0485229	
-0.0801392	
-0.13147	
-0.199646	
-0.280762	
-0.367065	
-0.455322	
-0.540466	
-0.618408	
-0.694641	
-0.766907	
-0.829712	
-0.882813	
-0.927063	
-0.960022	
-0.986023	
-1.00153	
-1.00598	
-0.999451	
-0.986023	
-0.967957	
-0.95282	
-0.94104	
-0.929749	
-0.921021	
-0.917114	
-0.909912	
-0.87146	
-0.731201	
-0.430481	
0.0132446	
0.522461	
1.01141	
1.40576	
1.65869	
1.76672	
1.74408	
1.62195	
1.43854	
1.22534	
1.00281	
0.782654	
0.56665	
0.362122	
0.183044	
0.0431519	
-0.052063	
-0.0994873	
-0.103577	
-0.0778809	
-0.0420532	
-0.00933838	
0.0106201	
0.0114136	
-0.0119629	
-0.0595093	
-0.126404	
-0.207092	
-0.292542	
-0.380371	
-0.466858	
-0.549316	
-0.62793	
-0.700928	
-0.768799	
-0.828979	
-0.880615	
-0.922058	
-0.954712	
-0.971008	
-0.9776	
-0.974915	
-0.962097	
-0.946106	
-0.930664	
-0.917664	
-0.903381	
-0.89325	
-0.887878	
-0.886597	
-0.86908	
-0.780212	
-0.552917	
-0.165955	
0.327881	
0.833862	
1.26984	
1.5802	
1.74292	
1.76648	
1.68304	
1.52576	
1.32355	
1.10516	
0.887329	
0.668152	
0.449341	
0.250244	
0.0890503	
-0.0220337	
-0.0865479	
-0.109009	
-0.0974121	
-0.0606689	
-0.0183716	
0.013855	
0.0266113	
0.0176392	
-0.0163574	
-0.069397	
-0.138611	
-0.220032	
-0.309509	
-0.401123	
-0.48761	
-0.570374	
-0.645508	
-0.712708	
-0.773254	
-0.827087	
-0.87323	
-0.907593	
-0.931091	
-0.942932	
-0.943909	
-0.935242	
-0.924316	
-0.914246	
-0.903503	
-0.893066	
-0.884644	
-0.871277	
-0.823364	
-0.672791	
-0.368347	
0.0722046	
0.570618	
1.04108	
1.41541	
1.65155	
1.74152	
1.70862	
1.58459	
1.39771	
1.18073	
0.958313	
0.739319	
0.521667	
0.311523	
0.130188	
-0.00866699	
-0.0998535	
-0.141968	
-0.141541	
-0.111633	
-0.0634766	
-0.0170898	
0.0157471	
0.0237427	
0.00286865	
-0.0404663	
-0.100037	
-0.173523	
-0.260071	
-0.350586	
-0.439575	
-0.527222	
-0.608093	
-0.67926	
-0.742615	
-0.800842	
-0.85083	
-0.885498	
-0.905212	
-0.91272	
-0.915222	
-0.914612	
-0.913757	
-0.912109	
-0.908264	
-0.888367	
-0.815125	
-0.616943	
-0.262207	
0.210083	
0.70752	
1.15179	
1.48053	
1.66638	
1.71594	
1.65051	
1.50732	
1.32031	
1.11145	
0.902649	
0.693542	
0.483276	
0.285278	
0.119873	
-0.00427246	
-0.0853271	
-0.121094	
-0.124817	
-0.10614	
-0.0762939	
-0.0490723	
-0.0387573	
-0.0480347	
-0.0766602	
-0.130005	
-0.199036	
-0.278442	
-0.364319	
-0.453796	
-0.540466	
-0.622009	
-0.695862	
-0.762146	
-0.82312	
-0.873169	
-0.910645	
-0.935242	
-0.950378	
-0.955444	
-0.954529	
-0.95343	
-0.952087	
-0.947144	
-0.941284	
-0.925659	
-0.871826	
-0.711548	
-0.396484	
0.0510864	
0.550049	
1.01392	
1.37445	
1.59296	
1.67303	
1.63849	
1.52362	
1.3562	
1.16528	
0.966858	
0.769775	
0.569275	
0.369629	
0.190979	
0.0469971	
-0.0543823	
-0.111511	
-0.128418	
-0.117676	
-0.0922852	
-0.0685425	
-0.0561523	
-0.0606079	
-0.0881348	
-0.136658	
-0.20282	
-0.285828	
-0.375061	
-0.463013	
-0.545044	
-0.620483	
-0.692322	
-0.758362	
-0.817383	
-0.86554	
-0.906006	
-0.936218	
-0.952759	
-0.959778	
-0.958862	
-0.950562	
-0.936584	
-0.924561	
-0.914734	
-0.905212	
-0.899536	
-0.890381	
-0.845764	
-0.704529	
-0.411316	
0.0197754	
0.509521	
0.973816	
1.33923	
1.56396	
1.64319	
1.60223	
1.47748	
1.30139	
1.1062	
0.909851	
0.715576	
0.521484	
0.333191	
0.162231	
0.0308838	
-0.057373	
-0.104675	
-0.118469	
-0.10791	
-0.085083	
-0.0654297	
-0.0595093	
-0.0741577	
-0.107666	
-0.159119	
-0.226013	
-0.305786	
-0.388123	
-0.468445	
-0.545471	
-0.61908	
-0.687683	
-0.750977	
-0.804749	
-0.847168	
-0.881042	
-0.907654	
-0.92804	
-0.938354	
-0.940125	
-0.93335	
-0.91748	
-0.900452	
-0.884521	
-0.871826	
-0.865173	
-0.862	
-0.864929	
-0.859253	
-0.800842	
-0.622253	
-0.283997	
0.174194	
0.667908	
1.11035	
1.43542	
1.61493	
1.65735	
1.58899	
1.44275	
1.25775	
1.06342	
0.8703	
0.67627	
0.481812	
0.295471	
0.134949	
0.0144653	
-0.0665894	
-0.106995	
-0.111145	
-0.0921021	
-0.0666504	
-0.0488281	
-0.0464478	
-0.0645752	
-0.105103	
-0.164917	
-0.237976	
-0.318726	
-0.405029	
-0.486694	
-0.563171	
-0.632874	
-0.696106	
-0.753174	
-0.804199	
-0.84613	
-0.882629	
-0.90686	
-0.918213	
-0.922913	
-0.920166	
-0.912231	
-0.897827	
-0.87854	
-0.862915	
-0.84668	
-0.831116	
-0.820251	
-0.818237	
-0.822205	
-0.828552	
-0.822632	
-0.74762	
-0.531128	
-0.151978	
0.329895	
0.824341	
1.24585	
1.54089	
1.68878	
1.70099	
1.60974	
1.45203	
1.26154	
1.05975	
0.862183	
0.665649	
0.471008	
0.292358	
0.143616	
0.0380859	
-0.0266724	
-0.0507202	
-0.0420532	
-0.0163574	
0.0135498	
0.0318604	
0.0306396	
0.00732422	
-0.0369873	
-0.0980835	
-0.170166	
-0.24939	
-0.333618	
-0.416321	
-0.498962	
-0.578552	
-0.649658	
-0.714539	
-0.768677	
-0.812866	
-0.844727	
-0.86676	
-0.878662	
-0.879944	
-0.871826	
-0.854675	
-0.832764	
-0.810547	
-0.788147	
-0.767456	
-0.752258	
-0.743225	
-0.743286	
-0.75177	
-0.747925	
-0.679565	
-0.473511	
-0.111023	
0.357422	
0.846252	
1.26715	
1.56146	
1.71057	
1.72485	
1.63287	
1.47253	
1.27667	
1.0708	
0.867981	
0.667664	
0.469666	
0.285156	
0.13446	
0.0254517	
-0.0397949	
-0.0636597	
-0.0546875	
-0.026123	
0.00299072	
0.0203247	
0.0200195	
0.000488281	
-0.0415039	
-0.105103	
-0.184265	
-0.267578	
-0.353638	
-0.439636	
-0.519836	
-0.59491	
-0.661865	
-0.720215	
-0.771729	
-0.817566	
-0.853882	
-0.878845	
-0.892212	
-0.892883	
-0.885864	
-0.876587	
-0.869385	
-0.857971	
-0.848267	
-0.843018	
-0.84082	
-0.830994	
-0.779175	
-0.619568	
-0.309631	
0.127258	
0.609009	
1.05096	
1.3877	
1.58466	
1.64655	
1.5957	
1.46625	
1.29352	
1.10303	
0.912903	
0.726807	
0.536194	
0.343323	
0.16803	
0.0270386	
-0.0776367	
-0.141663	
-0.167969	
-0.162659	
-0.14093	
-0.118164	
-0.107849	
-0.11499	
-0.139221	
-0.182556	
-0.245728	
-0.322021	
-0.407043	
-0.494507	
-0.577332	
-0.650818	
-0.720337	
-0.785706	
-0.840576	
-0.886169	
-0.924805	
-0.952026	
-0.973267	
-0.985657	
-0.986877	
-0.975647	
-0.958557	
-0.94043	
-0.921387	
-0.902832	
-0.891968	
-0.892395	
-0.895874	
-0.891418	
-0.840515	
-0.673767	
-0.345093	
0.119934	
0.632629	
1.10657	
1.46655	
1.67969	
1.75024	
1.7027	
1.57202	
1.39423	
1.20374	
1.01544	
0.826111	
0.634399	
0.441406	
0.258789	
0.108521	
0.000488281	
-0.0653076	
-0.0928345	
-0.0899658	
-0.0722046	
-0.0536499	
-0.0477905	
-0.0571289	
-0.0870361	
-0.141785	
-0.210144	
-0.289673	
-0.373474	
-0.455322	
-0.53418	
-0.611938	
-0.688782	
-0.758606	
-0.820496	
-0.871521	
-0.913269	
-0.945862	
-0.965698	
-0.974121	
-0.976074	
-0.972046	
-0.962219	
-0.947693	
-0.926636	
-0.90686	
-0.890015	
-0.877991	
-0.870544	
-0.867493	
-0.871521	
-0.876038	
-0.846985	
-0.710266	
-0.411377	
0.0419922	
0.564575	
1.05902	
1.45044	
1.69659	
1.79065	
1.75922	
1.63922	
1.46051	
1.25726	
1.05737	
0.861267	
0.664795	
0.468872	
0.287659	
0.136963	
0.0284424	
-0.0401001	
-0.0679932	
-0.0620728	
-0.0390625	
-0.0170898	
-0.00634766	
-0.0158691	
-0.0449219	
-0.0961304	
-0.164307	
-0.247559	
-0.332092	
-0.41925	
-0.503601	
-0.585693	
-0.66156	
-0.729431	
-0.791992	
-0.845093	
-0.887024	
-0.917297	
-0.939697	
-0.953125	
-0.960632	
-0.964722	
-0.962036	
-0.950195	
-0.93103	
-0.914429	
-0.895569	
-0.87915	
-0.868347	
-0.864746	
-0.867798	
-0.876221	
-0.888184	
-0.887878	
-0.829834	
-0.634949	
-0.264282	
0.235107	
0.767944	
1.24652	
1.60272	
1.80591	
1.86169	
1.80121	
1.66077	
1.47504	
1.27258	
1.06854	
0.86792	
0.665222	
0.467957	
0.29657	
0.165588	
0.0750732	
0.0275879	
0.013855	
0.0281372	
0.0529175	
0.0765991	
0.0859985	
0.0709839	
0.0307617	
-0.0313721	
-0.106812	
-0.192383	
-0.282288	
-0.373779	
-0.462646	
-0.547913	
-0.625732	
-0.693542	
-0.753662	
-0.805359	
-0.846436	
-0.876526	
-0.895691	
-0.90802	
-0.914307	
-0.912109	
-0.903564	
-0.887207	
-0.86676	
-0.845093	
-0.826599	
-0.809326	
-0.79718	
-0.792053	
-0.797546	
-0.810547	
-0.808716	
-0.744507	
-0.5448	
-0.178833	
0.300598	
0.806641	
1.25134	
1.57434	
1.7464	
1.78101	
1.70276	
1.5495	
1.3576	
1.14929	
0.940735	
0.732422	
0.525085	
0.329224	
0.165405	
0.0452881	
-0.0246582	
-0.048645	
-0.0379639	
-0.00689697	
0.0298462	
0.0568237	
0.0645142	
0.0508423	
0.0131226	
-0.0402222	
-0.110107	
-0.194092	
-0.28479	
-0.375488	
-0.466248	
-0.547607	
-0.624512	
