-0.106506	
-0.0994263	
-0.0706177	
-0.0477905	
-0.0320435	
-0.0217285	
-0.0159302	
-0.0100098	
-0.00311279	
0.00146484	
0.00653076	
0.00933838	
0.00598145	
-0.000671387	
-0.0057373	
-0.0117188	
-0.0193481	
-0.0255737	
-0.0338135	
-0.0406494	
-0.0446777	
-0.0474854	
-0.0534668	
-0.0570068	
-0.0621338	
-0.0691528	
-0.0772095	
-0.0872803	
-0.10083	
-0.111816	
-0.119507	
-0.126587	
-0.133972	
-0.142578	
-0.150818	
-0.157898	
-0.166992	
-0.173279	
-0.17627	
-0.178223	
-0.181335	
-0.182861	
-0.186707	
-0.1922	
-0.197266	
-0.205383	
-0.212219	
-0.213684	
-0.20105	
-0.169922	
-0.124451	
-0.0776367	
-0.0354004	
-0.00219727	
0.0244141	
0.0474243	
0.0595093	
0.0687256	
0.0766602	
0.0836792	
0.0886841	
0.0961914	
0.102478	
0.102783	
0.0983276	
0.0896606	
0.0801392	
0.0726318	
0.0652466	
0.0554199	
0.0505371	
0.0446167	
0.0325928	
0.0222168	
0.0136108	
0.000793457	
-0.0108032	
-0.0228271	
-0.0351563	
-0.0460815	
-0.0576172	
-0.067749	
-0.0783691	
-0.0908813	
-0.102173	
-0.113037	
-0.122864	
-0.131653	
-0.140015	
-0.144775	
-0.150757	
-0.158813	
-0.167542	
-0.175049	
-0.181946	
-0.186523	
-0.189148	
-0.194763	
-0.202332	
-0.207214	
-0.21051	
-0.213623	
-0.206848	
-0.185364	
-0.150879	
-0.107483	
-0.064209	
-0.0270996	
0.00494385	
0.0290527	
0.0447388	
0.0565186	
0.065918	
0.0712891	
0.0794067	
0.0908813	
0.0982056	
0.100403	
0.0983276	
0.0939331	
0.0855713	
0.0772095	
0.0671387	
0.0562744	
0.0428467	
0.0336914	
0.0246582	
0.015625	
0.00610352	
-0.00537109	
-0.015564	
-0.0263672	
-0.0354004	
-0.0466309	
-0.0596924	
-0.0727539	
-0.0823975	
-0.0921021	
-0.10083	
-0.10907	
-0.119263	
-0.129822	
-0.141113	
-0.152161	
-0.162659	
-0.174683	
-0.184204	
-0.191284	
-0.197144	
-0.200684	
-0.205017	
-0.212769	
-0.219604	
-0.225281	
-0.228699	
-0.226563	
-0.209229	
-0.176636	
-0.136047	
-0.0919189	
-0.0562744	
-0.0314331	
-0.0126953	
0.00012207	
0.00799561	
0.0187988	
0.0288086	
0.0371094	
0.045105	
0.0515137	
0.0515747	
0.0457153	
0.034668	
0.0234985	
0.0128174	
0.003479	
-0.00500488	
-0.0144043	
-0.0202637	
-0.0275269	
-0.0368042	
-0.0454102	
-0.0528564	
-0.0617065	
-0.0715332	
-0.0809937	
-0.0913086	
-0.101624	
-0.113281	
-0.124878	
-0.134033	
-0.144653	
-0.153992	
-0.16333	
-0.171326	
-0.180786	
-0.191162	
-0.199097	
-0.20813	
-0.214355	
-0.219543	
-0.225037	
-0.229309	
-0.234558	
-0.237183	
-0.239136	
-0.24353	
-0.248413	
-0.254456	
-0.259338	
-0.264587	
-0.263123	
-0.244751	
-0.210876	
-0.170776	
-0.131348	
-0.0963135	
-0.0671387	
-0.0455933	
-0.0324097	
-0.0220947	
-0.0101318	
0.000793457	
0.0125122	
0.0219727	
0.0311279	
0.0379639	
0.0410156	
0.0380249	
0.031189	
0.024353	
0.0168457	
0.0102539	
0.00170898	
-0.0101318	
-0.0229492	
-0.0323486	
-0.0444946	
-0.055481	
-0.0672607	
-0.0792847	
-0.0914917	
-0.103516	
-0.115417	
-0.124878	
-0.13324	
-0.141724	
-0.15155	
-0.161499	
-0.16803	
-0.172424	
-0.17627	
-0.18219	
-0.187805	
-0.192383	
-0.197937	
-0.206909	
-0.213684	
-0.220947	
-0.226013	
-0.229492	
-0.236267	
-0.247314	
-0.255859	
-0.261841	
-0.268799	
-0.275208	
-0.279663	
-0.284241	
-0.28833	
-0.290405	
-0.288757	
-0.286682	
-0.285645	
-0.286194	
-0.288879	
-0.288025	
-0.281494	
-0.264771	
-0.234558	
-0.194763	
-0.154358	
-0.1203	
-0.0911865	
-0.0695801	
-0.0563354	
-0.0469971	
-0.0408936	
-0.0330811	
-0.0245972	
-0.0188599	
-0.0144043	
-0.0112915	
-0.0102539	
-0.0129395	
-0.0161133	
-0.0218506	
-0.0258789	
-0.0286865	
-0.0330811	
-0.0408936	
-0.0524292	
-0.0631104	
-0.0701294	
-0.0762939	
-0.0828857	
-0.0900879	
-0.0980225	
-0.105164	
-0.112549	
-0.119629	
-0.125	
-0.130798	
-0.136108	
-0.139465	
-0.143433	
-0.147583	
-0.154846	
-0.161438	
-0.165283	
-0.171997	
-0.180786	
-0.18811	
-0.19458	
-0.199768	
-0.205261	
-0.211426	
-0.214844	
-0.216553	
-0.217529	
-0.218994	
-0.218506	
-0.222656	
-0.2276	
-0.229248	
-0.227966	
-0.226501	
-0.228149	
-0.22998	
-0.227661	
-0.223999	
-0.216003	
-0.19281	
-0.158752	
-0.119873	
-0.0852661	
-0.0593262	
-0.0388794	
-0.0231323	
-0.0109863	
-0.00360107	
0.00354004	
0.00994873	
0.0176392	
0.0252686	
0.0334473	
0.0391235	
0.0396118	
0.0371094	
0.0292358	
0.0215454	
0.0155029	
0.0106201	
0.00616455	
0.00109863	
-0.00518799	
-0.0133667	
-0.0212402	
-0.0278931	
-0.0334473	
-0.0388794	
-0.046875	
-0.0534668	
-0.0612793	
-0.0726929	
-0.0838013	
-0.0934448	
-0.101135	
-0.110291	
-0.120117	
-0.12854	
-0.137329	
-0.144226	
-0.148621	
-0.154175	
-0.160217	
-0.16571	
-0.170227	
-0.173645	
-0.17804	
-0.182129	
-0.190125	
-0.198853	
-0.203308	
-0.205383	
-0.206909	
-0.209412	
-0.213135	
-0.218018	
-0.22168	
-0.22821	
-0.230896	
-0.231201	
-0.231567	
-0.22821	
-0.213379	
-0.184937	
-0.144836	
-0.105591	
-0.0684814	
-0.0391846	
-0.0218506	
-0.013916	
-0.0108032	
-0.00823975	
-0.00140381	
0.00579834	
0.0130005	
0.0211182	
0.0309448	
0.0366211	
0.0336304	
0.0299072	
0.0244751	
0.019104	
0.0109863	
0.00622559	
0	
-0.00476074	
-0.00720215	
-0.0114746	
-0.0162354	
-0.024353	
-0.0357056	
-0.0450439	
-0.0560303	
-0.0664063	
-0.0733643	
-0.0796509	
-0.0892334	
-0.0990601	
-0.106934	
-0.113708	
-0.120605	
-0.125244	
-0.128601	
-0.134766	
-0.140259	
-0.146973	
-0.151794	
-0.158081	
-0.161804	
-0.169189	
-0.176208	
-0.183044	
-0.189331	
-0.190674	
-0.19165	
-0.192444	
-0.197021	
-0.201477	
-0.202515	
-0.201538	
-0.202515	
-0.205872	
-0.204346	
-0.191711	
-0.167358	
-0.133484	
-0.0963135	
-0.0598145	
-0.0307617	
-0.0124512	
-0.000305176	
0.00823975	
0.0133667	
0.0141602	
0.0187378	
0.0247192	
0.0324097	
0.038147	
0.0426025	
0.0465698	
0.0480347	
0.0448608	
0.0397339	
0.0332642	
0.0282593	
0.0229492	
0.0168457	
0.00854492	
-0.000854492	
-0.00927734	
-0.0166626	
-0.0244751	
-0.0318604	
-0.0403442	
-0.0496216	
-0.0604248	
-0.071106	
-0.0797729	
-0.0877075	
-0.0944824	
-0.102539	
-0.109497	
-0.11554	
-0.119751	
-0.12384	
-0.127319	
-0.13092	
-0.134094	
-0.14093	
-0.147522	
-0.155762	
-0.163757	
-0.169373	
-0.173401	
-0.175415	
-0.178894	
-0.186096	
-0.190369	
-0.18927	
-0.177979	
-0.151733	
-0.114563	
-0.0749512	
-0.0385742	
-0.0117798	
0.00537109	
0.0147705	
0.0213623	
0.0289917	
0.0338745	
0.0389404	
0.0460815	
0.0541992	
0.06073	
0.0618896	
0.0571289	
0.0488281	
0.0404663	
0.0325317	
0.0262451	
0.0222168	
0.0167847	
0.0101929	
0.00488281	
-0.00354004	
-0.0133057	
-0.0214844	
-0.0303955	
-0.0393066	
-0.0494385	
-0.0562744	
-0.0631104	
-0.0709839	
-0.0795288	
-0.0889893	
-0.0985718	
-0.107056	
-0.117981	
-0.126648	
-0.134033	
-0.141541	
-0.148499	
-0.157227	
-0.167236	
-0.174866	
-0.179749	
-0.18335	
-0.187317	
-0.187195	
-0.189392	
-0.194214	
-0.197021	
-0.200256	
-0.202087	
-0.202271	
-0.200562	
-0.188599	
-0.161438	
-0.124329	
-0.083313	
-0.0455322	
-0.0158691	
0.00701904	
0.0209961	
0.0297241	
0.0335083	
0.0369873	
0.0421753	
0.0471802	
0.053772	
0.0593872	
0.0594482	
0.0565186	
0.0533447	
0.0499878	
0.0442505	
0.0351563	
0.0264893	
0.0170898	
0.00811768	
0.00183105	
-0.00372314	
-0.0100708	
-0.0169678	
-0.026123	
-0.0358887	
-0.0473022	
-0.0562744	
-0.0664063	
-0.0756226	
-0.0825806	
-0.0875854	
-0.0922241	
-0.0975342	
-0.105896	
-0.113159	
-0.117737	
-0.122742	
-0.129944	
-0.135742	
-0.142212	
-0.151917	
-0.161621	
-0.169556	
-0.177612	
-0.184265	
-0.188171	
-0.194397	
-0.200378	
-0.204773	
-0.210632	
-0.213745	
-0.217163	
-0.223145	
-0.230957	
-0.235718	
-0.233765	
-0.216431	
-0.181152	
-0.13916	
-0.0980225	
-0.0626221	
-0.034729	
-0.0149536	
-0.000732422	
0.00921631	
0.013855	
0.0167847	
0.0202637	
0.0249634	
0.0345459	
0.0432129	
0.0492554	
0.0493774	
0.0443115	
0.0377808	
0.0296631	
0.0217896	
0.0164185	
0.0130615	
0.0116577	
0.00701904	
0.0010376	
-0.00402832	
-0.0124512	
-0.0228271	
-0.0308838	
-0.0384521	
-0.0453491	
-0.0552979	
-0.0661011	
-0.0820313	
-0.093689	
-0.104492	
-0.113953	
-0.122986	
-0.131104	
-0.139282	
-0.145508	
-0.151001	
-0.15448	
-0.159241	
-0.163879	
-0.171265	
-0.180481	
-0.188965	
-0.195618	
-0.200928	
-0.203125	
-0.203857	
-0.207275	
-0.211304	
-0.214539	
-0.21637	
-0.216187	
-0.206299	
-0.18219	
-0.146729	
-0.106689	
-0.0692749	
-0.0393066	
-0.0172119	
-0.00421143	
0.00579834	
0.0109863	
0.0171509	
0.0252686	
0.0330811	
0.0402832	
0.0438232	
0.0447388	
0.0415649	
0.0386963	
0.0299072	
0.0209961	
0.0159302	
0.00750732	
0.00274658	
-0.000610352	
-0.00750732	
-0.0155029	
-0.0231934	
-0.0320435	
-0.0432739	
-0.0526123	
-0.0627441	
-0.0743408	
-0.0852051	
-0.0945435	
-0.100647	
-0.106995	
-0.114929	
-0.121155	
-0.126587	
-0.134094	
-0.1427	
-0.152344	
-0.159912	
-0.164795	
-0.171875	
-0.178833	
-0.182983	
-0.186646	
-0.189697	
-0.195496	
-0.199036	
-0.204773	
-0.213501	
-0.21991	
-0.223633	
-0.218323	
-0.199036	
-0.165894	
-0.125488	
-0.0839233	
-0.0473633	
-0.0184326	
0.003479	
0.0170288	
0.0248413	
0.0307617	
0.0368042	
0.0405273	
0.0471802	
0.0527954	
0.0557251	
0.0556641	
0.0535278	
0.0480957	
0.0423584	
0.0352783	
0.0268555	
0.0175781	
0.0088501	
-0.00128174	
-0.0117798	
-0.0211792	
-0.0286255	
-0.0372314	
-0.0457153	
-0.055481	
-0.0645752	
-0.0732422	
-0.0808105	
-0.0875854	
-0.0926514	
-0.0990601	
-0.105591	
-0.111816	
-0.118835	
-0.125	
-0.131104	
-0.13916	
-0.147095	
-0.157654	
-0.166565	
-0.173096	
-0.179688	
-0.184326	
-0.19043	
-0.196899	
-0.20343	
-0.210632	
-0.213257	
-0.21814	
-0.224854	
-0.228455	
-0.22821	
-0.23114	
-0.233887	
-0.230774	
-0.21814	
-0.19281	
-0.158447	
-0.119385	
-0.0823975	
-0.0546875	
-0.0379639	
-0.0275879	
-0.0192871	
-0.0159302	
-0.012146	
-0.0088501	
-0.00274658	
0.00689697	
0.0177002	
0.0255127	
0.0272827	
0.0249023	
0.0186157	
0.012085	
0.00305176	
-0.00793457	
-0.0153198	
-0.0220337	
-0.0264893	
-0.02948	
-0.0344238	
-0.0419922	
-0.0510254	
-0.0581665	
-0.0670166	
-0.0768433	
-0.0866699	
-0.097168	
-0.107544	
-0.117554	
-0.125977	
-0.133301	
-0.140686	
-0.147949	
-0.15509	
-0.163269	
-0.172974	
-0.181274	
-0.186584	
-0.190979	
-0.195862	
-0.201416	
-0.20874	
-0.217712	
-0.221802	
-0.226501	
-0.232666	
-0.238831	
-0.243347	
-0.244202	
-0.246521	
-0.253113	
-0.257324	
-0.258545	
-0.260193	
-0.253357	
-0.233643	
-0.203308	
-0.167603	
-0.133606	
-0.103149	
-0.0801392	
-0.0635376	
-0.0522461	
-0.0471802	
-0.0418701	
-0.0354614	
-0.0296021	
-0.0224609	
-0.0146484	
-0.00927734	
-0.00616455	
-0.00799561	
-0.0114136	
-0.0157471	
-0.022644	
-0.0280762	
-0.0307617	
-0.0343018	
-0.0386353	
-0.0426636	
-0.0512085	
-0.0584106	
-0.0665894	
-0.0739746	
-0.0817871	
-0.0896606	
-0.0974121	
-0.104797	
-0.111633	
-0.117554	
-0.12146	
-0.126892	
-0.13147	
-0.136536	
-0.14209	
-0.148254	
-0.152771	
-0.15802	
-0.164734	
-0.172241	
-0.179749	
-0.18573	
-0.192322	
-0.198792	
-0.203369	
-0.207764	
-0.214111	
-0.219604	
-0.218445	
-0.209412	
-0.192871	
-0.163452	
-0.127747	
-0.0942993	
-0.0687256	
-0.0502319	
-0.0369873	
-0.0270996	
-0.0200195	
-0.0142212	
-0.00921631	
-0.00695801	
-0.00341797	
0.00219727	
0.00750732	
0.00805664	
0.00439453	
0.000976563	
-0.00476074	
-0.0133057	
-0.0202637	
-0.0259399	
-0.0319214	
-0.0372314	
-0.0424194	
-0.048645	
-0.0541992	
-0.0583496	
-0.06073	
-0.0648193	
-0.072876	
-0.0830078	
-0.09198	
-0.102234	
-0.112366	
-0.122009	
-0.133423	
-0.141418	
-0.150513	
-0.159241	
-0.164612	
-0.170837	
-0.176941	
-0.181213	
-0.185059	
-0.190308	
-0.194885	
-0.200623	
-0.208069	
-0.215027	
-0.223022	
-0.229431	
-0.236633	
-0.243347	
-0.244934	
-0.243347	
-0.240845	
-0.231201	
-0.208618	
-0.175415	
-0.13562	
-0.0963745	
-0.067627	
-0.0462036	
-0.0305176	
-0.0184326	
-0.00933838	
-0.00268555	
0.00653076	
0.0163574	
0.0233765	
0.0297241	
0.036499	
0.0406494	
0.036499	
0.0304565	
0.022644	
0.0145264	
0.00915527	
0.00274658	
-0.00372314	
-0.00921631	
-0.0131226	
-0.0169678	
-0.0236206	
-0.0320435	
-0.0415039	
-0.0516968	
-0.0637207	
-0.0733643	
-0.0823364	
-0.0924072	
-0.100464	
-0.109741	
-0.118896	
-0.122131	
-0.126831	
-0.132935	
-0.138794	
-0.145874	
-0.155029	
-0.163269	
-0.170654	
-0.177856	
-0.185669	
-0.19397	
-0.198303	
-0.202454	
-0.203552	
-0.204895	
-0.208557	
-0.210449	
-0.206543	
-0.190857	
-0.159851	
-0.119812	
-0.0824585	
-0.0513916	
-0.0275269	
-0.00891113	
0.0032959	
0.0098877	
0.0106812	
0.0118408	
0.0183716	
0.027771	
0.0322266	
0.0337524	
0.0308228	
0.0267334	
0.0214233	
0.0185547	
0.0111694	
0.00408936	
-0.0012207	
-0.00805664	
-0.0163574	
-0.0258179	
-0.0371704	
-0.0453491	
-0.0552979	
-0.0650635	
-0.0707397	
-0.0750732	
-0.0818481	
-0.0892944	
-0.0956421	
-0.105286	
-0.114868	
-0.120667	
-0.12677	
-0.130737	
-0.135986	
-0.141968	
-0.145508	
-0.150024	
-0.154297	
-0.160217	
-0.16687	
-0.174683	
-0.181152	
-0.186707	
-0.190002	
-0.192322	
-0.183594	
-0.162231	
-0.128662	
-0.0906372	
-0.0564575	
-0.0328369	
-0.0158691	
-0.00469971	
0.00390625	
0.0127563	
0.0224609	
0.0325317	
0.0429688	
0.0505371	
0.0568237	
0.0615234	
0.0602417	
0.0581665	
0.0519409	
0.0428467	
0.0343628	
0.0281982	
0.0228882	
0.0153809	
0.00952148	
0.000305176	
-0.00982666	
-0.0189819	
-0.0293579	
-0.0393066	
-0.0505981	
-0.06073	
-0.0701294	
-0.0775757	
-0.086792	
-0.0952148	
-0.102844	
-0.113831	
-0.122253	
-0.125854	
-0.130188	
-0.134583	
-0.139282	
-0.145691	
-0.149841	
-0.156067	
-0.164856	
-0.171387	
-0.17865	
-0.186218	
-0.192566	
-0.19989	
-0.200745	
-0.191284	
-0.165283	
-0.128174	
-0.0911865	
-0.0569458	
-0.027832	
-0.0117798	
-0.00354004	
0.0020752	
0.00738525	
0.0134888	
0.0187988	
0.0267334	
0.0354614	
0.0409546	
0.0422974	
0.0386963	
0.0316162	
0.0229492	
0.0137939	
0.00402832	
-0.0065918	
-0.0153809	
-0.0250244	
-0.0330811	
-0.0408325	
-0.0481567	
-0.0527954	
-0.0581055	
-0.0662842	
-0.0762939	
-0.0849609	
-0.0953369	
-0.108826	
-0.122803	
-0.135254	
-0.147888	
-0.160156	
-0.168945	
-0.174866	
-0.182007	
-0.188782	
-0.195679	
-0.200195	
-0.202026	
-0.203552	
-0.205261	
-0.211243	
-0.217468	
-0.223083	
-0.229553	
-0.237305	
-0.240173	
-0.236023	
-0.215759	
-0.180481	
-0.143799	
-0.108765	
-0.0806274	
-0.057312	
-0.0402832	
-0.0294189	
-0.0228271	
-0.0172119	
-0.00860596	
-0.00360107	
-0.000183105	
0.000488281	
-0.00244141	
-0.00402832	
-0.00921631	
-0.0162354	
-0.0258179	
-0.0343628	
-0.0428467	
-0.0479126	
-0.0507813	
-0.0568848	
-0.0623779	
-0.0698853	
-0.0782471	
-0.0856934	
-0.0932007	
-0.100891	
-0.108337	
-0.114929	
-0.123291	
-0.132996	
-0.142578	
-0.148621	
-0.154968	
-0.162781	
-0.170654	
-0.178406	
-0.184387	
-0.188721	
-0.192444	
-0.197327	
-0.202026	
-0.204407	
-0.20636	
-0.204468	
-0.192444	
-0.166748	
-0.131287	
-0.0939941	
-0.0603027	
-0.0349731	
-0.0174561	
-0.00549316	
0.00164795	
0.00531006	
0.00982666	
0.0154419	
0.0224609	
0.0285645	
0.0327148	
0.0301514	
0.0248413	
0.0195923	
0.0123901	
0.00482178	
-0.0043335	
-0.0130005	
-0.0213623	
-0.0299683	
-0.0385742	
-0.0454712	
-0.0532837	
-0.0635986	
-0.0741577	
-0.0846558	
-0.0966187	
-0.110229	
-0.120239	
-0.132019	
-0.143433	
-0.155518	
-0.16156	
-0.16687	
-0.169983	
-0.174316	
-0.178589	
-0.184753	
-0.192505	
-0.199951	
-0.205078	
-0.21106	
-0.215942	
-0.22113	
-0.226929	
-0.232483	
-0.237244	
-0.238159	
-0.239929	
-0.246033	
-0.251282	
-0.252991	
-0.247681	
-0.22937	
-0.19574	
-0.154602	
-0.114197	
-0.0817871	
-0.0578003	
-0.0422363	
-0.0320435	
-0.022583	
-0.0158081	
-0.0102539	
-0.00421143	
0.00372314	
0.0102539	
0.0160522	
0.020752	
0.0203247	
0.0166626	
0.0115967	
0.00628662	
0.000854492	
-0.00720215	
-0.0157471	
-0.0211182	
-0.0273438	
-0.0337524	
-0.0397949	
-0.046936	
-0.0542603	
-0.0646362	
-0.0745239	
-0.0859985	
-0.0976563	
-0.110168	
-0.122437	
-0.133301	
-0.143494	
-0.152161	
-0.159119	
-0.162537	
-0.165527	
-0.172974	
-0.177551	
-0.182312	
-0.189026	
-0.193787	
-0.19812	
-0.200745	
-0.201599	
-0.203186	
-0.202087	
-0.204163	
-0.206909	
-0.207703	
-0.210876	
-0.214417	
-0.21814	
-0.219849	
-0.222351	
-0.224365	
-0.226379	
-0.228882	
-0.229736	
-0.225525	
-0.207397	
-0.172852	
-0.131592	
-0.0922852	
-0.0586548	
-0.0326538	
-0.0139771	
-0.00170898	
0.00799561	
0.0111084	
0.0114136	
0.0124512	
0.0170898	
0.0227661	
0.0259399	
0.0269775	
0.0258789	
0.0228882	
0.0219116	
0.0209351	
0.0148926	
0.00671387	
-0.000671387	
-0.00775146	
-0.0148926	
-0.0216064	
-0.0300903	
-0.0369873	
-0.043335	
-0.0501099	
-0.0562134	
-0.0633545	
-0.0722656	
-0.0805664	
-0.0888672	
-0.101196	
-0.109924	
-0.115723	
-0.120239	
-0.123352	
-0.128967	
-0.136475	
-0.14502	
-0.154785	
-0.163574	
-0.173157	
-0.180481	
-0.186462	
-0.19165	
-0.194458	
-0.197266	
-0.201599	
-0.205566	
-0.210083	
-0.214172	
-0.218628	
-0.223022	
-0.226685	
-0.229004	
-0.231384	
-0.232544	
-0.228882	
-0.218018	
-0.191467	
-0.152466	
-0.106873	
-0.0652466	
-0.029541	
-0.00622559	
0.00701904	
0.0184937	
0.027771	
0.0324097	
0.0373535	
0.0444336	
0.0500488	
0.0565796	
0.0634766	
0.0664673	
0.0640259	
0.0565796	
0.0466919	
0.0366211	
0.02948	
0.0232544	
0.0168457	
0.00866699	
0.000671387	
-0.00592041	
-0.0139771	
-0.024292	
-0.0324097	
-0.038269	
-0.0430298	
-0.0488281	
-0.0570679	
-0.06604	
-0.0742188	
-0.0826416	
-0.0906372	
-0.0971069	
-0.105774	
-0.114075	
-0.120361	
-0.128174	
-0.135132	
-0.142334	
-0.153137	
-0.164734	
-0.174194	
-0.1828	
-0.189209	
-0.196716	
-0.203308	
-0.210388	
-0.21582	
-0.221313	
-0.226929	
-0.228271	
-0.230713	
-0.231689	
-0.228271	
-0.210205	
-0.17572	
-0.132996	
-0.0888672	
-0.0535889	
-0.0245972	
-0.00604248	
0.0057373	
0.0134888	
0.0169678	
0.019165	
0.022522	
0.0291748	
0.0385742	
0.0462036	
0.0494385	
0.0492554	
0.0426025	
0.0344849	
0.0303345	
0.0252075	
0.0169678	
0.00744629	
0.000549316	
-0.0107422	
-0.0203857	
-0.0289307	
-0.0385132	
-0.0471802	
-0.0564575	
-0.0681152	
-0.0794678	
-0.090271	
-0.100525	
-0.110535	
-0.119446	
-0.125793	
-0.131836	
-0.139038	
-0.1474	
-0.155029	
-0.161133	
-0.167664	
-0.175232	
-0.182373	
-0.188782	
-0.194702	
-0.201172	
-0.205444	
-0.207275	
-0.211487	
-0.218018	
-0.221497	
-0.226074	
-0.22937	
-0.233032	
-0.232727	
-0.225891	
-0.206299	
-0.170532	
-0.127991	
-0.0852661	
-0.0510254	
-0.0255737	
-0.00714111	
0.00512695	
0.0140991	
0.0222778	
0.0305786	
0.0390015	
0.0466919	
0.0543823	
0.0584717	
0.0584106	
0.0550537	
0.0482788	
0.0422363	
0.0372925	
0.0299683	
0.0217896	
0.0144653	
0.00402832	
-0.00701904	
-0.0169678	
-0.024231	
-0.0300293	
-0.0349731	
-0.043396	
-0.053833	
-0.0641479	
-0.0748901	
-0.0844727	
-0.093811	
-0.103271	
-0.111023	
-0.116943	
-0.122986	
-0.129517	
-0.136414	
-0.143372	
-0.152344	
-0.16217	
-0.169983	
-0.177979	
-0.187012	
-0.194458	
-0.198547	
-0.202332	
-0.206055	
-0.209106	
-0.212036	
-0.219299	
-0.224854	
-0.225891	
-0.211121	
-0.17926	
-0.138306	
-0.0990601	
-0.0606689	
-0.0284424	
-0.00708008	
0.00952148	
0.0220337	
0.031311	
0.0397949	
0.0459595	
0.0487061	
0.0479126	
0.0466309	
0.0454712	
0.0411377	
0.0352173	
0.0299683	
0.0253906	
0.020752	
0.015564	
0.00817871	
-0.000732422	
-0.0102539	
-0.0197144	
-0.0274658	
-0.0383301	
-0.0494385	
-0.0581665	
-0.0683594	
-0.0786743	
-0.0889893	
-0.100586	
-0.111084	
-0.117432	
-0.123596	
-0.129883	
-0.134644	
-0.140747	
-0.152283	
-0.161255	
-0.168457	
-0.176758	
-0.183044	
-0.188843	
-0.195557	
-0.201233	
-0.205444	
-0.209412	
-0.213379	
-0.216675	
-0.222351	
-0.230103	
-0.237732	
-0.243408	
-0.246643	
-0.237122	
-0.208679	
-0.168884	
-0.126099	
-0.0861816	
-0.0524292	
-0.0256348	
-0.00823975	
0.00567627	
0.0194092	
0.0292358	
0.0354614	
0.0447388	
0.0532227	
0.0608521	
0.0650635	
0.0640869	
0.0621948	
0.0563354	
0.0485229	
0.0429688	
0.0341797	
0.0256958	
0.0158081	
0.00366211	
-0.00799561	
-0.0186157	
-0.0268555	
-0.0353394	
-0.0430908	
-0.0528564	
-0.0627441	
-0.0717773	
-0.081604	
-0.0947876	
-0.104553	
-0.112732	
-0.120728	
-0.127563	
-0.134644	
-0.142334	
-0.148743	
-0.15448	
-0.161743	
-0.168274	
-0.174561	
-0.180786	
-0.186096	
-0.19397	
-0.202637	
-0.210205	
-0.219727	
-0.228088	
-0.234924	
-0.239319	
-0.241516	
-0.244141	
-0.243469	
-0.243286	
-0.245544	
-0.247437	
-0.249939	
-0.249023	
-0.23999	
-0.217102	
-0.179138	
-0.136719	
-0.0961914	
-0.0598755	
-0.031311	
-0.00878906	
0.00488281	
0.0144043	
0.020874	
0.0267334	
0.0336304	
0.0411987	
0.0488892	
0.0548096	
0.0570068	
0.0552368	
0.0526733	
0.0505371	
0.0473633	
0.0407715	
0.031311	
0.0247803	
0.0178833	
0.012146	
0.00598145	
-0.00354004	
-0.0136108	
-0.0248413	
-0.0321045	
-0.039856	
-0.0483398	
-0.0575562	
-0.0689087	
-0.0814819	
-0.0927734	
-0.101379	
-0.110352	
-0.11908	
-0.130127	
-0.139648	
-0.146973	
-0.154297	
-0.163757	
-0.170776	
-0.178711	
-0.186035	
-0.191895	
-0.197266	
-0.204102	
-0.214111	
-0.221069	
-0.224121	
-0.22998	
-0.234375	
-0.234741	
-0.236145	
-0.23645	
-0.238953	
-0.241699	
-0.24054	
-0.234253	
-0.213684	
-0.17688	
-0.132141	
-0.0894165	
-0.0557861	
-0.0257568	
0.000976563	
0.0184326	
0.0286865	
0.0351563	
0.0388794	
0.0429688	
0.046936	
0.0485229	
0.0513916	
0.0519409	
0.0488892	
0.0458984	
0.0390015	
0.0314331	
0.0235596	
0.0171509	
0.0135498	
0.00836182	
0.00201416	
-0.00476074	
-0.013855	
-0.0229492	
-0.0310669	
-0.0397339	
-0.0516357	
-0.0646973	
-0.0789185	
-0.0905151	
-0.0979614	
-0.104797	
-0.110657	
-0.118042	
-0.125366	
-0.129211	
-0.131836	
-0.137756	
-0.141968	
-0.146301	
-0.151794	
-0.15564	
-0.161072	
-0.167236	
-0.172668	
-0.180664	
-0.187622	
-0.193237	
-0.196472	
-0.194763	
-0.175598	
-0.140747	
-0.0999146	
-0.0588989	
-0.0236816	
0.00439453	
0.0228882	
0.0355835	
0.0441895	
0.0517578	
0.0585938	
0.0625	
0.0688477	
0.0750122	
0.0794678	
0.079834	
0.0786743	
0.072876	
0.0654907	
0.0548096	
0.0463257	
0.0359497	
0.0234375	
0.0115356	
0.00384521	
-0.00500488	
-0.0147705	
-0.0250854	
-0.0361328	
-0.0456543	
-0.055542	
-0.071167	
-0.0852661	
-0.0960083	
-0.102356	
-0.111694	
-0.120667	
-0.131287	
-0.142334	
-0.151306	
-0.158813	
-0.16687	
-0.175293	
-0.183655	
-0.192505	
-0.199951	
-0.205627	
-0.215149	
-0.22406	
-0.230774	
-0.236572	
-0.243164	
-0.251282	
-0.256409	
-0.260132	
-0.26239	
-0.259399	
-0.246277	
-0.220093	
-0.177612	
-0.131531	
-0.0916138	
-0.0579834	
-0.0308228	
-0.0128784	
0.0012207	
0.0140991	
0.0249023	
0.0343018	
0.0418701	
0.0508423	
0.059021	
0.0626221	
0.0651855	
0.0666504	
0.0628052	
0.0565796	
0.050354	
0.0403442	
0.0299683	
0.0216064	
0.0131836	
0.00128174	
-0.0119019	
-0.0228271	
-0.03125	
-0.0370483	
-0.0465088	
-0.0568848	
-0.0687866	
-0.0803223	
-0.0925903	
-0.101563	
-0.111816	
-0.122742	
-0.133545	
-0.143066	
-0.152405	
-0.160767	
-0.167847	
-0.176819	
-0.18512	
-0.193604	
-0.199829	
-0.205994	
-0.214355	
-0.221252	
-0.226257	
-0.230957	
-0.237122	
-0.242737	
-0.244629	
-0.246948	
-0.251282	
-0.254639	
-0.256287	
-0.256226	
-0.245117	
-0.216675	
-0.180847	
-0.139954	
-0.097168	
-0.0641479	
-0.038208	
-0.0231323	
-0.0117798	
-0.0045166	
0.000183105	
0.0045166	
0.0100098	
0.0176392	
0.0230713	
0.0255737	
0.0261841	
0.0247192	
0.0214844	
0.0175171	
0.0134888	
0.00909424	
0.00115967	
-0.0065918	
-0.017395	
-0.0280762	
-0.0355835	
-0.0449219	
-0.0558472	
-0.0662231	
-0.074646	
-0.0848389	
-0.0940552	
-0.103027	
-0.11261	
-0.120911	
-0.126038	
-0.132874	
-0.138672	
-0.145203	
-0.153198	
-0.161194	
-0.168335	
-0.176331	
-0.180664	
-0.185364	
-0.19104	
-0.192749	
-0.195007	
-0.19989	
-0.205261	
-0.210388	
-0.216125	
-0.221741	
-0.227417	
-0.231567	
-0.229065	
-0.210876	
-0.177673	
-0.13855	
-0.0985718	
-0.062561	
-0.036438	
-0.0227051	
-0.0115356	
-0.00262451	
0.00738525	
0.017395	
0.0270996	
0.0373535	
0.0466919	
0.053772	
0.0567627	
0.0545654	
0.0514526	
0.0458984	
0.0369873	
0.0266113	
0.0186768	
0.0100098	
0.000671387	
-0.00500488	
-0.0136108	
-0.0223389	
-0.0325317	
-0.0450439	
-0.0579834	
-0.069458	
-0.0805054	
-0.0906372	
-0.100281	
-0.110046	
-0.11853	
-0.126343	
-0.132385	
-0.141479	
-0.153015	
-0.162354	
-0.170288	
-0.177185	
-0.185669	
-0.194824	
-0.201172	
-0.208313	
-0.2146	
-0.221802	
-0.227966	
-0.233276	
-0.236877	
-0.240295	
-0.244873	
-0.248413	
-0.252502	
-0.256287	
-0.261292	
-0.267212	
-0.267944	
-0.263611	
-0.247192	
-0.212769	
-0.170532	
-0.129333	
-0.093811	
-0.0631104	
-0.0388184	
-0.0205078	
-0.00720215	
0.00286865	
0.0106812	
0.0192871	
0.0271606	
0.0345459	
0.0397949	
0.0423584	
0.0396118	
0.0355225	
0.0316772	
0.026123	
0.019104	
0.0118408	
0.00415039	
-0.0043335	
-0.0127563	
-0.0245972	
-0.0343018	
-0.0436401	
-0.0518188	
-0.060791	
-0.0682373	
-0.0730591	
-0.0794067	
-0.0855103	
-0.0917969	
-0.101196	
-0.108704	
-0.11853	
-0.128967	
-0.137695	
-0.148987	
-0.157104	
-0.162476	
-0.167053	
-0.169617	
-0.175903	
-0.17926	
-0.183044	
-0.187073	
-0.190796	
-0.194885	
-0.200317	
-0.20636	
-0.210266	
-0.21521	
-0.218872	
-0.213867	
-0.196228	
-0.164734	
-0.123779	
-0.0847778	
-0.0507202	
-0.0245972	
-0.0107422	
-0.00341797	
0.000671387	
0.00543213	
0.00970459	
0.0164185	
0.02771	
0.0415039	
0.0516968	
0.0553589	
0.0562134	
0.0534058	
0.0454712	
0.0357666	
0.0259399	
0.0142212	
0.00311279	
-0.00640869	
-0.0123291	
-0.0175781	
-0.0234375	
-0.0306396	
-0.0396729	
-0.0492554	
-0.0586548	
-0.0691528	
-0.0764771	
-0.085144	
-0.0969849	
-0.106445	
-0.115601	
-0.126404	
-0.133728	
-0.143494	
-0.153503	
-0.160645	
-0.166199	
-0.172302	
-0.177124	
-0.181702	
-0.187927	
-0.192139	
-0.194214	
-0.196411	
-0.19873	
-0.199951	
-0.202576	
-0.203613	
-0.20874	
-0.21228	
-0.216187	
-0.220764	
-0.223083	
-0.223816	
-0.216187	
-0.193604	
-0.159729	
-0.125244	
-0.0925293	
-0.0626831	
-0.0440674	
-0.0330811	
-0.0258179	
-0.0194092	
-0.0108643	
-0.00390625	
0.00482178	
0.0146484	
0.0264893	
0.0324707	
0.0324707	
0.0241699	
0.0136719	
0.00494385	
-0.00115967	
-0.0055542	
-0.00909424	
-0.0137939	
-0.0180664	
-0.0223999	
-0.0253296	
-0.0305786	
-0.0409546	
-0.050415	
-0.0593872	
-0.0667725	
-0.0740356	
-0.0837402	
-0.0950928	
-0.107483	
-0.120789	
-0.130493	
-0.136536	
-0.142029	
-0.145813	
-0.147583	
-0.151672	
-0.15625	
-0.161804	
-0.167114	
-0.171814	
-0.177856	
-0.187378	
-0.19519	
-0.199524	
-0.203674	
-0.205994	
-0.208862	
-0.21051	
-0.211304	
-0.212524	
-0.214172	
-0.215332	
-0.213745	
-0.201904	
-0.178894	
-0.146362	
-0.114807	
-0.0848999	
-0.0612183	
-0.0437622	
-0.0302734	
-0.0211792	
-0.0148926	
-0.0116577	
-0.0088501	
-0.00469971	
-0.0010376	
0.00219727	
0.00286865	
0.00140381	
-0.000488281	
-0.00463867	
-0.012085	
-0.0181274	
-0.0246582	
-0.0321045	
-0.0367432	
-0.0427246	
-0.050354	
-0.0570068	
-0.0651245	
-0.0730591	
-0.0767822	
-0.0834351	
-0.0895996	
-0.0970459	
-0.102844	
-0.108948	
-0.114136	
-0.11969	
-0.127136	
-0.135498	
-0.141174	
-0.145325	
-0.151306	
-0.154236	
-0.160217	
-0.166931	
-0.172424	
-0.175354	
-0.181091	
-0.19043	
-0.199341	
-0.201538	
-0.201355	
-0.202759	
-0.203674	
-0.202881	
-0.196472	
-0.180237	
-0.151611	
-0.114563	
-0.0814209	
-0.0563965	
-0.0356445	
-0.019043	
-0.00854492	
-0.00323486	
0.00268555	
0.0090332	
0.0171509	
0.0222778	
0.0269165	
0.0291748	
0.0305786	
0.0269165	
0.020752	
0.0150146	
0.00726318	
0.000488281	
-0.0065918	
-0.0146484	
-0.0241089	
-0.0332031	
-0.0395508	
-0.0437012	
-0.0490723	
-0.0547485	
-0.0640259	
-0.0750122	
-0.0857544	
-0.0912476	
-0.0941772	
-0.0987549	
-0.107239	
-0.116577	
-0.123962	
-0.129517	
-0.134766	
-0.140198	
-0.150391	
-0.158752	
-0.162964	
-0.166992	
-0.171509	
-0.174377	
-0.178223	
-0.184082	
-0.189697	
-0.195007	
-0.200134	
-0.204285	
-0.207397	
-0.210632	
-0.214661	
-0.219788	
-0.224792	
-0.22644	
-0.222961	
-0.206909	
-0.178955	
-0.142334	
-0.103638	
-0.0718384	
-0.0513916	
-0.0355225	
-0.0246582	
-0.0161743	
-0.00744629	
0.00115967	
0.0125732	
0.0202026	
0.0233765	
0.0264893	
0.0286255	
0.0297852	
0.0281372	
0.0244751	
0.0210571	
0.0182495	
0.0128784	
0.0067749	
-0.00213623	
-0.0107422	
-0.0205078	
-0.0315552	
-0.0410156	
-0.0480957	
-0.057373	
-0.0668335	
-0.0764771	
-0.0836182	
-0.0914917	
-0.101379	
-0.10791	
-0.114258	
-0.11969	
-0.124939	
-0.131897	
-0.139893	
-0.146729	
-0.155884	
-0.16156	
-0.166016	
-0.170166	
-0.174316	
-0.178772	
-0.181946	
-0.185669	
-0.191162	
-0.193787	
-0.196472	
-0.197876	
-0.201965	
-0.208008	
-0.215515	
-0.22052	
-0.223022	
-0.223633	
-0.223267	
-0.223694	
-0.217102	
-0.199219	
-0.167236	
-0.130493	
-0.0939941	
-0.0622559	
-0.0397949	
-0.0245972	
-0.015686	
-0.010498	
-0.0100708	
-0.00604248	
-0.00213623	
0.00335693	
0.00994873	
0.0144043	
0.0164185	
0.0125122	
0.00732422	
0.00268555	
-0.00372314	
-0.0114136	
-0.0186157	
-0.0263672	
-0.0320435	
-0.0352173	
-0.041748	
-0.0491333	
-0.0551758	
-0.0610352	
-0.0662842	
-0.0728149	
-0.0790405	
-0.0875244	
-0.0961914	
-0.103943	
-0.112366	
-0.118347	
-0.123718	
-0.129639	
-0.136353	
-0.140808	
-0.14386	
-0.147949	
-0.152649	
-0.158813	
-0.164124	
-0.169189	
-0.176392	
-0.182922	
-0.188293	
-0.190857	
-0.194824	
-0.197388	
-0.201904	
-0.205627	
-0.205261	
-0.203064	
-0.194092	
-0.173584	
-0.141052	
-0.106201	
-0.0715332	
-0.0444946	
-0.0238037	
-0.0120239	
-0.00500488	
-6.10352E-05	
0.00506592	
0.0122681	
0.0176392	
0.026001	
0.0317383	
0.0341797	
0.0348511	
0.0316772	
0.0263062	
0.0205688	
0.0144653	
0.00799561	
0.00421143	
-0.000183105	
-0.00579834	
-0.0128174	
-0.022583	
-0.0342407	
-0.0453491	
-0.0561523	
-0.0670776	
-0.0783081	
-0.0875854	
-0.0944824	
-0.0983887	
-0.105103	
-0.112366	
-0.118958	
-0.123962	
-0.130188	
-0.134216	
-0.136169	
-0.143555	
-0.152222	
-0.159241	
-0.166199	
-0.172363	
-0.179871	
-0.187866	
-0.193298	
-0.198608	
-0.203186	
-0.208557	
-0.210815	
-0.213135	
-0.221008	
-0.229797	
-0.231445	
-0.225952	
-0.21344	
-0.183777	
-0.146301	
-0.106323	
-0.0708008	
-0.0413208	
-0.0167847	
0.0020752	
0.0146484	
0.0222778	
0.0280151	
0.0332031	
0.0397949	
0.0462036	
0.048645	
0.0499268	
0.0508423	
0.0490723	
0.0479736	
0.0426025	
0.0355835	
0.026123	
0.0164185	
0.00799561	
-0.000793457	
-0.0098877	
-0.0196533	
-0.0291138	
-0.0380859	
-0.0470581	
-0.0557251	
-0.0637817	
-0.0726318	
-0.0807495	
-0.0871582	
-0.09375	
-0.100403	
-0.10199	
-0.106079	
-0.112	
-0.118469	
-0.125183	
-0.130798	
-0.137878	
-0.147888	
-0.160034	
-0.171204	
-0.177551	
-0.182556	
-0.188904	
-0.195618	
-0.200562	
-0.205444	
-0.208984	
-0.214661	
-0.220337	
-0.225098	
-0.226868	
-0.229004	
-0.231873	
-0.229248	
-0.215698	
-0.185608	
-0.142639	
-0.102234	
-0.0667725	
-0.0366821	
-0.0170288	
-0.00445557	
0.0057373	
0.0111084	
0.0168457	
0.0233765	
0.0336304	
0.0437622	
0.0524902	
0.0546265	
0.0556641	
0.0544434	
0.0512085	
0.0475464	
0.0404663	
0.0340576	
0.0284424	
0.0232544	
0.0158081	
0.00579834	
-0.00195313	
-0.00982666	
-0.0186157	
-0.0270386	
-0.0348511	
-0.0440063	
-0.0513916	
-0.0599365	
-0.0684814	
-0.0803223	
-0.0910034	
-0.0997314	
-0.108582	
-0.116272	
-0.122437	
-0.130493	
-0.138672	
-0.14679	
-0.151672	
-0.157593	
-0.163879	
-0.1698	
-0.175842	
-0.179199	
-0.181702	
-0.186768	
-0.193542	
-0.2005	
-0.205811	
-0.211304	
-0.214905	
-0.218384	
-0.218201	
-0.2099	
-0.187622	
-0.151428	
-0.111267	
-0.0733032	
-0.041748	
-0.0181274	
-0.00152588	
0.00982666	
0.0166626	
0.0205688	
0.0233765	
0.0263672	
0.0322266	
0.0360718	
0.0344238	
0.0316772	
0.0279541	
0.0224609	
0.019104	
0.0172729	
0.0128784	
0.00598145	
-0.00012207	
-0.00476074	
-0.0126343	
-0.0219727	
-0.0300903	
-0.0373535	
-0.0432129	
-0.0493164	
-0.0592041	
-0.0686646	
-0.0786133	
-0.0866089	
-0.0956421	
-0.105713	
-0.11145	
-0.118164	
-0.126587	
-0.132019	
-0.13678	
-0.142151	
-0.147827	
-0.154053	
-0.159363	
-0.166382	
-0.174622	
-0.181702	
-0.188843	
-0.194824	
-0.200134	
-0.204163	
-0.206665	
-0.209534	
-0.21051	
-0.20343	
-0.182373	
-0.146606	
-0.105286	
-0.0682983	
-0.0370483	
-0.0131836	
0.00109863	
0.0103149	
0.0192261	
0.0292358	
0.0377197	
0.0435181	
0.0479126	
0.0535278	
0.0604248	
0.0632935	
0.0628052	
0.0610352	
0.057373	
0.0534058	
0.0465088	
0.0396118	
0.0327759	
0.0232544	
0.0132446	
0.00286865	
-0.0078125	
-0.0177612	
-0.0254517	
-0.0353394	
-0.0452271	
-0.0559082	
-0.0673828	
-0.0783691	
-0.0893555	
-0.100159	
-0.109314	
-0.11731	
-0.123901	
-0.132813	
-0.14209	
-0.150696	
-0.155945	
-0.158447	
-0.16095	
-0.167297	
-0.174438	
-0.182617	
-0.187134	
-0.194153	
-0.202026	
-0.206909	
-0.213562	
-0.220642	
-0.224792	
-0.225952	
-0.229797	
-0.23584	
-0.238525	
-0.235229	
-0.217896	
-0.186096	
-0.145996	
-0.106873	
-0.0743408	
-0.0459595	
-0.0236816	
-0.00494385	
0.00701904	
0.0160522	
0.0267944	
0.0348511	
0.0441895	
0.0527344	
0.0567017	
0.05896	
0.0565186	
0.052124	
0.046936	
0.0402832	
0.0327759	
0.0255737	
0.0170898	
0.00671387	
-0.00256348	
-0.00878906	
-0.0151367	
-0.0237427	
-0.0345459	
-0.0457764	
-0.055603	
-0.0646362	
-0.072998	
-0.0807495	
-0.0891724	
-0.0986938	
-0.108276	
-0.11908	
-0.129578	
-0.140076	
-0.151123	
-0.160095	
-0.168579	
-0.17688	
-0.183289	
-0.188904	
-0.194763	
-0.203125	
-0.211975	
-0.22052	
-0.228455	
-0.235168	
-0.238403	
-0.242126	
-0.243286	
-0.246094	
-0.24939	
-0.253418	
-0.256226	
-0.259094	
-0.26123	
-0.255188	
-0.236023	
-0.200256	
-0.159607	
-0.11969	
-0.0841064	
-0.0551758	
-0.036499	
-0.0264282	
-0.0195313	
-0.0114136	
-0.00268555	
0.00561523	
0.0117798	
0.0183105	
0.0254517	
0.0306396	
0.0309448	
0.0293579	
0.0245972	
0.0186157	
0.0148926	
0.00811768	
-0.000366211	
-0.0109253	
-0.0187378	
-0.0239868	
-0.0288696	
-0.0363159	
-0.0465088	
-0.053772	
-0.0637817	
-0.0749512	
-0.0836792	
-0.0935669	
-0.104858	
-0.115173	
-0.123718	
-0.129761	
-0.135376	
-0.143494	
-0.150574	
-0.156372	
-0.166321	
-0.173157	
-0.178711	
-0.186462	
-0.1922	
-0.19696	
-0.201965	
-0.205444	
-0.210266	
-0.215881	
-0.221619	
-0.224243	
-0.221985	
-0.216919	
-0.206665	
-0.184998	
-0.151733	
-0.114441	
-0.0791016	
-0.0499268	
-0.0311279	
-0.0175781	
-0.00683594	
0.000793457	
0.00402832	
0.00604248	
0.0105591	
0.0176392	
0.0227051	
0.0223389	
0.0197144	
0.0148926	
0.0115356	
0.00616455	
0.00372314	
0.00164795	
-0.00634766	
-0.0167236	
-0.0274658	
-0.0369263	
-0.0447998	
-0.0515137	
-0.0587769	
-0.0653076	
-0.0734863	
-0.0847168	
-0.0958862	
-0.103455	
-0.110779	
-0.118469	
-0.126099	
-0.130981	
-0.13678	
-0.145935	
-0.151672	
-0.158081	
-0.165161	
-0.173218	
-0.17865	
-0.182373	
-0.185913	
-0.187927	
-0.193726	
-0.199158	
-0.207336	
-0.214905	
-0.219727	
-0.223755	
-0.226501	
-0.227173	
-0.221191	
-0.200195	
-0.16571	
-0.126221	
-0.0877075	
-0.0549927	
-0.0288696	
-0.00854492	
0.00750732	
0.0172119	
0.0239258	
0.0308228	
0.0392456	
0.0481567	
0.0554199	
0.0599365	
0.0618286	
0.0620117	
0.0612183	
0.0585327	
0.0524292	
0.0453491	
0.0391235	
0.0307617	
0.0205078	
0.00854492	
-0.00146484	
-0.0111694	
-0.0205688	
-0.0311279	
-0.0425415	
-0.0530396	
-0.0655518	
-0.0779419	
-0.0872192	
-0.0979614	
-0.110596	
-0.121643	
-0.129272	
-0.137085	
-0.144226	
-0.150452	
-0.156799	
-0.164124	
-0.173157	
-0.182922	
-0.191711	
-0.197449	
-0.202148	
-0.206848	
-0.211731	
-0.216614	
-0.223694	
-0.228455	
-0.231689	
-0.235413	
-0.237549	
-0.23822	
-0.241394	
-0.238037	
-0.221252	
-0.188049	
-0.145569	
-0.101868	
-0.0654907	
-0.0397949	
-0.0203857	
-0.00567627	
0.00445557	
0.0088501	
0.0140381	
0.0220337	
0.0322876	
0.0400391	
0.0474854	
0.0505371	
0.0473633	
0.0400391	
0.0316162	
0.0231323	
0.0144043	
0.00720215	
-0.00109863	
-0.00952148	
-0.0177002	
-0.0239258	
-0.0313721	
-0.0400391	
-0.0480957	
-0.0558472	
-0.0644531	
-0.0742798	
-0.0836182	
-0.0949097	
-0.105957	
-0.11499	
-0.123596	
-0.132446	
-0.139832	
-0.146057	
-0.153992	
-0.158875	
-0.166443	
-0.171814	
-0.177795	
-0.184021	
-0.191406	
-0.198059	
-0.206665	
-0.217468	
-0.223999	
-0.228088	
-0.231995	
-0.235046	
-0.236572	
-0.238403	
-0.238647	
-0.238342	
-0.239563	
-0.24176	
-0.235352	
-0.214905	
-0.180725	
-0.140381	
-0.0992432	
-0.0671997	
-0.0442505	
-0.0292358	
-0.0166626	
-0.00769043	
-0.00177002	
0.00292969	
0.0112915	
0.0223389	
0.0299072	
0.036377	
0.0384521	
0.038147	
0.0332031	
0.0250244	
0.0172119	
0.0100098	
0.00421143	
-0.00268555	
-0.0100708	
-0.0166626	
-0.0237427	
-0.0320435	
-0.0414429	
-0.0515137	
-0.0595703	
-0.0714111	
-0.0825195	
-0.0899658	
-0.0969849	
-0.104004	
-0.111084	
-0.121033	
-0.128845	
-0.135803	
-0.143433	
-0.150024	
-0.157104	
-0.161316	
-0.163147	
-0.165894	
-0.171265	
-0.177673	
-0.186096	
-0.192383	
-0.199158	
-0.204285	
-0.21106	
-0.215515	
-0.218567	
-0.220032	
-0.21698	
-0.202454	
-0.174194	
-0.138733	
-0.104126	
-0.071106	
-0.0436401	
-0.0241699	
-0.012085	
-0.00140381	
0.00524902	
0.010376	
0.0160522	
0.0195923	
0.0223999	
0.0220947	
0.0185547	
0.0149536	
0.0103149	
0.00726318	
0.0055542	
0.00189209	
-0.00152588	
-0.00726318	
-0.0153198	
-0.0221558	
-0.0292969	
-0.03479	
-0.039978	
-0.0494385	
-0.0568848	
-0.0645142	
-0.0758057	
-0.0883179	
-0.0990601	
-0.108765	
-0.118469	
-0.127197	
-0.133301	
-0.138733	
-0.144714	
-0.149963	
-0.155273	
-0.161438	
-0.169495	
-0.177368	
-0.186646	
-0.193848	
-0.19928	
-0.204529	
-0.208679	
-0.211426	
-0.201294	
-0.176941	
-0.141052	
-0.0984497	
-0.0635986	
-0.0385132	
-0.0183716	
-0.00244141	
0.0106201	
0.022522	
0.0341187	
0.0452881	
0.0539551	
0.0620728	
0.0716553	
0.078186	
0.0820313	
0.0795898	
0.0715332	
0.0617065	
0.0551758	
0.0466309	
0.0380249	
0.0310059	
0.0233154	
0.0130615	
0.00439453	
-0.0067749	
-0.0164795	
-0.0267334	
-0.0358276	
-0.0480957	
-0.0611572	
-0.0737915	
-0.0858154	
-0.0995483	
-0.113831	
-0.125427	
-0.135071	
-0.142639	
-0.148926	
-0.155762	
-0.164063	
-0.174805	
-0.183472	
-0.189941	
-0.196472	
-0.20282	
-0.210754	
-0.218323	
-0.224976	
-0.233582	
-0.240234	
-0.246338	
-0.247498	
-0.237	
-0.216492	
-0.179688	
-0.135925	
-0.0944214	
-0.0596313	
-0.0339966	
-0.0119019	
0.000610352	
0.0117798	
0.0230103	
0.03302	
0.0454712	
0.059021	
0.0670776	
0.0714111	
0.072937	
0.0690308	
0.0646973	
0.059021	
0.0528564	
0.0453491	
0.0377808	
0.0332031	
0.0252686	
0.0150757	
0.00469971	
-0.00683594	
-0.0186157	
-0.0325317	
-0.0446167	
-0.0548096	
-0.0673218	
-0.0795898	
-0.0927734	
-0.104126	
-0.116028	
-0.128357	
-0.136719	
-0.145508	
-0.155151	
-0.161682	
-0.167603	
-0.173889	
-0.178284	
-0.184753	
-0.194885	
-0.204773	
-0.210754	
-0.215271	
-0.221863	
-0.227173	
-0.233765	
-0.241211	
-0.245483	
-0.251038	
-0.255432	
-0.257996	
-0.246338	
-0.219482	
-0.183105	
-0.141052	
-0.10022	
-0.0674438	
-0.0418091	
-0.0213013	
-0.00689697	
0.00421143	
0.0108643	
0.0167236	
0.0239868	
0.0300293	
0.0375366	
0.0419312	
0.0443115	
0.0450439	
0.0402222	
0.0297241	
0.0197144	
0.0098877	
0.000366211	
-0.00671387	
-0.0119019	
-0.0203247	
-0.0279541	
-0.0348511	
-0.0442505	
-0.0524902	
-0.0612793	
-0.0704956	
-0.081604	
-0.0906372	
-0.102356	
-0.116272	
-0.130493	
-0.144714	
-0.154968	
-0.165833	
-0.175171	
-0.183899	
-0.189453	
-0.195679	
-0.201416	
-0.207947	
-0.213989	
-0.220886	
-0.225525	
-0.231934	
-0.237427	
-0.240601	
-0.243225	
-0.245972	
-0.246826	
-0.250244	
-0.252869	
-0.252136	
-0.243896	
-0.221497	
-0.186829	
-0.143311	
-0.101196	
-0.0638428	
-0.0338745	
-0.00933838	
0.00689697	
0.0183716	
0.0280762	
0.0374756	
0.0483398	
0.059082	
0.0681763	
0.0745239	
0.0792236	
0.078125	
0.0737305	
0.0667725	
0.0552979	
0.0460815	
0.0373535	
0.0281982	
0.0189209	
0.00897217	
-6.10352E-05	
-0.0112915	
-0.0209351	
-0.0328369	
-0.0429688	
-0.0527344	
-0.064209	
-0.0744629	
-0.0874023	
-0.100708	
-0.114136	
-0.125916	
-0.137085	
-0.14978	
-0.159485	
-0.167847	
-0.176575	
-0.186584	
-0.192749	
-0.197388	
-0.205322	
-0.213379	
-0.223633	
-0.233887	
-0.241333	
-0.245422	
-0.247437	
-0.249939	
-0.25293	
-0.256226	
-0.258789	
-0.259705	
-0.262573	
-0.268555	
-0.274353	
-0.277649	
-0.269775	
-0.243591	
-0.201782	
-0.152283	
-0.104675	
-0.0625	
-0.0300903	
-0.00268555	
0.0144653	
0.026062	
0.034729	
0.0452271	
0.055481	
0.0645142	
0.0723877	
0.0786133	
0.0822754	
0.0819092	
0.0765991	
0.0668945	
0.0575562	
0.0463257	
0.0371704	
0.0285034	
0.019043	
0.0105591	
0.00109863	
-0.0119629	
-0.0253296	
-0.0386963	
-0.0529175	
-0.0622559	
-0.0720215	
-0.0848999	
-0.0962524	
-0.109253	
-0.12262	
-0.135559	
-0.145508	
-0.153076	
-0.16095	
-0.168274	
-0.177063	
-0.18457	
-0.194153	
-0.202881	
-0.207092	
-0.211243	
-0.218201	
-0.222351	
-0.225281	
-0.22522	
-0.22876	
-0.237244	
-0.2453	
-0.25177	
-0.254456	
-0.248535	
-0.230774	
-0.197754	
-0.156921	
-0.113342	
-0.0743408	
-0.0404053	
-0.0157471	
0.0022583	
0.0162964	
0.0259399	
0.0310059	
0.0377197	
0.0422363	
0.0452271	
0.0498047	
0.0522461	
0.0540161	
0.0515747	
0.0458374	
0.0363159	
0.0270386	
0.0180054	
0.00823975	
-0.00146484	
-0.0126343	
-0.0217896	
-0.0292969	
-0.0407104	
-0.0515747	
-0.0637817	
-0.0778198	
-0.0907593	
-0.102722	
-0.116394	
-0.133911	
-0.147461	
-0.157227	
-0.165527	
-0.172913	
-0.17981	
-0.186462	
-0.192871	
-0.197632	
-0.203064	
-0.210327	
-0.219727	
-0.228577	
-0.235291	
-0.240723	
-0.243347	
-0.240784	
-0.224182	
-0.192993	
-0.155884	
-0.116272	
-0.0797119	
-0.0487061	
-0.0234375	
-0.00640869	
0.00512695	
0.0148315	
0.0250854	
0.0327759	
0.0391235	
0.0438843	
0.0452881	
0.0411987	
0.0311279	
0.0205688	
0.0110474	
0.0022583	
-0.00335693	
-0.0088501	
-0.0194092	
-0.0314331	
-0.041687	
-0.0498047	
-0.0595093	
-0.0662842	
-0.0744629	
-0.0835571	
-0.0946045	
-0.10498	
-0.11908	
-0.131165	
-0.142578	
-0.156067	
-0.16925	
-0.180542	
-0.190735	
-0.201233	
-0.208435	
-0.215149	
-0.218384	
-0.222534	
-0.226501	
-0.229004	
-0.231628	
-0.228027	
-0.213013	
-0.180481	
-0.140137	
-0.0974731	
-0.0567627	
-0.0231323	
-0.00256348	
0.0122681	
0.0195313	
0.0234985	
0.0310669	
0.0350342	
0.041748	
0.0482788	
0.0490112	
0.0432739	
0.0350342	
0.0255127	
0.0146484	
0.000610352	
-0.0109863	
-0.0188599	
-0.0275269	
-0.0388794	
-0.0485229	
-0.0595093	
-0.0703125	
-0.0810547	
-0.092041	
-0.102844	
-0.112793	
-0.122009	
-0.133545	
-0.143677	
-0.153076	
-0.162842	
-0.172241	
-0.180542	
-0.189148	
-0.198547	
-0.206482	
-0.213379	
-0.216858	
-0.21991	
-0.221619	
-0.228333	
-0.233704	
-0.239014	
-0.243713	
-0.240479	
-0.22113	
-0.187012	
-0.141357	
-0.0941162	
-0.0542603	
-0.0220947	
0.000427246	
0.0175781	
0.03125	
0.0449829	
0.057251	
0.0671387	
0.0737915	
0.0802612	
0.0828857	
0.0811157	
0.0747681	
0.064209	
0.0516357	
0.0408325	
0.0317993	
0.0219116	
0.0100708	
-0.00500488	
-0.0214233	
-0.0375977	
-0.0541382	
-0.0696411	
-0.0847168	
-0.0976563	
-0.10907	
-0.12085	
-0.131775	
-0.145203	
-0.155945	
-0.164734	
-0.173645	
-0.182312	
-0.188721	
-0.196899	
-0.204163	
-0.209778	
-0.21344	
-0.219727	
-0.225403	
-0.235291	
-0.240601	
-0.231628	
-0.209656	
-0.175293	
-0.13623	
-0.0946045	
-0.0579834	
-0.0280151	
-0.00408936	
0.00939941	
0.0165405	
0.0241699	
0.0283203	
0.0315552	
0.0357056	
0.0397949	
0.0409546	
0.034729	
0.0263672	
0.0150757	
0.00128174	
-0.0106201	
-0.0236816	
-0.0354614	
-0.0462646	
-0.0566406	
-0.0684204	
-0.0791626	
-0.0895996	
-0.0986328	
-0.109314	
-0.120483	
-0.132385	
-0.144226	
-0.156311	
-0.166992	
-0.175415	
-0.183838	
-0.192261	
-0.202515	
-0.212402	
-0.219971	
-0.226013	
-0.230713	
-0.23584	
-0.24054	
-0.24292	
-0.244751	
-0.246826	
-0.244202	
-0.227173	
-0.198792	
-0.16333	
-0.128357	
-0.0980225	
-0.0740356	
-0.0563965	
-0.0427246	
-0.0322266	
-0.026123	
-0.0219116	
-0.0196533	
-0.0169067	
-0.0105591	
-0.00738525	
-0.00622559	
-0.00805664	
-0.0133667	
-0.0217896	
-0.0306396	
-0.0403442	
-0.0517578	
-0.0631104	
-0.0717163	
-0.0823364	
-0.0910034	
-0.0997925	
-0.110596	
-0.121216	
-0.129517	
-0.138367	
-0.151184	
-0.163696	
-0.174072	
-0.183594	
-0.190918	
-0.196777	
-0.201721	
-0.208862	
-0.21582	
-0.222473	
-0.22998	
-0.237183	
-0.2453	
-0.250977	
-0.255249	
-0.260803	
-0.263184	
-0.266357	
-0.269897	
-0.272339	
-0.274292	
-0.274963	
-0.273132	
-0.270935	
-0.260437	
-0.235107	
-0.201294	
-0.165222	
-0.131104	
-0.103394	
-0.081604	
-0.06604	
-0.0557861	
-0.0511475	
-0.0490723	
-0.0465088	
-0.0440674	
-0.039856	
-0.0390015	
-0.0372314	
-0.0397949	
-0.0421143	
-0.0445557	
-0.0477905	
-0.052063	
-0.055603	
-0.0612793	
-0.0657349	
-0.0708618	
-0.0775757	
-0.0841675	
-0.0893555	
-0.0949097	
-0.0999756	
-0.106445	
-0.113037	
-0.121948	
-0.130981	
-0.137085	
-0.141113	
-0.14325	
-0.146606	
-0.152954	
-0.159729	
-0.165466	
-0.171143	
-0.175659	
-0.176575	
-0.177429	
-0.179443	
-0.184998	
-0.191162	
-0.197327	
-0.202698	
-0.207275	
-0.210754	
-0.208435	
-0.192871	
-0.163635	
-0.127991	
-0.0944824	
-0.0687256	
-0.0499268	
-0.03302	
-0.0238037	
-0.0198975	
-0.0179443	
-0.0157471	
-0.0166016	
-0.0164795	
-0.0146484	
-0.0159302	
-0.0194092	
-0.0264282	
-0.0325317	
-0.0369263	
-0.0390625	
-0.0406494	
-0.043335	
-0.0463867	
-0.0507202	
-0.0595703	
-0.0701904	
-0.0770264	
-0.0808105	
-0.086792	
-0.0957642	
-0.104065	
-0.110657	
-0.117004	
-0.124329	
-0.132446	
-0.137512	
-0.141663	
-0.146484	
-0.15332	
-0.159546	
-0.167358	
-0.176453	
-0.18219	
-0.183716	
-0.183655	
-0.183472	
-0.179382	
-0.16571	
-0.138855	
-0.10907	
-0.0783691	
-0.0539551	
-0.0372925	
-0.0228882	
-0.0139771	
-0.00488281	
0.00268555	
0.00787354	
0.0126343	
0.0175171	
0.0193481	
0.0158691	
0.0111084	
0.00598145	
0.0010376	
-0.00579834	
-0.0144043	
-0.0223999	
-0.0297852	
-0.0313721	
-0.0321045	
-0.0338745	
-0.0355225	
-0.0418701	
-0.0497437	
-0.0588379	
-0.0665283	
-0.0732422	
-0.0792847	
-0.0881348	
-0.0950928	
-0.0986328	
-0.101746	
-0.107361	
-0.112854	
-0.118347	
-0.122437	
-0.12854	
-0.132935	
-0.138733	
-0.143127	
-0.143433	
-0.13147	
-0.107117	
-0.0762329	
-0.0422363	
-0.0123291	
0.0106201	
0.0283813	
0.0403442	
0.0448608	
0.0505981	
0.0574341	
0.0636597	
0.0686646	
0.0704346	
0.0710449	
0.0704956	
0.0617676	
0.0540161	
0.0456543	
0.0393066	
0.0341797	
0.0256958	
0.019104	
0.0154419	
0.010498	
0.00378418	
-0.0065918	
-0.0168457	
-0.0283813	
-0.0404663	
-0.0501709	
-0.0653076	
-0.0823975	
-0.0966797	
-0.105591	
-0.114319	
-0.12439	
-0.133545	
-0.144043	
-0.153564	
-0.163208	
-0.170532	
-0.179871	
-0.187622	
-0.193542	
-0.200989	
-0.206482	
-0.210022	
-0.214966	
-0.220581	
-0.224121	
-0.229736	
-0.231323	
-0.224976	
-0.20752	
-0.175415	
-0.135132	
-0.0947266	
-0.062561	
-0.0374146	
-0.019165	
-0.00500488	
0.00372314	
0.00964355	
0.0141602	
0.019043	
0.0248413	
0.0313721	
0.0377197	
0.039978	
0.0361938	
0.0265503	
0.0181274	
0.00769043	
-0.00396729	
-0.0144043	
-0.0223389	
-0.0310669	
-0.0405273	
-0.0510864	
-0.0605469	
-0.0671387	
-0.0755005	
-0.0844116	
-0.0912476	
-0.101013	
-0.109924	
-0.121094	
-0.131592	
-0.140747	
-0.148682	
-0.154419	
-0.160156	
-0.170044	
-0.177124	
-0.184387	
-0.190247	
-0.196472	
-0.201904	
-0.206177	
-0.210022	
-0.215088	
-0.222839	
-0.22998	
-0.235535	
-0.240051	
-0.243591	
-0.246033	
-0.248047	
-0.250427	
-0.249084	
-0.249756	
-0.252991	
-0.252808	
-0.254456	
-0.252869	
-0.238464	
-0.208069	
-0.168823	
-0.12854	
-0.0941772	
-0.0656128	
-0.0438232	
-0.0324097	
-0.0266724	
-0.0234985	
-0.0228271	
-0.0244141	
-0.0275269	
-0.0275269	
-0.0285034	
-0.0269775	
-0.0273438	
-0.0297852	
-0.0327148	
-0.0346069	
-0.036438	
-0.041687	
-0.0480347	
-0.0524292	
-0.0570679	
-0.0592041	
-0.0622559	
-0.069458	
-0.0773926	
-0.0842285	
-0.0921021	
-0.0994263	
-0.10791	
-0.117126	
-0.127197	
-0.135559	
-0.142456	
-0.150391	
-0.155151	
-0.160156	
-0.16626	
-0.171082	
-0.173462	
-0.177979	
-0.184387	
-0.188354	
-0.189575	
-0.191223	
-0.192017	
-0.194092	
-0.195496	
-0.198059	
-0.197632	
-0.200012	
-0.202881	
-0.205811	
-0.21106	
-0.214966	
-0.214905	
-0.206848	
-0.18689	
-0.153503	
-0.114319	
-0.0794678	
-0.0549927	
-0.039856	
-0.0286865	
-0.0218506	
-0.0169067	
-0.0106812	
-0.00634766	
-0.0055542	
-0.00622559	
-0.0067749	
-0.0112305	
-0.0184937	
-0.0250854	
-0.0331421	
-0.0375366	
-0.0418701	
-0.0449219	
-0.0458374	
-0.046936	
-0.0513306	
-0.0567627	
-0.0595093	
-0.0630493	
-0.0686035	
-0.0755615	
-0.0821533	
-0.0888062	
-0.0969849	
-0.102966	
-0.108093	
-0.11499	
-0.117554	
-0.122375	
-0.128418	
-0.135132	
-0.140564	
-0.144409	
-0.147095	
-0.150024	
-0.15564	
-0.160889	
-0.165771	
-0.167786	
-0.170105	
-0.171875	
-0.172791	
-0.174438	
-0.176208	
-0.177368	
-0.177307	
-0.1651	
-0.140015	
-0.108154	
-0.0751343	
-0.0444946	
-0.0204468	
-0.00317383	
0.00805664	
0.0136719	
0.015564	
0.0176392	
0.0211182	
0.0236816	
0.0245361	
0.0244141	
0.0245972	
0.0236816	
0.0216675	
0.0180664	
0.0125732	
0.00634766	
-6.10352E-05	
-0.00671387	
-0.0129395	
-0.0151367	
-0.0199585	
-0.0266724	
-0.0343018	
-0.0427856	
-0.0483398	
-0.0521851	
-0.0595093	
-0.0635376	
-0.0702515	
-0.0795288	
-0.0862427	
-0.0933838	
-0.101013	
-0.110229	
-0.117554	
-0.123718	
-0.1297	
-0.140076	
-0.149536	
-0.154785	
-0.155579	
-0.160583	
-0.171204	
-0.179626	
-0.185303	
-0.188843	
-0.190857	
-0.192627	
-0.194214	
-0.194763	
-0.195435	
-0.197021	
-0.197083	
-0.196899	
-0.189331	
-0.166565	
-0.130432	
-0.0894775	
-0.0541382	
-0.0273438	
-0.00866699	
0.00732422	
0.0175781	
0.0220337	
0.0252075	
0.0275879	
0.031311	
0.0339355	
0.0359497	
0.0368652	
0.0359497	
0.0304565	
0.0251465	
0.0209961	
0.0159912	
0.0119019	
0.0055542	
-0.00177002	
-0.0067749	
-0.0117188	
-0.0154419	
-0.0203247	
-0.0264282	
-0.0322876	
-0.0383301	
-0.0452881	
-0.0525513	
-0.0609741	
-0.0674438	
-0.0726929	
-0.0802002	
-0.0888672	
-0.0950317	
-0.101685	
-0.10791	
-0.115601	
-0.122681	
-0.130554	
-0.137817	
-0.143494	
-0.14679	
-0.153442	
-0.164673	
-0.174011	
-0.18219	
-0.188477	
-0.193237	
-0.197632	
-0.202576	
-0.205078	
-0.20459	
-0.193726	
-0.171448	
-0.134277	
-0.0904541	
-0.0494385	
-0.0186768	
0.00231934	
0.0179443	
0.0245972	
0.0284424	
0.0297852	
0.0315552	
0.0332642	
0.0361938	
0.0422974	
0.0458984	
0.0454712	
0.0412598	
0.034729	
0.0265503	
0.0196533	
0.0125732	
0.00701904	
0.00219727	
-0.00115967	
-0.00323486	
-0.00787354	
-0.0160522	
-0.0246582	
-0.0320435	
-0.0396118	
-0.0473633	
-0.0543823	
-0.0618896	
-0.0687256	
-0.0749512	
-0.0828247	
-0.0897827	
-0.0953979	
-0.0999756	
-0.105713	
-0.112183	
-0.120483	
-0.125977	
-0.127808	
-0.130737	
-0.139282	
-0.149109	
-0.155212	
-0.158508	
-0.158875	
-0.148254	
-0.12146	
-0.0845337	
-0.0471191	
-0.0142212	
0.00836182	
0.0198975	
0.0259399	
0.0291748	
0.0316772	
0.0290527	
0.0267944	
0.0307007	
0.0348511	
0.0367432	
0.0371094	
0.0344849	
0.0305176	
0.024353	
0.0198364	
0.0164185	
0.0115356	
0.00592041	
-0.000610352	
-0.00921631	
-0.0178833	
-0.026123	
-0.0322876	
-0.0386353	
-0.0452271	
-0.0552368	
-0.0648193	
-0.0717773	
-0.0753784	
-0.0817871	
-0.0876465	
-0.0962524	
-0.10675	
-0.118835	
-0.130798	
-0.137573	
-0.141479	
-0.147156	
-0.152649	
-0.156677	
-0.15918	
-0.160767	
-0.157837	
-0.142212	
-0.113586	
-0.0788574	
-0.0465698	
-0.0197144	
0.000305176	
0.0133057	
0.020752	
0.0252686	
0.0286865	
0.031311	
0.0336304	
0.0390625	
0.041687	
0.0400391	
0.0349731	
0.0296631	
0.0228882	
0.0133667	
0.00427246	
-0.0032959	
-0.0088501	
-0.0154419	
-0.0167236	
-0.0177002	
-0.0222778	
-0.0303955	
-0.039978	
-0.0483398	
-0.0543213	
-0.0595093	
-0.0671997	
-0.0786133	
-0.0910034	
-0.0983276	
-0.10907	
-0.11792	
-0.127075	
-0.136597	
-0.145081	
-0.150574	
-0.153503	
-0.158325	
-0.161316	
-0.165649	
-0.168884	
-0.174438	
-0.179749	
-0.177917	
-0.163208	
-0.136475	
-0.106018	
-0.0731812	
-0.0452881	
-0.022644	
-0.00683594	
0.00415039	
0.0100708	
0.015686	
0.019043	
0.0234375	
0.0297852	
0.0344238	
0.0343018	
0.0331421	
0.0299683	
0.024353	
0.0198364	
0.0166016	
0.0122681	
0.00695801	
-0.00408936	
-0.0131226	
-0.0220947	
-0.0310669	
-0.0344238	
-0.0428467	
-0.0532227	
-0.0621948	
-0.0740967	
-0.0838623	
-0.093811	
-0.105286	
-0.114319	
-0.122009	
-0.128784	
-0.134216	
-0.140747	
-0.147034	
-0.15332	
-0.159912	
-0.168579	
-0.180603	
-0.188721	
-0.194763	
-0.198242	
-0.200684	
-0.205505	
-0.209717	
-0.211426	
-0.201416	
-0.175476	
-0.142334	
-0.105957	
-0.0698853	
-0.0380859	
-0.0165405	
-0.00158691	
0.00921631	
0.0202026	
0.02771	
0.0316162	
0.0396729	
0.0466919	
0.0507813	
0.0540161	
0.0504761	
0.0448608	
0.0393677	
0.0317383	
0.0229492	
0.0131836	
0.00195313	
-0.00756836	
-0.0158081	
-0.0240479	
-0.0334473	
-0.0415039	
-0.0501099	
-0.0576172	
-0.0653076	
-0.0769043	
-0.0913696	
-0.103943	
-0.115417	
-0.128174	
-0.138062	
-0.146667	
-0.154785	
-0.164673	
-0.174072	
-0.184387	
-0.19397	
-0.201294	
-0.206299	
-0.208557	
-0.212341	
-0.219299	
-0.225281	
-0.230164	
-0.235229	
-0.241699	
-0.248657	
-0.252686	
-0.254761	
-0.25708	
-0.263184	
-0.269958	
-0.275391	
-0.276733	
-0.277161	
-0.273926	
-0.259766	
-0.22876	
-0.190674	
-0.153259	
-0.1203	
-0.0927124	
-0.072937	
-0.0594482	
-0.0494385	
-0.0422363	
-0.03479	
-0.0279541	
-0.0203857	
-0.0148315	
-0.010437	
-0.00964355	
-0.0123291	
-0.0164185	
-0.0195923	
-0.0256348	
-0.0299072	
-0.032959	
-0.0371094	
-0.0403442	
-0.0449219	
-0.0514526	
-0.0552368	
-0.059082	
-0.0657349	
-0.0727539	
-0.078064	
-0.0843506	
-0.0929565	
-0.100647	
-0.11261	
-0.125122	
-0.133484	
-0.142822	
-0.15155	
-0.158203	
-0.16394	
-0.172058	
-0.180603	
-0.189514	
-0.195496	
-0.201843	
-0.207397	
-0.213074	
-0.221375	
-0.227966	
-0.233643	
-0.235168	
-0.237061	
-0.240356	
-0.241699	
-0.241211	
-0.240845	
-0.239075	
-0.235352	
-0.222534	
-0.192627	
-0.155823	
-0.121216	
-0.0921021	
-0.0701904	
-0.0535889	
-0.0422974	
-0.0338135	
-0.0259399	
-0.0187988	
-0.0154419	
-0.010376	
-0.00585938	
-0.0045166	
-0.00543213	
-0.0045166	
-0.00775146	
-0.0170288	
-0.0233154	
-0.0248413	
-0.0264893	
-0.0319214	
-0.0386353	
-0.0449829	
-0.0525513	
-0.0583496	
-0.0623169	
-0.0674438	
-0.0719604	
-0.0800781	
-0.0875854	
-0.0958862	
-0.104614	
-0.112122	
-0.119934	
-0.128723	
-0.136719	
-0.145813	
-0.154846	
-0.16217	
-0.169067	
-0.174438	
-0.18103	
-0.187622	
-0.192871	
-0.19696	
-0.204712	
-0.213196	
-0.221497	
-0.229248	
-0.237	
-0.240234	
-0.243042	
-0.246643	
-0.25	
-0.252625	
-0.256287	
-0.255676	
-0.255554	
-0.257202	
-0.25238	
-0.237549	
-0.21106	
-0.175781	
-0.136414	
-0.100525	
-0.0716553	
-0.050293	
-0.0356445	
-0.026062	
-0.0195313	
-0.0111694	
-0.00360107	
0.00335693	
0.0102539	
0.0142212	
0.0170288	
0.0183105	
0.0169678	
0.012146	
0.00494385	
-0.00152588	
-0.00799561	
-0.0170288	
-0.0223999	
-0.027771	
-0.0367432	
-0.043457	
-0.0479126	
-0.0532837	
-0.059082	
-0.0639038	
-0.0723267	
-0.0819092	
-0.0911255	
-0.10144	
-0.109741	
-0.118286	
-0.126099	
-0.133057	
-0.140381	
-0.14563	
-0.150269	
-0.153442	
-0.159058	
-0.163025	
-0.166321	
-0.170715	
-0.174622	
-0.18042	
-0.185242	
-0.190491	
-0.197571	
-0.203247	
-0.207153	
-0.209717	
-0.209961	
-0.211853	
-0.213196	
-0.208862	
-0.193298	
-0.16394	
-0.128906	
-0.0942383	
-0.0639648	
-0.0413818	
-0.0228271	
-0.00964355	
-0.00323486	
0.00177002	
0.00622559	
0.00927734	
0.0153198	
0.019104	
0.0204468	
0.0214233	
0.0211182	
0.0186157	
0.0125122	
0.00622559	
0.00286865	
-0.00238037	
-0.00476074	
-0.00817871	
-0.0117798	
-0.019043	
-0.0279541	
-0.0386353	
-0.0496216	
-0.0586548	
-0.0686035	
-0.0779419	
-0.0870361	
-0.0977173	
-0.106995	
-0.116333	
-0.123413	
-0.129883	
-0.138794	
-0.147034	
-0.152588	
-0.156067	
-0.161987	
-0.166992	
-0.173828	
-0.180054	
-0.187622	
-0.196045	
-0.204224	
-0.208984	
-0.210938	
-0.210938	
-0.212219	
-0.215149	
-0.219543	
-0.225708	
-0.230774	
-0.234314	
-0.233948	
-0.218933	
-0.18811	
-0.14679	
-0.102539	
-0.0629272	
-0.031311	
-0.00500488	
0.0110474	
0.0184937	
0.0258789	
0.0311279	
0.0346069	
0.0404663	
0.0473633	
0.0536499	
0.0571289	
0.0566406	
0.0512085	
0.0449829	
0.0380249	
0.0305786	
0.0223389	
0.0134888	
0.00488281	
0.000732422	
-0.00115967	
-0.00457764	
-0.00976563	
-0.0181274	
-0.0250244	
-0.0323486	
-0.0413208	
-0.0519409	
-0.0606689	
-0.0670166	
-0.0758667	
-0.0881958	
-0.102478	
-0.114014	
-0.124878	
-0.133301	
-0.142395	
-0.149902	
-0.156799	
-0.163635	
-0.172485	
-0.180481	
-0.188293	
-0.197876	
-0.203979	
-0.209106	
-0.212708	
-0.215881	
-0.220398	
-0.223755	
-0.227295	
-0.230225	
-0.23175	
-0.230896	
-0.218872	
-0.189758	
-0.146606	
-0.101868	
-0.0563965	
-0.0195923	
0.00762939	
0.0258789	
0.0392456	
0.0510254	
0.0599976	
0.0662842	
0.0704956	
0.0770264	
0.0814819	
0.0831909	
0.0812378	
0.0744019	
0.0665283	
0.0604248	
0.0570068	
0.0497437	
0.0400391	
0.0314941	
0.0231934	
0.0122681	
0.00354004	
-0.00665283	
-0.0205688	
-0.0373535	
-0.0466919	
-0.0522461	
-0.0605469	
-0.0704346	
-0.0805664	
-0.0907593	
-0.102844	
-0.11438	
-0.124512	
-0.134338	
-0.143738	
-0.15094	
-0.157104	
-0.164978	
-0.171814	
-0.178833	
-0.181702	
-0.183533	
-0.188721	
-0.196167	
-0.202515	
-0.209656	
-0.215332	
-0.218933	
-0.222412	
-0.224731	
-0.228455	
-0.229187	
-0.231873	
-0.227173	
-0.210205	
-0.177124	
-0.13446	
-0.0919189	
-0.0559082	
-0.0257568	
-0.00177002	
0.0145264	
0.0258179	
0.0355225	
0.0422363	
0.046936	
0.0529175	
0.05896	
0.0638428	
0.0654297	
0.0651855	
0.0617676	
0.057373	
0.0529175	
0.0464478	
0.0383301	
0.0308838	
0.0241089	
0.0164185	
0.00762939	
-0.000854492	
-0.0090332	
-0.0188599	
-0.0289307	
-0.0419312	
-0.0545044	
-0.0675049	
-0.0789185	
-0.0897217	
-0.101379	
-0.109558	
-0.117126	
-0.124084	
-0.130554	
-0.139648	
-0.149597	
-0.155151	
-0.164368	
-0.173889	
-0.181824	
-0.188049	
-0.193909	
-0.199524	
-0.204224	
-0.20813	
-0.212219	
-0.218872	
-0.225769	
-0.232422	
-0.237061	
-0.241882	
-0.245728	
-0.249146	
-0.253723	
-0.257629	
-0.253845	
-0.235535	
-0.200439	
-0.157715	
-0.112366	
-0.071228	
-0.0369873	
-0.0133057	
0.00408936	
0.0141602	
0.0196533	
0.0268555	
0.0338745	
0.0403442	
0.0447388	
0.0458374	
0.0477905	
0.0425415	
0.0409546	
0.0376587	
0.0301514	
0.0248413	
0.020752	
0.0175781	
0.0134888	
0.00805664	
0.00292969	
-0.00372314	
-0.0127563	
-0.022644	
-0.0327148	
-0.0418091	
-0.0550537	
-0.0691528	
-0.0805664	
-0.0904541	
-0.10083	
-0.110352	
-0.118469	
-0.127563	
-0.134583	
-0.141296	
-0.146606	
-0.149963	
-0.154175	
-0.158752	
-0.16272	
-0.169006	
-0.175476	
-0.179565	
-0.184814	
-0.190063	
-0.197144	
-0.206116	
-0.214233	
-0.220825	
-0.219604	
-0.203796	
-0.174805	
-0.134705	
-0.0915527	
-0.0529175	
-0.022522	
-0.00128174	
0.0135498	
0.0259399	
0.0393677	
0.0488281	
0.0595703	
0.0686646	
0.0767822	
0.0839844	
0.0871582	
0.0864258	
0.079834	
0.0730591	
0.0668945	
0.0587769	
0.0507202	
0.0421753	
0.0321045	
0.0216675	
0.0131226	
0.00366211	
-0.00817871	
-0.0177002	
-0.0275269	
-0.0365601	
-0.0467529	
-0.0593872	
-0.0718994	
-0.0826416	
-0.0950317	
-0.106689	
-0.11908	
-0.132324	
-0.142639	
-0.15155	
-0.159424	
-0.167419	
-0.176025	
-0.180603	
-0.184631	
-0.189026	
-0.194519	
-0.200195	
-0.205322	
-0.210449	
-0.21283	
-0.217163	
-0.222839	
-0.228577	
-0.234253	
-0.242004	
-0.246704	
-0.249878	
-0.244507	
-0.227783	
-0.192139	
-0.147766	
-0.101685	
-0.0611572	
-0.0300903	
-0.00366211	
0.0169067	
0.0338135	
0.0463257	
0.0598145	
0.0712891	
0.0776978	
0.0820313	
0.085022	
0.0817261	
0.0773315	
0.0703735	
0.0640259	
0.057373	
0.0506592	
0.0403442	
0.0317383	
0.0222168	
0.0137939	
0.00500488	
-0.00561523	
-0.0179443	
-0.0304565	
-0.041626	
-0.0534668	
-0.0634155	
-0.0706787	
-0.0801392	
-0.0924072	
-0.103638	
-0.115662	
-0.124939	
-0.134155	
-0.144348	
-0.154175	
-0.162964	
-0.170227	
-0.177368	
-0.184875	
-0.189758	
-0.196777	
-0.201172	
-0.205872	
-0.209839	
-0.213196	
-0.218689	
-0.22522	
-0.229736	
-0.230957	
-0.233215	
-0.239807	
-0.246277	
-0.252075	
-0.257996	
-0.26178	
-0.261292	
-0.249817	
-0.223816	
-0.181641	
-0.137817	
-0.0974121	
-0.0627441	
-0.03479	
-0.0151367	
-0.00360107	
0.0055542	
0.0111084	
0.0157471	
0.019165	
0.0235596	
0.0288086	
0.0315552	
0.0315552	
0.0298462	
0.0220947	
0.0151367	
0.0108643	
0.00646973	
0.00158691	
-0.00488281	
-0.0110474	
-0.0172119	
-0.0246582	
-0.0321655	
-0.0414429	
-0.0507813	
-0.0608521	
-0.0717773	
-0.0814819	
-0.0896606	
-0.101929	
-0.110046	
-0.11731	
-0.124634	
-0.134399	
-0.144165	
-0.154663	
-0.164429	
-0.173096	
-0.182556	
-0.193481	
-0.200378	
-0.206421	
-0.211304	
-0.214111	
-0.216797	
-0.219116	
-0.222473	
-0.225464	
-0.227051	
-0.229858	
-0.229248	
-0.229553	
-0.235474	
-0.241089	
-0.244629	
-0.242249	
-0.231873	
-0.206238	
-0.171326	
-0.133362	
-0.0966187	
-0.0656128	
-0.041626	
-0.0267334	
-0.0164185	
-0.00787354	
0.000793457	
0.0088501	
0.0166016	
0.0235596	
0.0290527	
0.0323486	
0.0305176	
0.0268555	
0.0203247	
0.0133057	
0.0078125	
0.00231934	
-0.00567627	
-0.0145874	
-0.0249023	
-0.0351563	
-0.0418701	
-0.0484619	
-0.0554199	
-0.0618286	
-0.0674438	
-0.0740356	
-0.0827026	
-0.0919189	
-0.101318	
-0.110291	
-0.119995	
-0.131592	
-0.142456	
-0.150024	
-0.157104	
-0.164368	
-0.170654	
-0.17749	
-0.184021	
-0.188477	
-0.193726	
-0.198364	
-0.202698	
-0.205933	
-0.209656	
-0.210938	
-0.212402	
-0.214478	
-0.215576	
-0.219055	
-0.220215	
-0.215149	
-0.196594	
-0.163879	
-0.126221	
-0.0873413	
-0.0537109	
-0.0286865	
-0.0130005	
-0.003479	
0.003479	
0.00817871	
0.0125122	
0.0179443	
0.0233765	
0.0272217	
0.031189	
0.0332642	
0.0294189	
0.0239258	
0.017334	
0.0101318	
-0.000793457	
-0.00744629	
-0.0161133	
-0.0223389	
-0.0285034	
-0.0375366	
-0.0480957	
-0.0574951	
-0.0625	
-0.0672607	
-0.0758057	
-0.0835571	
-0.0934448	
-0.102539	
-0.110901	
-0.121155	
-0.132996	
-0.144226	
-0.154358	
-0.163513	
-0.170776	
-0.178894	
-0.184387	
-0.187805	
-0.19397	
-0.201843	
-0.209106	
-0.216309	
-0.223267	
-0.227234	
-0.229675	
-0.230469	
-0.232544	
-0.233276	
-0.232971	
-0.234375	
-0.231995	
-0.220459	
-0.19397	
-0.156799	
-0.117554	
-0.0823364	
-0.053894	
-0.0300903	
-0.0106812	
0.00164795	
0.0102539	
0.0170288	
0.0263672	
0.0386963	
0.0490723	
0.0565796	
0.0638428	
0.0648804	
0.0606079	
0.0543213	
0.0443726	
0.0332642	
0.0224609	
0.0130615	
0.00384521	
-0.00427246	
-0.0114136	
-0.0176392	
-0.0247803	
-0.0330811	
-0.039856	
-0.0480347	
-0.0576782	
-0.0700073	
-0.0818481	
-0.0925903	
-0.103455	
-0.112244	
-0.119629	
-0.131165	
-0.141846	
-0.150269	
-0.15863	
-0.166382	
-0.171692	
-0.178223	
-0.18457	
-0.191895	
-0.197266	
-0.202576	
-0.208191	
-0.212158	
-0.216064	
-0.219299	
-0.223389	
-0.226624	
-0.228577	
-0.233643	
-0.236389	
-0.23877	
-0.239624	
-0.235779	
-0.220154	
-0.190735	
-0.149536	
-0.106689	
-0.0685425	
-0.0351563	
-0.00946045	
0.00628662	
0.0166016	
0.0257568	
0.0336914	
0.0415649	
0.0494995	
0.0600586	
0.0718994	
0.0818481	
0.0884399	
0.0860596	
0.0819702	
0.0777588	
0.0693359	
0.0585327	
0.0457764	
0.0320435	
0.0223999	
0.0133667	
0.00189209	
-0.0144043	
-0.0288086	
-0.0407104	
-0.0501709	
-0.0612793	
-0.0739746	
-0.0883179	
-0.0986938	
-0.109009	
-0.118164	
-0.128967	
-0.138733	
-0.149048	
-0.157837	
-0.164734	
-0.16864	
-0.173462	
-0.17804	
-0.181702	
-0.189697	
-0.198364	
-0.208374	
-0.214233	
-0.219543	
-0.222656	
-0.223938	
-0.224976	
-0.229248	
-0.233154	
-0.236877	
-0.241882	
-0.24231	
-0.233215	
-0.207092	
-0.167664	
-0.128052	
-0.0908203	
-0.0559082	
-0.0274048	
-0.00646973	
0.0106201	
0.0258789	
0.0356445	
0.0424805	
0.046875	
0.0527954	
0.0565796	
0.0575562	
0.0566406	
0.0525513	
0.0488281	
0.0437622	
0.0427246	
0.039917	
0.0327759	
0.0216064	
0.00946045	
-0.000366211	
-0.0111694	
-0.0239258	
-0.0366211	
-0.0473633	
-0.0563965	
-0.0658569	
-0.0768433	
-0.0877075	
-0.0974121	
-0.107483	
-0.11853	
-0.129761	
-0.139404	
-0.148621	
-0.156433	
-0.164612	
-0.168213	
-0.172852	
-0.179077	
-0.184509	
-0.189209	
-0.19458	
-0.197876	
-0.200012	
-0.201477	
-0.204468	
-0.213074	
-0.218994	
-0.223389	
-0.228149	
-0.230591	
-0.222168	
-0.197083	
-0.160522	
-0.120605	
-0.0811157	
-0.0436401	
-0.0131836	
0.0108032	
0.0301514	
0.043457	
0.0523682	
0.0601196	
0.071106	
0.0802002	
0.0865479	
0.0903931	
0.0912476	
0.0872192	
0.0810547	
0.0705566	
0.0563965	
0.0449829	
0.0358887	
0.0274658	
0.0142212	
0	
-0.0142822	
-0.02771	
-0.0413208	
-0.053894	
-0.0640259	
-0.0750122	
-0.0871582	
-0.0992432	
-0.110962	
-0.123779	
-0.135376	
-0.146057	
-0.154236	
-0.162537	
-0.168884	
-0.175049	
-0.184082	
-0.189148	
-0.194458	
-0.199158	
-0.20697	
-0.215271	
-0.223145	
-0.233093	
-0.242249	
-0.24707	
-0.249573	
-0.252869	
-0.254761	
-0.256958	
-0.262756	
-0.266174	
-0.273621	
-0.275635	
-0.260132	
-0.225586	
-0.178406	
-0.128052	
-0.0808105	
-0.0413208	
-0.00860596	
0.0134888	
0.0296631	
0.0421143	
0.052002	
0.0584717	
0.067627	
0.0773315	
0.0825195	
0.0853882	
0.0860596	
0.0825806	
0.0748901	
0.064209	
0.053894	
0.039917	
0.0233154	
0.0108032	
0.000427246	
-0.00860596	
-0.0175171	
-0.0275269	
-0.0397949	
-0.0512695	
-0.0653687	
-0.0768433	
-0.0881958	
-0.100769	
-0.113098	
-0.125916	
-0.136108	
-0.144165	
-0.152893	
-0.163208	
-0.171753	
-0.17926	
-0.186401	
-0.192444	
-0.19928	
-0.206909	
-0.209534	
-0.216125	
-0.223755	
-0.227356	
-0.231873	
-0.240173	
-0.246277	
-0.252258	
-0.258362	
-0.264038	
-0.267944	
-0.269714	
-0.270752	
-0.274353	
-0.274658	
-0.271362	
-0.253296	
-0.217224	
-0.170532	
-0.120789	
-0.0732422	
-0.0344238	
-0.00445557	
0.0162354	
0.0293579	
0.0424194	
0.0506592	
0.0567627	
0.0619507	
0.0687866	
0.074646	
0.0789185	
0.0792236	
0.0733643	
0.0646362	
0.0567017	
0.0485229	
0.0422363	
0.0338745	
0.0258789	
0.0187378	
0.0100098	
0.000427246	
-0.00921631	
-0.0180054	
-0.0257568	
-0.0363159	
-0.0507202	
-0.0661011	
-0.0778809	
-0.088623	
-0.0976563	
-0.108887	
-0.121643	
-0.131653	
-0.142334	
-0.151794	
-0.161255	
-0.171448	
-0.18219	
-0.190552	
-0.195557	
-0.201172	
-0.20874	
-0.216553	
-0.224243	
-0.230957	
-0.236816	
-0.24176	
-0.243774	
-0.241394	
-0.224365	
-0.192139	
-0.148376	
-0.0987549	
-0.0521851	
-0.0119629	
0.020813	
0.0444946	
0.0584106	
0.0703735	
0.0791016	
0.0853271	
0.090332	
0.0963135	
0.100464	
0.100281	
0.0951538	
0.0877686	
0.0792236	
0.0675659	
0.0557251	
0.0452271	
0.0334473	
0.0211182	
0.0107422	
-0.000488281	
-0.0125732	
-0.0263062	
-0.0424194	
-0.0584717	
-0.0749512	
-0.0915527	
-0.10498	
-0.118469	
-0.128723	
-0.139404	
-0.149292	
-0.156189	
-0.165344	
-0.174622	
-0.179688	
-0.184937	
-0.191162	
-0.197754	
-0.204407	
-0.211304	
-0.218384	
-0.223938	
-0.230896	
-0.236877	
-0.239624	
-0.244324	
-0.249634	
-0.254944	
-0.253113	
-0.237183	
-0.203369	
-0.155396	
-0.10553	
-0.0578613	
-0.0187378	
0.0106812	
0.0342407	
0.0532837	
0.0675049	
0.0810547	
0.0889282	
0.0969849	
0.102783	
0.1073	
0.105164	
0.101013	
0.0924072	
0.0809326	
0.0668335	
0.0529785	
0.0419312	
0.0296631	
0.015686	
0.00140381	
-0.0101929	
-0.0195313	
-0.0297241	
-0.0406494	
-0.0519409	
-0.0654907	
-0.0762329	
-0.0874634	
-0.102417	
-0.117432	
-0.131958	
-0.145752	
-0.157166	
-0.166931	
-0.176514	
-0.187012	
-0.195007	
-0.202454	
-0.208191	
-0.214661	
-0.221619	
-0.228882	
-0.235352	
-0.242249	
-0.249756	
-0.25415	
-0.256592	
-0.261353	
-0.266479	
-0.273254	
-0.277832	
-0.280518	
-0.283752	
-0.286011	
-0.284973	
-0.280212	
-0.27417	
-0.256714	
-0.223755	
-0.179688	
-0.13147	
-0.081604	
-0.0374146	
-0.00408936	
0.0195313	
0.036377	
0.0477905	
0.057251	
0.0639648	
0.0696411	
0.0751953	
0.0812378	
0.0858154	
0.0847168	
0.0797729	
0.0719604	
0.0615234	
0.0507813	
0.0409546	
0.0314331	
0.0209351	
0.00762939	
-0.00402832	
-0.0166626	
-0.0281372	
-0.0410767	
-0.0519409	
-0.064209	
-0.0801392	
-0.0936279	
-0.105286	
-0.11853	
-0.130798	
-0.140747	
-0.149719	
-0.158447	
-0.164612	
-0.172729	
-0.180786	
-0.187317	
-0.193604	
-0.199707	
-0.203735	
-0.208191	
-0.212646	
-0.219666	
-0.227112	
-0.230957	
-0.234802	
-0.241089	
-0.246521	
-0.251892	
-0.25769	
-0.26355	
-0.268372	
-0.271851	
-0.271729	
-0.269287	
-0.25531	
-0.226013	
-0.18396	
-0.13623	
-0.0925903	
-0.0548706	
-0.0249634	
-0.00238037	
0.0108032	
0.0177612	
0.0219727	
0.0270996	
0.0314941	
0.0410156	
0.0511475	
0.0562744	
0.0551147	
0.0488892	
0.0403442	
0.0338745	
0.0271606	
0.0200195	
0.0124512	
0.00177002	
-0.00897217	
-0.0172119	
-0.026062	
-0.0354004	
-0.043457	
-0.052063	
-0.0609131	
-0.0733032	
-0.0852661	
-0.0995483	
-0.114624	
-0.13031	
-0.146606	
-0.158875	
-0.169373	
-0.180603	
-0.187195	
-0.194885	
-0.201355	
-0.205078	
-0.206848	
-0.207275	
-0.210144	
-0.214905	
-0.22345	
-0.231323	
-0.236023	
-0.242432	
-0.248291	
-0.250671	
-0.254211	
-0.257751	
-0.259644	
-0.26178	
-0.26532	
-0.267578	
-0.256836	
-0.228027	
-0.185425	
-0.138184	
-0.093689	
-0.0551147	
-0.0227051	
0.00170898	
0.019165	
0.0291138	
0.0386353	
0.050293	
0.06073	
0.0670166	
0.0737915	
0.0795288	
0.0829468	
0.0821533	
0.0786743	
0.0736084	
0.0647583	
0.0548096	
0.0418091	
0.0325317	
0.0239868	
0.0141602	
0.00457764	
-0.00708008	
-0.0178223	
-0.0282593	
-0.0388184	
-0.0510864	
-0.0667114	
-0.0812378	
-0.093811	
-0.102356	
-0.109009	
-0.114624	
-0.120789	
-0.127869	
-0.136169	
-0.148438	
-0.160095	
-0.172119	
-0.186646	
-0.197998	
-0.208008	
-0.218506	
-0.224121	
-0.226929	
-0.232361	
-0.235901	
-0.23822	
-0.242004	
-0.24469	
-0.24823	
-0.253601	
-0.258789	
-0.263977	
-0.268311	
-0.268616	
-0.261719	
-0.238525	
-0.195923	
-0.148132	
-0.10376	
-0.0654907	
-0.0342407	
-0.0106201	
0.00610352	
0.0180664	
0.026062	
0.0336914	
0.0429688	
0.0504761	
0.0564575	
0.0612183	
0.06073	
0.0609741	
0.0565186	
0.0501709	
0.0418091	
0.0338135	
0.0252075	
0.0147705	
0.00646973	
-0.000915527	
-0.00836182	
-0.0141602	
-0.0213623	
-0.0291138	
-0.0405273	
-0.0523682	
-0.0653076	
-0.0778198	
-0.0881348	
-0.098877	
-0.110352	
-0.120911	
-0.131226	
-0.141235	
-0.149719	
-0.158508	
-0.162842	
-0.169312	
-0.174805	
-0.177673	
-0.182434	
-0.190491	
-0.197205	
-0.203003	
-0.210144	
-0.214905	
-0.217163	
-0.219971	
-0.223206	
-0.229126	
-0.231323	
-0.226868	
-0.211182	
-0.179443	
-0.138611	
-0.09729	
-0.0604858	
-0.0333252	
-0.0162354	
-0.00396729	
0.00427246	
0.00689697	
0.00872803	
0.0123291	
0.0177002	
0.0231934	
0.0274048	
0.02771	
0.0267944	
0.0236816	
0.0202637	
0.0172729	
0.0126953	
0.00854492	
0.00402832	
-0.00427246	
-0.0151978	
-0.0258179	
-0.0336304	
-0.0424194	
-0.0548096	
-0.064209	
-0.0730591	
-0.0824585	
-0.0895996	
-0.0980835	
-0.10675	
-0.113403	
-0.119751	
-0.123413	
-0.128906	
-0.135925	
-0.139404	
-0.143005	
-0.146851	
-0.150269	
-0.157898	
-0.164795	
-0.169495	
-0.173035	
-0.178406	
-0.182556	
-0.188354	
-0.195862	
-0.202332	
-0.208557	
-0.21344	
-0.218384	
-0.222839	
-0.223938	
-0.208862	
-0.176575	
-0.135437	
-0.0946045	
-0.057251	
-0.0281982	
-0.00390625	
0.0126343	
0.0256348	
0.0330811	
0.0391235	
0.0427246	
0.0465088	
0.052063	
0.0581665	
0.0631104	
0.0632324	
0.0581055	
0.0506592	
0.0428467	
0.0363159	
0.0306396	
0.0247803	
0.0178223	
0.0105591	
0.000915527	
-0.00738525	
-0.0169678	
-0.0255127	
-0.0332031	
-0.0446167	
-0.0548706	
-0.0664063	
-0.0773926	
-0.0880737	
-0.0983887	
-0.107544	
-0.11731	
-0.127319	
-0.135925	
-0.142517	
-0.150146	
-0.160034	
-0.168701	
-0.176636	
-0.184753	
-0.190002	
-0.191711	
-0.195679	
-0.19989	
-0.203369	
-0.20697	
-0.210632	
-0.213257	
-0.215942	
-0.222229	
-0.229248	
-0.231567	
-0.233032	
-0.229309	
-0.213684	
-0.180298	
-0.135315	
-0.0919189	
-0.0518188	
-0.0177612	
0.0057373	
0.0216675	
0.0301514	
0.0354614	
0.0389404	
0.0449219	
0.0512695	
0.0591431	
0.0653687	
0.0709839	
0.0727539	
0.0717163	
0.0656128	
0.057373	
0.0484619	
0.0429688	
0.0379639	
0.0326538	
0.0244751	
0.0150146	
0.00256348	
-0.00982666	
-0.0216064	
-0.0339355	
-0.0459595	
-0.059021	
-0.0730591	
-0.0853271	
-0.0966187	
-0.109314	
-0.121277	
-0.130127	
-0.137512	
-0.14502	
-0.152771	
-0.159973	
-0.16803	
-0.173828	
-0.180969	
-0.189148	
-0.196411	
-0.201416	
-0.205994	
-0.210999	
-0.213135	
-0.215881	
-0.218201	
-0.219299	
-0.220154	
-0.221802	
-0.226379	
-0.228638	
-0.220886	
-0.197083	
-0.158936	
-0.114258	
-0.072998	
-0.0396118	
-0.0146484	
0.00274658	
0.0142212	
0.0228271	
0.0294189	
0.0363159	
0.0429077	
0.050415	
0.0536499	
0.0535889	
0.0516357	
0.046936	
0.036438	
0.0269165	
0.0170288	
0.00982666	
0.00366211	
0.000549316	
-0.003479	
-0.00897217	
-0.0136719	
-0.017334	
-0.0266113	
-0.0383911	
-0.0493164	
-0.0620117	
-0.0749512	
-0.0889893	
-0.101685	
-0.112366	
-0.121277	
-0.129761	
-0.139709	
-0.148621	
-0.15509	
-0.163208	
-0.169189	
-0.172791	
-0.176575	
-0.181702	
-0.187927	
-0.193665	
-0.199829	
-0.203491	
-0.205933	
-0.209473	
-0.210754	
-0.210876	
-0.202576	
-0.178589	
-0.144348	
-0.104187	
-0.0650024	
-0.0354004	
-0.0118408	
0.00610352	
0.0170288	
0.0223389	
0.0256348	
0.0314941	
0.0366211	
0.0424194	
0.0423584	
0.039978	
0.0343628	
0.026001	
0.0162964	
0.00408936	
-0.00610352	
-0.0157471	
-0.0241699	
-0.0332031	
-0.0415649	
-0.0499268	
-0.0596924	
-0.0690918	
-0.0777588	
-0.0859375	
-0.093689	
-0.103333	
-0.113647	
-0.125793	
-0.136719	
-0.146729	
-0.158386	
-0.166992	
-0.172485	
-0.179016	
-0.1875	
-0.198486	
-0.204956	
-0.209167	
-0.213318	
-0.216309	
-0.219116	
-0.223145	
-0.227722	
-0.230591	
-0.229431	
-0.223755	
-0.203918	
-0.169983	
-0.130981	
-0.0892334	
-0.0491333	
-0.0193481	
0.00292969	
0.0194092	
0.0320435	
0.0423584	
0.0476074	
0.0521851	
0.0578613	
0.0614624	
0.0640869	
0.0661621	
0.0629272	
0.055481	
0.0447388	
0.0320435	
0.0198364	
0.0088501	
0.000793457	
-0.00598145	
-0.0139771	
-0.0218506	
-0.0305176	
-0.0401001	
-0.0527344	
-0.0653076	
-0.0771484	
-0.0894775	
-0.10199	
-0.114807	
-0.12677	
-0.138184	
-0.149048	
-0.159668	
-0.169495	
-0.179443	
-0.189941	
-0.198975	
-0.206421	
-0.213745	
-0.218811	
-0.2229	
-0.22821	
-0.233765	
-0.236694	
-0.237976	
-0.233215	
-0.211914	
-0.178406	
-0.138428	
-0.101379	
-0.0698853	
-0.0441284	
-0.0222168	
-0.00415039	
0.00720215	
0.0167847	
0.027832	
0.0361938	
0.041626	
0.046875	
0.0516968	
0.0549927	
0.0516357	
0.0412598	
0.0299072	
0.0194702	
0.0124512	
0.0065918	
-0.0010376	
-0.0118408	
-0.024231	
-0.0349121	
-0.0421753	
-0.0487671	
-0.0568237	
-0.0656128	
-0.0779419	
-0.0899048	
-0.103821	
-0.118469	
-0.128845	
-0.138306	
-0.147461	
-0.156616	
-0.165955	
-0.178711	
-0.191162	
-0.203003	
-0.213257	
-0.220276	
-0.228943	
-0.236328	
-0.243347	
-0.252136	
-0.258057	
-0.263855	
-0.2677	
-0.270447	
-0.268921	
-0.251221	
-0.218384	
-0.179321	
-0.137695	
-0.0969849	
-0.0630493	
-0.039856	
-0.0266113	
-0.0193481	
-0.0137939	
-0.0103149	
-0.00604248	
0.000183105	
0.00628662	
0.00817871	
0.00732422	
0.0012207	
-0.00909424	
-0.0200195	
-0.0269165	
-0.031311	
-0.0368652	
-0.0440674	
-0.0521851	
-0.0596924	
-0.0682983	
-0.0765381	
-0.0837402	
-0.0896606	
-0.09729	
-0.1073	
-0.117798	
-0.130005	
-0.141785	
-0.150696	
-0.160828	
-0.171997	
-0.179504	
-0.185303	
-0.191711	
-0.199829	
-0.205078	
-0.211365	
-0.218323	
-0.22406	
-0.22998	
-0.237122	
-0.244263	
-0.249756	
-0.252563	
-0.252991	
-0.240845	
-0.209473	
-0.167664	
-0.123657	
-0.0834961	
-0.0515137	
-0.0284424	
-0.015564	
-0.00421143	
0.00708008	
0.0129395	
0.0152588	
0.0177612	
0.0194092	
0.0193481	
0.0188599	
0.0150146	
0.0118408	
0.00634766	
0.000183105	
-0.00543213	
-0.0101318	
-0.0151367	
-0.0231323	
-0.0311279	
-0.0383301	
-0.0462646	
-0.0534668	
-0.0621338	
-0.0718994	
-0.0810547	
-0.0927124	
-0.105591	
-0.117737	
-0.129028	
-0.138245	
-0.146851	
-0.156799	
-0.163208	
-0.169922	
-0.17981	
-0.189453	
-0.199524	
-0.208557	
-0.21698	
-0.225159	
-0.230103	
-0.228882	
-0.215271	
-0.184753	
-0.14502	
-0.103027	
-0.0615845	
-0.0271606	
-0.00177002	
0.0152588	
0.0308228	
0.0411987	
0.0460815	
0.0525513	
0.0599365	
0.0686646	
0.0773315	
0.0787964	
0.0775757	
0.0715942	
0.0612793	
0.0496826	
0.0377808	
0.0275269	
0.0171509	
0.00805664	
-0.00274658	
-0.0147705	
-0.0241699	
-0.0317383	
-0.0420532	
-0.0507813	
-0.0632935	
-0.0752563	
-0.0869141	
-0.10083	
-0.113525	
-0.12262	
-0.128967	
-0.138733	
-0.148315	
-0.15509	
-0.161926	
-0.170227	
-0.177551	
-0.183167	
-0.189209	
-0.197815	
-0.205505	
-0.213806	
-0.215149	
-0.203735	
-0.17395	
-0.13208	
-0.085083	
-0.043396	
-0.00811768	
0.0180664	
0.034668	
0.0448608	
0.0517578	
0.0561523	
0.0606689	
0.0654907	
0.0665283	
0.0678711	
0.06604	
0.0615845	
0.0527954	
0.0426636	
0.0318604	
0.0189819	
0.00476074	
-0.00482178	
-0.0147095	
-0.0271606	
-0.0390625	
-0.0490723	
-0.0617065	
-0.0778198	
-0.0940552	
-0.111023	
-0.125366	
-0.140076	
-0.154602	
-0.165466	
-0.17395	
-0.180481	
-0.188049	
-0.193359	
-0.201599	
-0.207886	
-0.21405	
-0.223389	
-0.232727	
-0.24408	
-0.25061	
-0.252686	
-0.255859	
-0.259338	
-0.259521	
-0.244141	
-0.21051	
-0.167297	
-0.12262	
-0.0826416	
-0.046936	
-0.0245972	
-0.00817871	
0.00317383	
0.0101929	
0.0157471	
0.0187378	
0.0236206	
0.0302734	
0.0328369	
0.0344849	
0.02948	
0.0215454	
0.0115356	
0.00262451	
-0.00756836	
-0.0174561	
-0.0255127	
-0.0342407	
-0.0409546	
-0.0497437	
-0.0600586	
-0.0726318	
-0.0835571	
-0.097168	
-0.113342	
-0.126709	
-0.14093	
-0.152954	
-0.162476	
-0.173401	
-0.181335	
-0.187927	
-0.194336	
-0.202209	
-0.210754	
-0.219116	
-0.223083	
-0.228516	
-0.233887	
-0.237854	
-0.243286	
-0.246399	
-0.236084	
-0.207581	
-0.165955	
-0.120667	
-0.0776978	
-0.0431519	
-0.0167847	
0.000793457	
0.0131836	
0.0204468	
0.0256958	
0.0311279	
0.0341187	
0.0367432	
0.0355225	
0.0325928	
0.0267334	
0.0203857	
0.0144653	
0.00701904	
0.00115967	
-0.00531006	
-0.0150757	
-0.0280762	
-0.039917	
-0.0491943	
-0.0575562	
-0.0682373	
-0.0783691	
-0.0892944	
-0.102722	
-0.117004	
-0.127869	
-0.138245	
-0.149353	
-0.160828	
-0.172852	
-0.184692	
-0.194092	
-0.201233	
-0.207153	
-0.212952	
-0.218933	
-0.223999	
-0.228394	
-0.234253	
-0.242004	
-0.246399	
-0.242188	
-0.226074	
-0.190125	
-0.146362	
-0.102783	
-0.0611572	
-0.029541	
-0.00689697	
0.0100098	
0.0209961	
0.0269165	
0.0338135	
0.0400391	
0.0458374	
0.0523071	
0.055603	
0.0516968	
0.0430908	
0.0325317	
0.0211792	
0.00915527	
-0.00299072	
-0.0141602	
-0.0244141	
-0.0325317	
-0.0392456	
-0.0453491	
-0.053772	
-0.0653076	
-0.0762329	
-0.0871582	
-0.0986328	
-0.110779	
-0.124512	
-0.138245	
-0.151001	
-0.16272	
-0.173035	
-0.182739	
-0.192505	
-0.197571	
-0.202515	
-0.210327	
-0.217468	
-0.222473	
-0.225403	
-0.227722	
-0.233582	
-0.239014	
-0.235901	
-0.213013	
-0.176453	
-0.133423	
-0.0880737	
-0.0458374	
-0.0147095	
0.00646973	
0.0223389	
0.0355835	
0.0469971	
0.0552368	
0.0612793	
0.0622559	
0.0615234	
0.0595093	
0.0535278	
0.0441895	
0.0322876	
0.0203857	
0.00872803	
-0.00244141	
-0.0172729	
-0.0291748	
-0.0388184	
-0.0501709	
-0.0613403	
-0.0697021	
-0.0758667	
-0.0852051	
-0.0971069	
-0.107666	
-0.120239	
-0.133423	
-0.145203	
-0.155212	
-0.16272	
-0.170593	
-0.180664	
-0.189331	
-0.197266	
-0.208069	
-0.219116	
-0.227478	
-0.236694	
-0.244202	
-0.250488	
-0.25116	
-0.239929	
-0.210388	
-0.167053	
-0.118835	
-0.0728149	
-0.0316162	
0.000976563	
0.0267944	
0.0431519	
0.0530396	
0.0578003	
0.0628052	
0.0686035	
0.0714111	
0.072998	
0.0715942	
0.0687866	
0.0614014	
0.0488281	
0.0349121	
0.0183105	
0.00482178	
-0.00872803	
-0.0218506	
-0.0336304	
-0.0473022	
-0.0595093	
-0.0705566	
-0.0810547	
-0.0936279	
-0.102966	
-0.110901	
-0.125854	
-0.139893	
-0.151794	
-0.16272	
-0.173584	
-0.187073	
-0.199646	
-0.209534	
-0.217163	
-0.22467	
-0.229431	
-0.23584	
-0.245361	
-0.253113	
-0.258118	
-0.261841	
-0.259949	
-0.24823	
-0.21875	
-0.173462	
-0.118591	
-0.0651855	
-0.0170288	
0.0223999	
0.050293	
0.0679321	
0.0772095	
0.0828857	
0.0889282	
0.0923462	
0.095459	
0.097229	
0.0949097	
0.0883179	
0.0779419	
0.0656738	
0.0532227	
0.0424805	
0.0324097	
0.0214844	
0.00976563	
-0.00482178	
-0.0185547	
-0.0322266	
-0.0476685	
-0.0638428	
-0.0784912	
-0.0938721	
-0.110962	
-0.127258	
-0.140442	
-0.151672	
-0.164978	
-0.179565	
-0.190491	
-0.201538	
-0.213196	
-0.221802	
-0.231934	
-0.241882	
-0.247131	
-0.251465	
-0.257141	
-0.263733	
-0.270691	
-0.278992	
-0.286377	
-0.290588	
-0.287415	
-0.269897	
-0.23053	
-0.17688	
-0.118958	
-0.0628662	
-0.0133667	
0.0256348	
0.0523071	
0.0700073	
0.0827026	
0.0872192	
0.0933838	
0.095459	
0.0968018	
0.0944824	
0.0907593	
0.0831299	
0.0731812	
0.0599365	
0.0462036	
0.0319214	
0.0171509	
0.00305176	
-0.00982666	
-0.0255127	
-0.0413818	
-0.0553589	
-0.0708618	
-0.0834351	
-0.0949097	
-0.107361	
-0.120178	
-0.134705	
-0.147644	
-0.160034	
-0.170471	
-0.181152	
-0.193665	
-0.204407	
-0.212463	
-0.222351	
-0.229248	
-0.236633	
-0.243103	
-0.249573	
-0.255005	
-0.262329	
-0.269775	
-0.273926	
-0.269836	
-0.249023	
-0.207764	
-0.155945	
-0.0984497	
-0.045166	
-0.00305176	
0.0267944	
0.045105	
0.0567017	
0.0639648	
0.0710449	
0.0734863	
0.0726929	
0.0718384	
0.0683594	
0.0610352	
0.0501709	
0.0369263	
0.0234375	
0.00970459	
0.000732422	
-0.00653076	
-0.0144653	
-0.0267334	
-0.0389404	
-0.0518188	
-0.0643921	
-0.0759888	
-0.0854492	
-0.0959473	
-0.105896	
-0.117493	
-0.132263	
-0.14679	
-0.161438	
-0.175415	
-0.188232	
-0.2005	
-0.209045	
-0.215637	
-0.223877	
-0.229614	
-0.237671	
-0.247742	
-0.255493	
-0.261902	
-0.256653	
-0.232117	
-0.187988	
-0.133362	
-0.0768433	
-0.0263672	
0.0131836	
0.0380249	
0.0543823	
0.0680542	
0.076416	
0.0800171	
0.0836182	
0.083313	
0.0838623	
0.0791626	
0.069519	
0.0581665	
0.0466919	
0.032959	
0.0158081	
0.00360107	
-0.00976563	
-0.0251465	
-0.0405884	
-0.0551758	
-0.0701294	
-0.0828857	
-0.0934448	
-0.106079	
-0.117554	
-0.130676	
-0.145935	
-0.162598	
-0.177979	
-0.191895	
-0.203552	
-0.21283	
-0.222351	
-0.231812	
-0.241394	
-0.249939	
-0.255676	
-0.263367	
-0.271057	
-0.276794	
-0.283203	
-0.285828	
-0.274292	
-0.241821	
-0.189941	
-0.127197	
-0.0670166	
-0.0189209	
0.0163574	
0.0408936	
0.0587158	
0.0715942	
0.0787354	
0.0858765	
0.0925903	
0.0952759	
0.0953979	
0.0917358	
0.0852661	
0.0734253	
0.0597534	
0.0446167	
0.02771	
0.010437	
-0.0065918	
-0.0214844	
-0.0352173	
-0.0510254	
-0.0658569	
-0.0826416	
-0.0981445	
-0.113464	
-0.128235	
-0.143494	
-0.161255	
-0.179993	
-0.197205	
-0.212708	
-0.225708	
-0.233948	
-0.243286	
-0.252441	
-0.260925	
-0.26825	
-0.275757	
-0.282349	
-0.287109	
-0.291809	
-0.289246	
-0.26886	
-0.228455	
-0.174805	
-0.121155	
-0.0744629	
-0.0394287	
-0.0155029	
-0.00164795	
0.00646973	
0.0128174	
0.017395	
0.020874	
0.0233765	
0.0258789	
0.0234985	
0.0166016	
0.00726318	
-0.00335693	
-0.0140381	
-0.0255737	
-0.0368042	
-0.046875	
-0.057312	
-0.0679321	
-0.0795288	
-0.0912476	
-0.103333	
-0.116577	
-0.128357	
-0.139771	
-0.153992	
-0.168091	
-0.180664	
-0.19574	
-0.2099	
-0.221497	
-0.230225	
-0.238525	
-0.245728	
-0.253845	
-0.261108	
-0.265442	
-0.267883	
-0.26709	
-0.255371	
-0.225342	
-0.179565	
-0.129578	
-0.0806274	
-0.0396118	
-0.0117798	
0.00640869	
0.0175781	
0.0249634	
0.0311279	
0.0367432	
0.0408936	
0.0426636	
0.0430298	
0.0359497	
0.0245972	
0.0124512	
0.00213623	
-0.00927734	
-0.0202026	
-0.0255737	
-0.0319824	
-0.0425415	
-0.0541992	
-0.067749	
-0.0840454	
-0.0978394	
-0.112854	
-0.125671	
-0.135315	
-0.144653	
-0.156006	
-0.171875	
-0.18634	
-0.199219	
-0.209839	
-0.219116	
-0.22406	
-0.22937	
-0.235107	
-0.243958	
-0.25238	
-0.257141	
-0.266724	
-0.275391	
-0.279297	
-0.27179	
-0.245728	
-0.204346	
-0.153198	
-0.101196	
-0.0551147	
-0.0172119	
0.0100098	
0.0274048	
0.0393677	
0.048645	
0.0529175	
0.059082	
0.0655518	
0.0692139	
0.0670166	
0.0609741	
0.0512695	
0.0391846	
0.0264282	
0.0148926	
0	
-0.0159912	
-0.0303345	
-0.0407104	
-0.0541382	
-0.0662842	
-0.0777588	
-0.0913696	
-0.102905	
-0.114624	
-0.12677	
-0.139709	
-0.152588	
-0.166809	
-0.181885	
-0.192017	
-0.201355	
-0.210388	
-0.218933	
-0.227539	
-0.236328	
-0.243835	
-0.250183	
-0.256042	
-0.260681	
-0.263855	
-0.266724	
-0.270813	
-0.277771	
-0.283264	
-0.285889	
-0.289551	
-0.292847	
-0.296326	
-0.298706	
-0.293884	
-0.269531	
-0.227722	
-0.178223	
-0.123901	
-0.076416	
-0.038208	
-0.00909424	
0.0116577	
0.0253906	
0.0379639	
0.0471802	
0.0535278	
0.0585938	
0.0606079	
0.0605469	
0.0548706	
0.0456543	
0.036499	
0.02771	
0.0181274	
0.00994873	
0.000549316	
-0.00921631	
-0.0199585	
-0.0325928	
-0.0429688	
-0.0498657	
-0.0567017	
-0.0669556	
-0.0786133	
-0.0889893	
-0.10022	
-0.112488	
-0.125977	
-0.137451	
-0.147522	
-0.156067	
-0.16449	
-0.171448	
-0.177368	
-0.183411	
-0.190857	
-0.201355	
-0.210938	
-0.219177	
-0.224976	
-0.231445	
-0.24054	
-0.246887	
-0.252075	
-0.257324	
-0.256714	
-0.24231	
-0.207703	
-0.163208	
-0.112488	
-0.0615234	
-0.0187378	
0.0162964	
0.0438232	
0.0622559	
0.0748901	
0.0818481	
0.0830688	
0.0863647	
0.0901489	
0.0925903	
0.0923462	
0.0877075	
0.0760498	
0.0626221	
0.0493164	
0.0349731	
0.0200806	
0.00634766	
-0.00756836	
-0.0197144	
-0.0303345	
-0.0404053	
-0.0499878	
-0.0602417	
-0.0696411	
-0.0828857	
-0.0957031	
-0.108398	
-0.124207	
-0.139832	
-0.15387	
-0.164124	
-0.174927	
-0.188477	
-0.200073	
-0.209106	
-0.217041	
-0.225525	
-0.229797	
-0.232666	
-0.238953	
-0.246155	
-0.252747	
-0.25946	
-0.264282	
-0.26825	
-0.27124	
-0.272705	
-0.274536	
-0.277466	
-0.279724	
-0.281372	
-0.284058	
-0.285767	
-0.279602	
-0.258179	
-0.218018	
-0.166077	
-0.110718	
-0.057373	
-0.0137939	
0.019165	
0.0428467	
0.0601807	
0.0723877	
0.0823364	
0.0903931	
0.0950928	
0.0952148	
0.0961304	
0.0939941	
0.0894775	
0.083374	
0.0760498	
0.0654907	
0.0529785	
0.0413818	
0.0290527	
0.0143433	
0.00152588	
-0.00897217	
-0.0212402	
-0.0352173	
-0.0501099	
-0.0667114	
-0.0856934	
-0.102417	
-0.114929	
-0.127625	
-0.14032	
-0.148621	
-0.159241	
-0.171692	
-0.181763	
-0.189575	
-0.198547	
-0.205566	
-0.210571	
-0.215393	
-0.217346	
-0.220337	
-0.225525	
-0.230713	
-0.238464	
-0.244324	
-0.250793	
-0.256348	
-0.259949	
-0.264893	
-0.269409	
-0.272705	
-0.276123	
-0.277405	
-0.276123	
-0.262756	
-0.229858	
-0.180908	
-0.126465	
-0.0706787	
-0.0180054	
0.0227661	
0.048584	
0.0652466	
0.0744019	
0.0791016	
0.0811768	
0.0824585	
0.0820313	
0.0822754	
0.0800781	
0.0759277	
0.0742188	
0.0692749	
0.0605469	
0.0523682	
0.0412598	
0.0305176	
0.0219727	
0.0115356	
0.000732422	
-0.012146	
-0.02948	
-0.0460815	
-0.0626831	
-0.0759888	
-0.0897217	
-0.105713	
-0.120178	
-0.131287	
-0.141724	
-0.152039	
-0.160889	
-0.168274	
-0.174866	
-0.182983	
-0.190308	
-0.195801	
-0.199768	
-0.20343	
-0.206421	
-0.212036	
-0.219238	
-0.22699	
-0.232605	
-0.233887	
-0.225647	
-0.193054	
-0.144043	
-0.0860596	
-0.0252075	
0.0301514	
0.0726318	
0.103638	
0.124207	
0.139282	
0.14856	
0.152405	
0.154541	
0.156006	
0.155273	
0.150452	
0.142761	
0.129456	
0.114258	
0.0979614	
0.0792847	
0.0610352	
0.0425415	
0.0275269	
0.0140991	
0.00109863	
-0.0131836	
-0.0269775	
-0.0405273	
-0.0540161	
-0.0689087	
-0.0837402	
-0.0997314	
-0.115356	
-0.129944	
-0.143066	
-0.153503	
-0.162964	
-0.170959	
-0.181763	
-0.189392	
-0.196472	
-0.205017	
-0.213379	
-0.220215	
-0.226868	
-0.231995	
-0.238403	
-0.246826	
-0.25354	
-0.259766	
-0.260498	
-0.248352	
-0.215271	
-0.161804	
-0.0948486	
-0.0288696	
0.0283813	
0.0742798	
0.105286	
0.126587	
0.138977	
0.144043	
0.148621	
0.151062	
0.152588	
0.151062	
0.144226	
0.130493	
0.11377	
0.0947876	
0.076416	
0.0592651	
0.0444336	
0.0282593	
0.0140381	
0.00128174	
-0.0147095	
-0.0310669	
-0.0464478	
-0.0599976	
-0.0704346	
-0.0837402	
-0.0991211	
-0.114624	
-0.130554	
-0.148071	
-0.162048	
-0.175537	
-0.18634	
-0.197083	
-0.207153	
-0.216492	
-0.225159	
-0.234558	
-0.239441	
-0.243103	
-0.248962	
-0.252991	
-0.26062	
-0.267517	
-0.275757	
-0.284363	
-0.292358	
-0.297363	
-0.300537	
-0.295898	
-0.273926	
-0.231812	
-0.173157	
-0.108154	
-0.0444946	
0.0109253	
0.0543823	
0.0829468	
0.100098	
0.107239	
0.108459	
0.108337	
0.10791	
0.105103	
0.10199	
0.0951538	
0.0835571	
0.0717163	
0.0595093	
0.0457153	
0.0349121	
0.0258179	
0.0177612	
0.00805664	
-0.0045166	
-0.0189819	
-0.0371704	
-0.0533447	
-0.0664673	
-0.0769043	
-0.0878296	
-0.102722	
-0.117737	
-0.132874	
-0.146179	
-0.156738	
-0.169495	
-0.18219	
-0.192627	
-0.198975	
-0.206116	
-0.216736	
-0.226318	
-0.233948	
-0.239868	
-0.248291	
-0.256531	
-0.263916	
-0.270203	
-0.269714	
-0.251709	
-0.211121	
-0.155945	
-0.0940552	
-0.0354614	
0.0149536	
0.0524292	
0.0762329	
0.0899658	
0.0984497	
0.104248	
0.107056	
0.106445	
0.104858	
0.101685	
0.0946655	
0.0803833	
0.065979	
0.0493774	
0.0343018	
0.0188599	
0.00445557	
-0.00994873	
-0.0245972	
-0.0383911	
-0.0535889	
-0.0683594	
-0.0807495	
-0.0933228	
-0.108276	
-0.123535	
-0.14093	
-0.155762	
-0.168945	
-0.181946	
-0.193787	
-0.201965	
-0.211182	
-0.217651	
-0.226563	
-0.236389	
-0.242065	
-0.246704	
-0.253479	
-0.259521	
-0.265503	
-0.269653	
-0.272766	
-0.278748	
-0.283875	
-0.286499	
-0.286926	
-0.275085	
-0.243103	
-0.19574	
-0.139282	
-0.0805054	
-0.0292969	
0.010437	
0.039917	
0.0568237	
0.0667114	
0.0740967	
0.078064	
0.0792236	
0.0799561	
0.0785522	
0.0740967	
0.0681152	
0.0579224	
0.0440063	
0.0302734	
0.0192261	
0.0067749	
-0.010498	
-0.026062	
-0.0358276	
-0.0462646	
-0.0582275	
-0.0701904	
-0.081543	
-0.0952148	
-0.11145	
-0.12384	
-0.134583	
-0.145081	
-0.155029	
-0.164246	
-0.174011	
-0.18457	
-0.194031	
-0.203674	
-0.211792	
-0.218628	
-0.224121	
-0.230469	
-0.237427	
-0.241638	
-0.245117	
-0.249817	
-0.254578	
-0.260315	
-0.265625	
-0.270386	
-0.268921	
-0.256592	
-0.225403	
-0.179382	
-0.123291	
-0.0661621	
-0.0166016	
0.0189209	
0.0447998	
0.0587158	
0.0641479	
0.0680542	
0.071167	
0.074707	
0.0773926	
0.0755005	
0.0689697	
0.0602417	
0.0507202	
0.0394287	
0.0270996	
0.0134888	
0.000793457	
-0.0111694	
-0.0254517	
-0.0358276	
-0.0462646	
-0.0575562	
-0.069458	
-0.0824585	
-0.0957031	
-0.109741	
-0.121887	
-0.13092	
-0.140503	
-0.151123	
-0.159485	
-0.16803	
-0.176514	
-0.1828	
-0.191528	
-0.19928	
-0.205566	
-0.21228	
-0.217834	
-0.226135	
-0.236084	
-0.242493	
-0.247559	
-0.253296	
-0.26062	
-0.266052	
-0.264099	
-0.249634	
-0.21759	
-0.168945	
-0.112671	
-0.0595093	
-0.0151978	
0.0182495	
0.0408325	
0.0576782	
0.0709229	
0.0803833	
0.0875244	
0.0924072	
0.0942993	
0.0955811	
0.0940552	
0.0866699	
0.0766602	
0.0585327	
0.0413208	
0.0261841	
0.0134277	
-0.00146484	
-0.0151978	
-0.0274048	
-0.0387573	
-0.0513916	
-0.0634766	
-0.0770874	
-0.0893555	
-0.10022	
-0.110962	
-0.124939	
-0.135559	
-0.14447	
-0.155029	
-0.165649	
-0.175049	
-0.181702	
-0.187988	
-0.196167	
-0.205505	
-0.213074	
-0.22168	
-0.226318	
-0.232605	
-0.239014	
-0.248779	
-0.254639	
-0.26178	
-0.266479	
-0.271912	
-0.27887	
-0.28363	
-0.28595	
-0.287292	
-0.274231	
-0.238159	
-0.187561	
-0.132446	
-0.0805054	
-0.0361328	
-0.00189209	
0.022644	
0.0389404	
0.0489502	
0.0529175	
0.0568237	
0.0621948	
0.0667114	
0.0682983	
0.0658569	
0.0595703	
0.0502319	
0.0388184	
0.0283813	
0.0158691	
0.00250244	
-0.00836182	
-0.0211182	
-0.0318604	
-0.0424194	
-0.0545044	
-0.0665283	
-0.0799561	
-0.0934448	
-0.105103	
-0.115051	
-0.123413	
-0.133789	
-0.14502	
-0.154175	
-0.160522	
-0.166687	
-0.174194	
-0.179749	
-0.185913	
-0.19104	
-0.195801	
-0.203064	
-0.215088	
-0.224487	
-0.23175	
-0.237671	
-0.242004	
-0.246033	
-0.249084	
-0.250183	
-0.240234	
-0.21283	
-0.172668	
-0.123108	
-0.0736694	
-0.0324097	
0.00115967	
0.0292358	
0.0470581	
0.057373	
0.0639038	
0.0686035	
0.0759888	
0.0830688	
0.0862427	
0.0829468	
0.0745239	
0.0636597	
0.0502319	
0.0343018	
0.0197754	
0.0057373	
-0.00732422	
-0.0194092	
-0.0316772	
-0.0385132	
-0.0466309	
-0.0548706	
-0.0679321	
-0.0791626	
-0.0892944	
-0.101013	
-0.111755	
-0.124939	
-0.137512	
-0.150757	
-0.163208	
-0.172729	
-0.180786	
-0.189087	
-0.199463	
-0.209412	
-0.218933	
-0.230347	
-0.238586	
-0.247314	
-0.254578	
-0.260254	
-0.265564	
-0.269897	
-0.274536	
-0.278198	
-0.282043	
-0.283508	
-0.281799	
-0.281494	
-0.280457	
-0.263245	
-0.229431	
-0.182739	
-0.128296	
-0.0753174	
-0.0328369	
0.000732422	
0.0223999	
0.0368042	
0.046936	
0.053894	
0.0563354	
0.0585938	
0.0613403	
0.0618286	
0.0563354	
0.0452881	
0.0318604	
0.0183105	
0.00518799	
-0.00848389	
-0.0213623	
-0.031189	
-0.0383911	
-0.0430908	
-0.0476074	
-0.0517578	
-0.0568237	
-0.067749	
-0.0790405	
-0.0892944	
-0.0970459	
-0.104004	
-0.111572	
-0.118408	
-0.128296	
-0.13855	
-0.149902	
-0.16217	
-0.175293	
-0.184937	
-0.193298	
-0.200806	
-0.206543	
-0.21283	
-0.220764	
-0.227478	
-0.233398	
-0.238586	
-0.2453	
-0.248535	
-0.255432	
-0.261292	
-0.25885	
-0.240906	
-0.203186	
-0.160034	
-0.11322	
-0.0654907	
-0.0297241	
-0.0055542	
0.0147095	
0.0282593	
0.0367432	
0.0431519	
0.0496826	
0.0560913	
0.0578003	
0.0559692	
0.0541382	
0.0490723	
0.0413208	
0.0317993	
0.0200806	
0.00646973	
-0.00585938	
-0.0177002	
-0.0303955	
-0.0441895	
-0.0574341	
-0.0703125	
-0.0807495	
-0.0908813	
-0.102295	
-0.112305	
-0.119751	
-0.128235	
-0.134644	
-0.143372	
-0.151306	
-0.160645	
-0.170227	
-0.176086	
-0.182007	
-0.189209	
-0.194641	
-0.199829	
-0.206421	
-0.211182	
-0.217224	
-0.225708	
-0.231567	
-0.234741	
-0.241394	
-0.245605	
-0.249817	
-0.252563	
-0.255798	
-0.259338	
-0.262756	
-0.262207	
-0.250427	
-0.223206	
-0.183105	
-0.135315	
-0.0834351	
-0.0391235	
-0.00592041	
0.0153809	
0.0274048	
0.0345459	
0.0396729	
0.0442505	
0.0479126	
0.0527344	
0.0584106	
0.0602417	
0.0582886	
0.0502319	
0.0377808	
0.0263672	
0.0141602	
0.0032959	
-0.00628662	
-0.0148315	
-0.0213623	
-0.026123	
-0.0366821	
-0.0480347	
-0.0592651	
-0.0684204	
-0.0784912	
-0.0913696	
-0.102234	
-0.113464	
-0.126465	
-0.136169	
-0.14209	
-0.145447	
-0.150757	
-0.156616	
-0.164551	
-0.170654	
-0.177551	
-0.187439	
-0.195129	
-0.198608	
-0.20343	
-0.208679	
-0.215759	
-0.218201	
-0.21991	
-0.22345	
-0.228699	
-0.235779	
-0.241882	
-0.246826	
-0.25238	
-0.256653	
-0.257019	
-0.249146	
-0.22583	
-0.187561	
-0.141724	
-0.0933838	
-0.0496216	
-0.0152588	
0.0130005	
0.0314331	
0.0404053	
0.0457153	
0.0498657	
0.0552979	
0.0601196	
0.0638428	
0.0651855	
0.0651855	
0.0585938	
0.0513916	
0.0447388	
0.0369873	
0.02948	
0.0211792	
0.0116577	
0.0020752	
-0.0098877	
-0.0238037	
-0.0322266	
-0.039856	
-0.0471802	
-0.0562134	
-0.0665283	
-0.0750122	
-0.086792	
-0.10083	
-0.112	
-0.121521	
-0.130127	
-0.136902	
-0.146545	
-0.156738	
-0.163818	
-0.170715	
-0.17981	
-0.187195	
-0.192749	
-0.197876	
-0.201782	
-0.205322	
-0.209961	
-0.213379	
-0.217346	
-0.212708	
-0.193054	
-0.15979	
-0.117065	
-0.0691528	
-0.0281982	
0.00714111	
0.0310669	
0.0463867	
0.0551147	
0.0626221	
0.0704956	
0.0756226	
0.0784302	
0.0796509	
0.0770264	
0.0726929	
0.0651245	
0.0562134	
0.0455322	
0.0324707	
0.0201416	
0.00720215	
-0.00360107	
-0.0125122	
-0.0214844	
-0.0299072	
-0.0401611	
-0.050415	
-0.05896	
-0.0667725	
-0.0751343	
-0.0875854	
-0.100647	
-0.111755	
-0.121521	
-0.131653	
-0.14093	
-0.14801	
-0.156067	
-0.166931	
-0.176453	
-0.180725	
-0.184998	
-0.190613	
-0.196167	
-0.202271	
-0.208008	
-0.210144	
-0.215637	
-0.220825	
-0.222961	
-0.225342	
-0.22345	
-0.206116	
-0.174438	
-0.13446	
-0.0910645	
-0.0517578	
-0.0179443	
0.00488281	
0.0206909	
0.0301514	
0.0344849	
0.0401001	
0.0455322	
0.0505371	
0.0535278	
0.0567627	
0.0567017	
0.0556641	
0.050415	
0.0408325	
0.0299683	
0.0179443	
0.00592041	
-0.00463867	
-0.0141602	
-0.0224609	
-0.0323486	
-0.0450439	
-0.0582275	
-0.0697632	
-0.0808105	
-0.0916748	
-0.10199	
-0.111755	
-0.121643	
-0.13031	
-0.139343	
-0.148743	
-0.158203	
-0.167297	
-0.174805	
-0.181091	
-0.188293	
-0.193604	
-0.19574	
-0.196472	
-0.198853	
-0.203491	
-0.207031	
-0.206665	
-0.209473	
-0.21106	
-0.216614	
-0.220703	
-0.223022	
-0.227234	
-0.231262	
-0.225464	
-0.200195	
-0.160767	
-0.113647	
-0.0679321	
-0.0286255	
0.00134277	
0.024292	
0.0395508	
0.048584	
0.0534668	
0.0571899	
0.0617676	
0.06604	
0.0687256	
0.0693359	
0.0650024	
0.05896	
0.0515137	
0.0428467	
0.0322266	
0.0213013	
0.0123291	
0.00183105	
-0.00817871	
-0.0175781	
-0.0252686	
-0.0317993	
-0.0390625	
-0.0476074	
-0.0601196	
-0.0734863	
-0.0864868	
-0.095459	
-0.103882	
-0.110779	
-0.118347	
-0.129578	
-0.138	
-0.146179	
-0.155457	
-0.163818	
-0.172424	
-0.180359	
-0.188782	
-0.19635	
-0.205566	
-0.213135	
-0.2146	
-0.216248	
-0.215942	
-0.219849	
-0.225952	
-0.231567	
-0.236267	
-0.241089	
-0.24292	
-0.243286	
-0.23761	
-0.218872	
-0.185547	
-0.141663	
-0.0982056	
-0.0594482	
-0.0285034	
-0.00518799	
0.00909424	
0.017395	
0.0250854	
0.0326538	
0.0385132	
0.043335	
0.0464478	
0.0476685	
0.0452271	
0.0421753	
0.0396118	
0.0358276	
0.0289917	
0.0202637	
0.0116577	
0.00708008	
0.000183105	
-0.00744629	
-0.0165405	
-0.0250854	
-0.032959	
-0.0424194	
-0.0523682	
-0.0606079	
-0.0702515	
-0.0803223	
-0.0905762	
-0.101563	
-0.113525	
-0.124939	
-0.135132	
-0.140991	
-0.145264	
-0.150391	
-0.154663	
-0.159424	
-0.164978	
-0.172668	
-0.18103	
-0.190979	
-0.200073	
-0.205383	
-0.207764	
-0.211243	
-0.215088	
-0.219421	
-0.220398	
-0.216248	
-0.197754	
-0.166382	
-0.128723	
-0.086792	
-0.0484009	
-0.0175781	
0.00494385	
0.0198975	
0.0281372	
0.0350952	
0.043335	
0.0498047	
0.0524902	
0.0527344	
0.052063	
0.0484009	
0.0440674	
0.0383301	
0.0314331	
0.0241089	
0.0150146	
0.00793457	
0.00439453	
-0.00219727	
-0.0105591	
-0.0211182	
-0.03302	
-0.0432129	
-0.0531006	
-0.0628662	
-0.0712891	
-0.0797729	
-0.0877075	
-0.10083	
-0.110596	
-0.120911	
-0.132996	
-0.144592	
-0.153259	
-0.160095	
-0.164551	
-0.167114	
-0.17157	
-0.177612	
-0.18396	
-0.189148	
-0.192017	
-0.196045	
-0.201233	
-0.206421	
-0.212402	
-0.214661	
-0.206421	
-0.183472	
-0.146606	
-0.104065	
-0.0608521	
-0.0235596	
0.00537109	
0.0263672	
0.0394897	
0.0484009	
0.0556641	
0.0621338	
0.0684814	
0.0753784	
0.0808716	
0.0830078	
0.0819702	
0.0768433	
0.0671997	
0.0586548	
0.0495605	
0.038208	
0.0272827	
0.0186768	
0.00927734	
-0.00115967	
-0.00878906	
-0.0168457	
-0.0262451	
-0.0377808	
-0.0479736	
-0.0599976	
-0.071106	
-0.0808716	
-0.0905151	
-0.100952	
-0.112671	
-0.123779	
-0.134216	
-0.143127	
-0.151917	
-0.159485	
-0.169373	
-0.177917	
-0.185913	
-0.193542	
-0.199097	
-0.206421	
-0.216125	
-0.220825	
-0.223572	
-0.222412	
-0.223572	
-0.227234	
-0.232727	
-0.235657	
-0.232727	
-0.212891	
-0.177795	
-0.137024	
-0.097229	
-0.0618896	
-0.032959	
-0.0120239	
0.00317383	
0.0127563	
0.0197754	
0.0252075	
0.0302734	
0.038269	
0.0460205	
0.0494995	
0.0506592	
0.0476685	
0.0406494	
0.0296631	
0.0194702	
0.0101318	
0.00134277	
-0.00732422	
-0.0170898	
-0.0263672	
-0.032959	
-0.0429688	
-0.0563965	
-0.0693359	
-0.083252	
-0.09375	
-0.101807	
-0.107422	
-0.114441	
-0.123779	
-0.13031	
-0.136719	
-0.142578	
-0.149292	
-0.157654	
-0.162415	
-0.1651	
-0.171448	
-0.17926	
-0.186462	
-0.1922	
-0.196655	
-0.20105	
-0.20636	
-0.212463	
-0.218994	
-0.227112	
-0.233765	
-0.241211	
-0.245972	
-0.249084	
-0.248962	
-0.242249	
-0.218384	
-0.184753	
-0.14502	
-0.103455	
-0.0678101	
-0.039978	
-0.0205688	
-0.00665283	
0.00360107	
0.00958252	
0.00842285	
0.0055542	
0.0032959	
0.00396729	
0.00598145	
0.00476074	
0.00164795	
-0.00421143	
-0.0143433	
-0.022644	
-0.0287476	
-0.0365601	
-0.0422363	
-0.0473633	
-0.0523071	
-0.0551758	
-0.0557861	
-0.0593872	
-0.0664063	
-0.0744629	
-0.0839844	
-0.0935669	
-0.101807	
-0.10968	
-0.11615	
-0.12384	
-0.131042	
-0.140503	
-0.147705	
-0.15332	
-0.158203	
-0.160767	
-0.162964	
-0.166931	
-0.173218	
-0.183167	
-0.188293	
-0.191223	
-0.195007	
-0.200439	
-0.204651	
-0.206909	
-0.209839	
-0.212646	
-0.218445	
-0.224915	
-0.223083	
-0.205139	
-0.174255	
-0.133667	
-0.09375	
-0.0559692	
-0.0268555	
-0.00671387	
0.00561523	
0.0140381	
0.0198364	
0.022522	
0.0261841	
0.0321045	
0.0387573	
0.0430298	
0.0438843	
0.041748	
0.0368042	
0.0310059	
0.0245972	
0.0167236	
0.00860596	
-0.0022583	
-0.0126343	
-0.0210571	
-0.0310669	
-0.0410767	
-0.0499268	
-0.0584106	
-0.0671387	
-0.0762329	
-0.085083	
-0.0922241	
-0.101868	
-0.110779	
-0.118591	
-0.123596	
-0.127502	
-0.136719	
-0.145569	
-0.156189	
-0.164917	
-0.171509	
-0.17981	
-0.18988	
-0.198303	
-0.205139	
-0.2099	
-0.215698	
-0.220337	
-0.223389	
-0.227783	
-0.232117	
-0.234253	
-0.235779	
-0.237671	
-0.24054	
-0.244324	
-0.246033	
-0.24353	
-0.231995	
-0.205811	
-0.166992	
-0.121033	
-0.0784302	
-0.0464478	
-0.0223999	
-0.00592041	
0.00457764	
0.0139771	
0.0203247	
0.0253906	
0.0310059	
0.0345459	
0.0371704	
0.0368652	
0.0332642	
0.0253296	
0.0200806	
0.0122681	
0.00683594	
0.00189209	
-0.00152588	
-0.00585938	
-0.0111084	
-0.0202026	
-0.0291138	
-0.0389404	
-0.0490723	
-0.0592651	
-0.0682373	
-0.0790405	
-0.0889282	
-0.0976563	
-0.107361	
-0.117126	
-0.126038	
-0.134277	
-0.141846	
-0.147522	
-0.152283	
-0.156738	
-0.163696	
-0.170654	
-0.175537	
-0.17981	
-0.187256	
-0.196411	
-0.203064	
-0.20697	
-0.209961	
-0.214844	
-0.217773	
-0.222412	
-0.230225	
-0.236877	
-0.241577	
-0.246094	
-0.249084	
-0.251221	
-0.243958	
-0.221619	
-0.186646	
-0.145508	
-0.103455	
-0.0656128	
-0.0357056	
-0.0164185	
-0.00482178	
0.00463867	
0.0109253	
0.0168457	
0.0228882	
0.026123	
0.0262451	
0.0245361	
0.020813	
0.0189819	
0.0183716	
0.0146484	
0.00756836	
0.000183105	
-0.00109863	
-0.0055542	
-0.0130005	
-0.0220337	
-0.0324097	
-0.0405273	
-0.0467529	
-0.0557251	
-0.0664063	
-0.0768433	
-0.0865479	
-0.0976563	
-0.108704	
-0.120605	
-0.129639	
-0.137268	
-0.145691	
-0.153015	
-0.160522	
-0.168701	
-0.175903	
-0.179321	
-0.180969	
-0.184753	
-0.18866	
-0.193481	
-0.196045	
-0.200684	
-0.207947	
-0.213684	
-0.214111	
-0.212341	
-0.213867	
-0.214478	
-0.210876	
-0.19458	
-0.166504	
-0.128296	
-0.0856323	
-0.0459595	
-0.0166626	
0.00415039	
0.0169678	
0.0264893	
0.034668	
0.0379028	
0.0405273	
0.0447998	
0.0493164	
0.0505371	
0.048645	
0.0462036	
0.0405273	
0.0358887	
0.0317993	
0.0256958	
0.0178223	
0.00958252	
-0.000610352	
-0.010498	
-0.0236816	
-0.0321655	
-0.0379639	
-0.0449829	
-0.0536499	
-0.064209	
-0.0755005	
-0.0859985	
-0.098877	
-0.110657	
-0.120972	
-0.129639	
-0.133179	
-0.137939	
-0.144958	
-0.151306	
-0.159058	
-0.165588	
-0.170532	
-0.178772	
-0.184448	
-0.184998	
-0.185547	
-0.188293	
-0.19342	
-0.197327	
-0.201843	
-0.20343	
-0.203918	
-0.206421	
-0.210449	
-0.206787	
-0.187134	
-0.155762	
-0.118286	
-0.0802612	
-0.0494995	
-0.0256348	
-0.00726318	
0.00579834	
0.015686	
0.0222168	
0.0282593	
0.0317383	
0.0361938	
0.0415039	
0.0459595	
0.0472412	
0.0446167	
0.0379028	
0.02948	
0.0214844	
0.0130615	
0.0045166	
-0.00140381	
-0.00756836	
-0.0133057	
-0.022644	
-0.0318604	
-0.0415649	
-0.0497437	
-0.055542	
-0.0599365	
-0.0686646	
-0.0805054	
-0.0925903	
-0.102417	
-0.112305	
-0.124451	
-0.132324	
-0.137268	
-0.143921	
-0.150208	
-0.152771	
-0.158508	
-0.162903	
-0.166565	
-0.174072	
-0.179504	
-0.184448	
-0.190247	
-0.193909	
-0.197327	
-0.199524	
-0.203735	
-0.207214	
-0.2099	
-0.208923	
-0.195984	
-0.164307	
-0.125854	
-0.0857544	
-0.0495605	
-0.0211182	
-0.00195313	
0.0111084	
0.0219116	
0.0280151	
0.0307007	
0.0336304	
0.0356445	
0.0362549	
0.0371094	
0.0341187	
0.0303955	
0.0264893	
0.0189209	
0.0130615	
0.00817871	
0.00445557	
0.00109863	
-0.00164795	
-0.00457764	
-0.00958252	
-0.0172119	
-0.0245361	
-0.0341187	
-0.0429688	
-0.0523682	
-0.0643921	
-0.0776367	
-0.0894165	
-0.0996094	
-0.108704	
-0.116821	
-0.12561	
-0.133118	
-0.141968	
-0.149048	
-0.154846	
-0.161438	
-0.166382	
-0.170837	
-0.174805	
-0.179993	
-0.188049	
-0.192566	
-0.192444	
-0.178589	
-0.1521	
-0.112	
-0.0697632	
-0.0308228	
0.00183105	
0.0290527	
0.0496216	
0.062439	
0.0716553	
0.078186	
0.0846558	
0.0883789	
0.0916138	
0.0947876	
0.0942383	
0.0907593	
0.0841064	
0.0731201	
0.0610962	
0.0490723	
0.0397339	
0.0289307	
0.0181274	
0.00695801	
-0.00256348	
-0.0129395	
-0.0235596	
-0.0319824	
-0.0431519	
-0.0567627	
-0.0720215	
-0.0841675	
-0.0942993	
-0.101563	
-0.110535	
-0.119141	
-0.131409	
-0.144104	
-0.155029	
-0.163025	
-0.168945	
-0.174988	
-0.180237	
-0.186829	
-0.194519	
-0.199158	
-0.203796	
-0.208374	
-0.211182	
-0.214783	
-0.221313	
-0.225403	
-0.227295	
-0.217224	
-0.188538	
-0.14801	
-0.105652	
-0.0640259	
-0.0314941	
-0.00726318	
0.0115967	
0.0240479	
0.0335693	
0.0413208	
0.0448608	
0.0485229	
0.0523682	
0.0529785	
0.0541992	
0.0550537	
0.0513916	
0.0441895	
0.0354004	
0.0227051	
0.00921631	
-0.00415039	
-0.0158081	
-0.0249023	
-0.0314941	
-0.039978	
-0.0489502	
-0.0606079	
-0.0722656	
-0.0837402	
-0.0979004	
-0.111145	
-0.123291	
-0.13147	
-0.140076	
-0.149475	
-0.157227	
-0.164185	
-0.174805	
-0.184631	
-0.191345	
-0.195068	
-0.201599	
-0.209656	
-0.21698	
-0.223145	
-0.228882	
-0.231934	
-0.236206	
-0.241577	
-0.24585	
-0.25116	
-0.255737	
-0.26001	
-0.261353	
-0.261536	
-0.262695	
-0.256226	
-0.239136	
-0.206299	
-0.16748	
-0.125854	
-0.0875854	
-0.0587769	
-0.0370483	
-0.0229492	
-0.0153809	
-0.0102539	
-0.00531006	
0.000671387	
0.00738525	
0.0101318	
0.0119629	
0.0107422	
0.00939941	
0.00671387	
0.00305176	
-0.000549316	
-0.00408936	
-0.0105591	
-0.0184937	
-0.0264893	
-0.0365601	
-0.0444336	
-0.0526123	
-0.0627441	
-0.0744629	
-0.0873413	
-0.0991821	
-0.108215	
-0.116211	
-0.126587	
-0.137573	
-0.148193	
-0.157593	
-0.165771	
-0.174744	
-0.183044	
-0.190613	
-0.198669	
-0.205017	
-0.20874	
-0.211975	
-0.216858	
-0.220642	
-0.224304	
-0.22644	
-0.230835	
-0.234253	
-0.237732	
-0.241394	
-0.244019	
-0.242798	
-0.232422	
-0.20929	
-0.17157	
-0.130005	
-0.0918579	
-0.0584717	
-0.0352173	
-0.0189209	
-0.00732422	
0.00183105	
0.00836182	
0.0147095	
0.022583	
0.0317993	
0.0380249	
0.043457	
0.0458374	
0.0443115	
0.0366211	
0.0279541	
0.0183105	
0.00909424	
6.10352E-05	
-0.0090332	
-0.0187988	
-0.0274658	
-0.0332031	
-0.0368042	
-0.0448608	
-0.0553589	
-0.0662842	
-0.0776978	
-0.0871582	
-0.0982056	
-0.106995	
-0.116394	
-0.12738	
-0.137085	
-0.147949	
-0.159912	
-0.169373	
-0.177612	
-0.185852	
-0.193237	
-0.19989	
-0.204651	
-0.20929	
-0.215515	
-0.222229	
-0.224792	
-0.227173	
-0.233154	
-0.240601	
-0.247498	
-0.252686	
-0.253357	
-0.252197	
-0.253113	
-0.256104	
-0.259338	
-0.258362	
-0.249817	
-0.228577	
-0.196899	
-0.157654	
-0.115967	
-0.0776367	
-0.0458984	
-0.0223389	
-0.00628662	
0.00341797	
0.00939941	
0.0128174	
0.0139771	
0.0154419	
0.0216064	
0.0263672	
0.0253906	
0.0198975	
0.0132446	
0.00488281	
-0.000671387	
-0.00500488	
-0.00836182	
-0.0120239	
-0.0177002	
-0.0241699	
-0.0308838	
-0.0371094	
-0.0441895	
-0.0490112	
-0.0574341	
-0.0668335	
-0.0768433	
-0.0869141	
-0.0960693	
-0.105774	
-0.116577	
-0.123962	
-0.130676	
-0.136292	
-0.140137	
-0.146179	
-0.155457	
-0.162109	
-0.167053	
-0.173157	
-0.182068	
-0.190369	
-0.196594	
-0.200806	
-0.20282	
-0.20813	
-0.211426	
-0.21283	
-0.21582	
-0.216003	
-0.208923	
-0.187012	
-0.15155	
-0.111572	
-0.0732422	
-0.0404053	
-0.0171509	
-6.10352E-05	
0.0131836	
0.0219727	
0.0283203	
0.03479	
0.0418701	
0.0490723	
0.0559082	
0.0588989	
0.0570068	
0.0529175	
0.0485229	
0.0440063	
0.0394897	
0.0316162	
0.0216064	
0.0142822	
0.00689697	
0.00128174	
-0.00830078	
-0.0187988	
-0.0272827	
-0.0368042	
-0.0500488	
-0.0615845	
-0.0713501	
-0.0811157	
-0.0913696	
-0.100769	
-0.107666	
-0.117554	
-0.127563	
-0.136902	
-0.145813	
-0.155457	
-0.162537	
-0.167786	
-0.173645	
-0.181213	
-0.188171	
-0.194519	
-0.199585	
-0.203064	
-0.204712	
-0.207153	
-0.212524	
-0.218567	
-0.222351	
-0.225281	
-0.227417	
-0.226807	
-0.215881	
-0.191345	
-0.151367	
-0.106445	
-0.0643311	
-0.0281372	
-0.00183105	
0.0147705	
0.0255127	
0.0324097	
0.0376587	
0.0447388	
0.0505981	
0.0566406	
0.0625	
0.0645752	
0.0646973	
0.0614624	
0.0561523	
0.0484009	
0.0400391	
0.0303345	
0.0195313	
0.0101929	
0.000976563	
-0.00640869	
-0.0127563	
-0.0179443	
-0.0257568	
-0.0366211	
-0.0479126	
-0.0594482	
-0.0717163	
-0.0837402	
-0.0950928	
-0.107361	
-0.117798	
-0.124695	
-0.132813	
-0.142151	
-0.149902	
-0.156677	
-0.162903	
-0.168762	
-0.174011	
-0.180603	
-0.187805	
-0.193542	
-0.198303	
-0.203308	
-0.208252	
-0.213013	
-0.21814	
-0.218872	
-0.208435	
-0.181091	
-0.142029	
-0.0986938	
-0.0605469	
-0.0300293	
-0.00598145	
0.00793457	
0.017395	
0.0255127	
0.0306396	
0.0337524	
0.0338135	
0.0350342	
0.0354004	
0.0342407	
0.0300293	
0.0251465	
0.0182495	
0.0126953	
0.00463867	
-0.00177002	
-0.0065918	
-0.0124512	
-0.017395	
-0.0239868	
-0.0336304	
-0.0446777	
-0.0581665	
-0.0716553	
-0.0834351	
-0.0949097	
-0.103882	
-0.111328	
-0.116394	
-0.122803	
-0.128235	
-0.133728	
-0.140381	
-0.148376	
-0.156006	
-0.163147	
-0.169983	
-0.174988	
-0.178955	
-0.18457	
-0.190186	
-0.197449	
-0.206482	
-0.216431	
-0.224976	
-0.231567	
-0.232788	
-0.222229	
-0.197021	
-0.160522	
-0.123657	
-0.0882568	
-0.0599365	
-0.0391235	
-0.0235596	
-0.0134888	
-0.00665283	
-0.00292969	
-0.0012207	
0.000244141	
0.0043335	
0.00946045	
0.0151367	
0.0148926	
0.0108032	
0.00262451	
-0.0065918	
-0.0145874	
-0.0230713	
-0.0304565	
-0.0388184	
-0.0465088	
-0.0527954	
-0.0553589	
-0.0581665	
-0.062561	
-0.0696411	
-0.0795288	
-0.0903931	
-0.0969849	
-0.104675	
-0.117859	
-0.129211	
-0.135376	
-0.142029	
-0.149841	
-0.160461	
-0.167419	
-0.173889	
-0.181458	
-0.188354	
-0.194824	
-0.198364	
-0.201782	
-0.205872	
-0.205994	
-0.207642	
-0.20813	
-0.210083	
-0.213318	
-0.215515	
-0.216919	
-0.221252	
-0.226746	
-0.226685	
-0.214478	
-0.185974	
-0.148865	
-0.110657	
-0.0759888	
-0.0536499	
-0.0376587	
-0.0288086	
-0.0248413	
-0.0195923	
-0.0142822	
-0.0131226	
-0.00958252	
-0.00616455	
-0.00415039	
-0.00518799	
-0.00976563	
-0.0145264	
-0.0217896	
-0.0267334	
-0.0335693	
-0.0383301	
-0.0396118	
-0.0441895	
-0.0495605	
-0.0559082	
-0.0621338	
-0.0680542	
-0.0734863	
-0.0782471	
-0.086792	
-0.0950317	
-0.101624	
-0.109619	
-0.117249	
-0.122925	
-0.128967	
-0.134644	
-0.138062	
-0.142944	
-0.147217	
-0.153076	
-0.156982	
-0.160278	
-0.163513	
-0.166748	
-0.172058	
-0.178467	
-0.182861	
-0.187012	
-0.193604	
-0.202026	
-0.208191	
-0.208252	
-0.194153	
-0.164795	
-0.128296	
-0.0930176	
-0.0646362	
-0.0446777	
-0.031189	
-0.0233765	
-0.0178833	
-0.012207	
-0.00604248	
-0.00146484	
0.00402832	
0.00842285	
0.00952148	
0.00744629	
0.00109863	
-0.00592041	
-0.0120239	
-0.0167847	
-0.020874	
-0.0233765	
-0.0274048	
-0.0334473	
-0.043457	
-0.0545654	
-0.0664673	
-0.0739746	
-0.081665	
-0.0924683	
-0.0996704	
-0.106873	
-0.112671	
-0.116272	
-0.123108	
-0.128662	
-0.131836	
-0.13739	
-0.140076	
-0.145325	
-0.150513	
-0.154907	
-0.163696	
-0.171021	
-0.175293	
-0.180176	
-0.184326	
-0.18811	
-0.194397	
-0.198853	
-0.202271	
-0.206299	
-0.210754	
-0.214722	
-0.216431	
-0.217407	
-0.214355	
-0.202393	
-0.17688	
-0.140808	
-0.106812	
-0.0787964	
-0.0571289	
-0.041626	
-0.0303345	
-0.0244141	
-0.020813	
-0.0164185	
-0.0102539	
-0.00421143	
0.00134277	
0.00720215	
0.0117188	
0.0123901	
0.00964355	
0.00274658	
-0.00219727	
-0.00646973	
-0.00915527	
-0.0136108	
-0.0194702	
-0.0264893	
-0.0330811	
-0.0410767	
-0.0511475	
-0.0602417	
-0.0689087	
-0.0759888	
-0.0822144	
-0.0891724	
-0.0975342	
-0.102661	
-0.109314	
-0.11554	
-0.120972	
-0.126709	
-0.129089	
-0.128906	
-0.133484	
-0.13916	
-0.144958	
-0.151428	
-0.156555	
-0.161377	
-0.168213	
-0.174561	
-0.17865	
-0.183716	
-0.189026	
-0.19458	
-0.198181	
-0.199646	
-0.200073	
-0.200745	
-0.205261	
-0.208252	
-0.204773	
-0.190308	
-0.163879	
-0.133911	
-0.0980225	
-0.0662842	
-0.0438232	
-0.0298462	
-0.0202637	
-0.0125732	
-0.00897217	
-0.00683594	
-0.00335693	
0.0012207	
0.0065918	
0.00836182	
0.00732422	
0.00305176	
-0.00231934	
-0.00744629	
-0.0126953	
-0.0162354	
-0.0199585	
-0.0255737	
-0.0297241	
-0.0333862	
-0.0386353	
-0.045166	
-0.0525513	
-0.0587769	
-0.0658569	
-0.0720215	
-0.0812378	
-0.090271	
-0.0982056	
-0.104126	
-0.108887	
-0.116028	
-0.125305	
-0.131042	
-0.134827	
-0.139221	
-0.143555	
-0.148865	
-0.153137	
-0.156799	
-0.160706	
-0.163757	
-0.16571	
-0.167664	
-0.17041	
-0.17511	
-0.180298	
-0.185974	
-0.189026	
-0.19519	
-0.199646	
-0.202209	
-0.205017	
-0.203674	
-0.202332	
-0.201782	
-0.195618	
-0.176514	
-0.144531	
-0.110779	
-0.081604	
-0.0544434	
-0.0351563	
-0.0261841	
-0.0223389	
-0.0174561	
-0.015625	
-0.0142822	
-0.00958252	
-0.0045166	
-0.00140381	
-0.00177002	
-0.00305176	
-0.00457764	
-0.00744629	
-0.00878906	
-0.010437	
-0.0170288	
-0.0213623	
-0.0250854	
-0.0272827	
-0.0315552	
-0.0366821	
-0.0394287	
-0.0449829	
-0.0558472	
-0.0644531	
-0.0723267	
-0.0786133	
-0.0846558	
-0.0900879	
-0.09552	
-0.102844	
-0.109253	
-0.114807	
-0.120728	
-0.12738	
-0.132751	
-0.136841	
-0.139648	
-0.143127	
-0.144531	
-0.147217	
-0.151184	
-0.155273	
-0.158142	
-0.162598	
-0.169861	
-0.178528	
-0.186401	
-0.190674	
-0.190857	
-0.177917	
-0.148987	
-0.114563	
-0.0800171	
-0.0438843	
-0.013855	
0.00415039	
0.0159302	
0.0222168	
0.0270996	
0.03125	
0.0320435	
0.0346069	
0.0369873	
0.0395508	
0.0407715	
0.0413208	
0.0342407	
0.0286865	
0.0252075	
0.0202026	
0.0140991	
0.00567627	
-0.00354004	
-0.0115967	
-0.0187378	
-0.0257568	
-0.0361328	
-0.0477295	
-0.0566406	
-0.0672607	
-0.0753174	
-0.0814819	
-0.0901489	
-0.0987549	
-0.106873	
-0.112793	
-0.121033	
-0.128052	
-0.135498	
-0.143738	
-0.149902	
-0.154907	
-0.159973	
-0.164734	
-0.170532	
-0.174316	
-0.178284	
-0.183289	
-0.18689	
-0.191162	
-0.195374	
-0.199219	
-0.201355	
-0.20459	
-0.205566	
-0.208313	
-0.210999	
-0.213135	
-0.206665	
-0.186218	
-0.154114	
-0.11676	
-0.0773926	
-0.0447388	
-0.0179443	
0.00634766	
0.024353	
0.0337524	
0.0378418	
0.0415649	
0.0437622	
0.0487671	
0.0527344	
0.0563354	
0.0565186	
0.0564575	
0.0534058	
0.0505981	
0.0478516	
0.0463257	
0.0413208	
0.0353394	
0.0292358	
0.0211792	
0.0114746	
0.00396729	
-0.0043335	
-0.0137939	
-0.0256958	
-0.0363159	
-0.0467529	
-0.057251	
-0.0654907	
-0.0737305	
-0.0792847	
-0.0844116	
-0.0881348	
-0.0951538	
-0.101074	
-0.105347	
-0.109558	
-0.116333	
-0.124817	
-0.134155	
-0.144409	
-0.152588	
-0.157776	
-0.160706	
-0.161316	
-0.158264	
-0.155457	
-0.150879	
-0.145874	
-0.135681	
-0.114807	
-0.078125	
-0.0289917	
0.0286865	
0.0891113	
0.149353	
0.206665	
0.258484	
0.303162	
0.342896	
0.381226	
0.417542	
0.44873	
0.47467	
0.498047	
0.516052	
0.528198	
0.532898	
0.536621	
0.536133	
0.533691	
0.529541	
0.522095	
0.511841	
0.499634	
0.487671	
0.472046	
0.449036	
0.427185	
0.405396	
0.384949	
0.367615	
0.352173	
0.336853	
0.320313	
0.301331	
0.282715	
0.266968	
0.251587	
0.236694	
0.220154	
0.208191	
0.198792	
0.192932	
0.185913	
0.180603	
0.175415	
0.168091	
0.154236	
0.136047	
0.119385	
0.101074	
0.0852661	
0.0733643	
0.0612793	
0.0527954	
0.0465698	
0.0476685	
0.0596313	
0.074585	
0.0891113	
0.100098	
0.103394	
0.09552	
0.0863037	
0.0863647	
0.0985107	
0.116333	
0.12616	
0.1203	
0.09198	
0.0440063	
-0.0175781	
-0.0923462	
-0.174438	
-0.247986	
-0.3078	
-0.355896	
-0.390198	
-0.409485	
-0.418213	
-0.420532	
-0.423645	
-0.42157	
-0.415527	
-0.407043	
-0.401123	
-0.394775	
-0.391113	
-0.387146	
-0.381653	
-0.375732	
-0.370056	
-0.36731	
-0.367493	
-0.372314	
-0.380798	
-0.391602	
-0.400696	
-0.412415	
-0.423828	
-0.431519	
-0.433105	
-0.429688	
-0.421936	
-0.414917	
-0.409424	
-0.405151	
-0.406006	
-0.407471	
-0.412415	
-0.417725	
-0.420898	
-0.421753	
-0.425232	
-0.429138	
-0.431213	
-0.430481	
-0.424438	
-0.406128	
-0.374634	
-0.332275	
-0.285095	
-0.237854	
-0.194458	
-0.162598	
-0.141418	
-0.12561	
-0.116577	
-0.1073	
-0.0984497	
-0.0911255	
-0.0811768	
-0.0737305	
-0.0673828	
-0.0654907	
-0.0695801	
-0.0755615	
-0.081604	
-0.0909424	
-0.0994263	
-0.105469	
-0.112671	
-0.121399	
-0.129089	
-0.132751	
-0.136292	
-0.140015	
-0.145508	
-0.153381	
-0.160217	
-0.169495	
-0.179016	
-0.1875	
-0.193909	
-0.19873	
-0.206604	
-0.217834	
-0.22821	
-0.235718	
-0.244385	
-0.251526	
-0.255615	
-0.258789	
-0.258728	
-0.25946	
-0.26123	
-0.264893	
-0.270874	
-0.276123	
-0.278015	
-0.280273	
-0.281738	
-0.287781	
-0.292236	
-0.294067	
-0.297119	
-0.300903	
-0.302368	
-0.302734	
-0.304932	
-0.305176	
-0.301025	
-0.28833	
-0.263611	
-0.228577	
-0.185913	
-0.139282	
-0.0994873	
-0.0690308	
-0.0499878	
-0.0385132	
-0.0286255	
-0.0220337	
-0.0183716	
-0.0136719	
-0.0117188	
-0.00872803	
-0.00921631	
-0.00714111	
-0.00848389	
-0.0143433	
-0.0199585	
-0.0249023	
-0.0282593	
-0.0319824	
-0.0376587	
-0.0424805	
-0.0488281	
-0.0565796	
-0.0650024	
-0.0742798	
-0.0822754	
-0.0897827	
-0.0991211	
-0.109863	
-0.119446	
-0.129395	
-0.137024	
-0.141602	
-0.147156	
-0.152039	
-0.157227	
-0.163208	
-0.170288	
-0.174011	
-0.180115	
-0.185913	
-0.188782	
-0.191895	
-0.196594	
-0.203796	
-0.212158	
-0.217896	
-0.223267	
-0.231079	
-0.240234	
-0.245544	
-0.249756	
-0.250061	
-0.237427	
-0.207886	
-0.172058	
-0.135315	
-0.0992432	
-0.0699463	
-0.0479736	
-0.031311	
-0.0217896	
-0.0166016	
-0.012085	
-0.00897217	
-0.00604248	
-0.0022583	
0.000976563	
-6.10352E-05	
-0.00531006	
-0.0098877	
-0.0153198	
-0.0177002	
-0.0221558	
-0.0255737	
-0.0332031	
-0.039856	
-0.0463867	
-0.0526733	
-0.0609741	
-0.0704346	
-0.0785522	
-0.0845947	
-0.0901489	
-0.0987549	
-0.104187	
-0.110596	
-0.117249	
-0.12738	
-0.136475	
-0.142212	
-0.146484	
-0.150635	
-0.155884	
-0.161682	
-0.168396	
-0.177429	
-0.186707	
-0.193604	
-0.198547	
-0.205078	
-0.211853	
-0.216492	
-0.223083	
-0.226929	
-0.229919	
-0.234436	
-0.23645	
-0.239685	
-0.245972	
-0.251282	
-0.251648	
-0.240173	
-0.210388	
-0.170227	
-0.125916	
-0.0881348	
-0.0568848	
-0.0322876	
-0.0178833	
-0.00732422	
-0.000427246	
0.00616455	
0.0127563	
0.0189209	
0.0229492	
0.0285034	
0.0316772	
0.0316162	
0.0272217	
0.0217285	
0.0186157	
0.0133057	
0.00775146	
0.00305176	
-0.00244141	
-0.00720215	
-0.0112305	
-0.0168457	
-0.0227051	
-0.0281982	
-0.034668	
-0.0441895	
-0.0552368	
-0.0665894	
-0.0755005	
-0.083313	
-0.0958862	
-0.107178	
-0.116089	
-0.125061	
-0.134033	
-0.142151	
-0.147888	
-0.153625	
-0.159973	
-0.165466	
-0.1698	
-0.174255	
-0.180664	
-0.183411	
-0.188477	
-0.194031	
-0.199524	
-0.204102	
-0.210693	
-0.213989	
-0.213318	
-0.215454	
-0.219971	
-0.223389	
-0.228027	
-0.229492	
-0.218933	
-0.192627	
-0.153381	
-0.111938	
-0.0728149	
-0.0444946	
-0.0220337	
-0.00653076	
0.00457764	
0.00994873	
0.0133057	
0.0184937	
0.024292	
0.027771	
0.0319824	
0.0343628	
0.0317993	
0.0280151	
0.0219116	
0.0169067	
0.0113525	
0.00299072	
-0.000671387	
-0.00299072	
-0.00817871	
-0.015686	
-0.0228271	
-0.0308228	
-0.0413818	
-0.0533447	
-0.0639648	
-0.0733643	
-0.0839233	
-0.093811	
-0.100647	
-0.105591	
-0.110596	
-0.115967	
-0.123718	
-0.130127	
-0.136902	
-0.141724	
-0.147034	
-0.156128	
-0.164612	
-0.174561	
-0.183533	
-0.19342	
-0.203552	
-0.214722	
-0.225586	
-0.235413	
-0.241394	
-0.24115	
-0.226196	
-0.196411	
-0.155884	
-0.115234	
-0.0795288	
-0.0494995	
-0.0240479	
-0.00604248	
0.00634766	
0.0148926	
0.0222778	
0.0293579	
0.0350342	
0.0405884	
0.0428467	
0.0394287	
0.0305176	
0.0230103	
0.0187988	
0.0145874	
0.0135498	
0.0130615	
0.0115356	
0.00756836	
0.000305176	
-0.0126953	
-0.0239868	
-0.0338135	
-0.0447998	
-0.0599365	
-0.0834351	
-0.115051	
-0.154541	
-0.202026	
-0.252502	
-0.301331	
-0.347412	
-0.391235	
-0.424744	
-0.451538	
-0.47522	
-0.493347	
-0.506714	
-0.518127	
-0.527527	
-0.536377	
-0.543091	
-0.548584	
-0.55365	
-0.558716	
-0.563049	
-0.563416	
-0.558838	
-0.54657	
-0.525452	
-0.500916	
-0.474792	
-0.451538	
-0.423584	
-0.388306	
-0.338745	
-0.275635	
-0.212585	
-0.158264	
-0.118042	
-0.0890503	
-0.0647583	
-0.0457153	
-0.0288086	
-0.0148926	
-0.00262451	
0.00939941	
0.0220337	
0.0376587	
0.0478516	
0.052063	
0.0509644	
0.0470581	
0.0414429	
0.0369873	
0.0292969	
0.0199585	
0.0119629	
0.00341797	
-0.0057373	
-0.0150146	
-0.0244751	
-0.0316772	
-0.0265503	
-0.0128784	
0.003479	
0.0194092	
0.0336304	
0.0484009	
0.0556641	
0.0617065	
0.0669556	
0.0756836	
0.088623	
0.0997314	
0.106628	
0.112122	
0.116333	
0.117432	
0.117371	
0.115356	
0.109619	
0.102051	
0.0936279	
0.085144	
0.0776367	
0.0707397	
0.0632324	
0.0565186	
0.0488281	
0.0455933	
0.043396	
0.0388184	
0.0317383	
0.0219727	
0.0164185	
0.00939941	
-0.000610352	
-0.00762939	
-0.00183105	
0.0213013	
0.0550537	
0.0911255	
0.125305	
0.150818	
0.166748	
0.173401	
0.173279	
0.169067	
0.163269	
0.154785	
0.150269	
0.148315	
0.144714	
0.137329	
0.127075	
0.117249	
0.106689	
0.0975342	
0.0895386	
0.083252	
0.0784912	
0.0734863	
0.0656738	
0.0552979	
0.0463257	
0.0385132	
0.0280762	
0.0192261	
0.0107422	
0	
-0.0119629	
-0.0258789	
-0.0406494	
-0.0519409	
-0.0601807	
-0.0685425	
-0.0742798	
-0.0786133	
-0.0860596	
-0.0938721	
-0.0997925	
-0.1073	
-0.114563	
-0.119812	
-0.125244	
-0.132202	
-0.136658	
-0.142883	
-0.150818	
-0.157227	
-0.161865	
-0.167236	
-0.172729	
-0.180481	
-0.186584	
-0.186707	
-0.175903	
-0.148315	
-0.111572	
-0.071167	
-0.0339966	
-0.00354004	
0.0162964	
0.0310669	
0.038147	
0.0413208	
0.0427246	
0.0428467	
0.0429077	
0.0407715	
0.0419312	
0.045166	
0.0452271	
0.0438232	
0.0379028	
0.0290527	
0.0223999	
0.0150146	
0.00567627	
-0.00567627	
-0.0141602	
-0.0238647	
-0.0332642	
-0.0403442	
-0.052063	
-0.0615234	
-0.0728149	
-0.0825195	
-0.0939331	
-0.10376	
-0.114075	
-0.125183	
-0.13678	
-0.14679	
-0.155151	
-0.163818	
-0.172791	
-0.178833	
-0.181641	
-0.184631	
-0.188965	
-0.193787	
-0.196045	
-0.197937	
-0.202087	
-0.207092	
-0.214417	
-0.222351	
-0.228088	
-0.232666	
-0.236572	
-0.239624	
-0.24353	
-0.245422	
-0.229919	
-0.195557	
-0.150513	
-0.104614	
-0.0657349	
-0.0346069	
-0.0155029	
-0.00256348	
0.00909424	
0.0167847	
0.0230103	
0.0281982	
0.0301514	
0.0325928	
0.0367432	
0.0405273	
0.0394897	
0.0354004	
0.0299072	
0.0194702	
0.00854492	
-0.00195313	
-0.0114136	
-0.0232544	
-0.0325928	
-0.0426025	
-0.052002	
-0.0609741	
-0.0714111	
-0.0786743	
-0.0831909	
-0.0908203	
-0.09729	
-0.105896	
-0.114868	
-0.12616	
-0.135071	
-0.143616	
-0.153076	
-0.163879	
-0.173218	
-0.183899	
-0.194641	
-0.205261	
-0.212158	
-0.21759	
-0.224182	
-0.229309	
-0.233582	
-0.238647	
-0.244751	
-0.249084	
-0.249146	
-0.251953	
-0.254456	
-0.254639	
-0.255554	
-0.257874	
-0.260681	
-0.26178	
-0.25	
-0.221863	
-0.182373	
-0.140442	
-0.103516	
-0.074707	
-0.0556641	
-0.0421143	
-0.0331421	
-0.0305176	
-0.0275269	
-0.022583	
-0.0177002	
-0.0148315	
-0.0141602	
-0.013916	
-0.0162354	
-0.0214844	
-0.0281982	
-0.038147	
-0.0465088	
-0.052002	
-0.055603	
-0.0606079	
-0.0651245	
-0.0675049	
-0.0690918	
-0.0749512	
-0.0830078	
-0.0913696	
-0.100769	
-0.109924	
-0.120544	
-0.130005	
-0.137939	
-0.145142	
-0.154419	
-0.160645	
-0.164856	
-0.170105	
-0.175842	
-0.177246	
-0.178223	
-0.180359	
-0.183411	
-0.185303	
-0.189575	
-0.194885	
-0.202026	
-0.208923	
-0.215637	
-0.219543	
-0.214478	
-0.194092	
-0.162231	
-0.127136	
-0.0950317	
-0.0693359	
-0.0507202	
-0.0363159	
-0.0272827	
-0.0252075	
-0.0255127	
-0.0228271	
-0.0178223	
-0.0145874	
-0.0130615	
-0.0146484	
-0.0196533	
-0.0256958	
-0.0343628	
-0.041687	
-0.0450439	
-0.0493164	
-0.0545044	
-0.0595093	
-0.0635986	
-0.0687256	
-0.0741577	
-0.0784912	
-0.0863647	
-0.0956421	
-0.102234	
-0.109741	
-0.117798	
-0.124329	
-0.129883	
-0.137085	
-0.145752	
-0.15033	
-0.156189	
-0.165588	
-0.174927	
-0.182556	
-0.187866	
-0.193481	
-0.198303	
-0.200867	
-0.203735	
-0.20752	
-0.213135	
-0.216736	
-0.218323	
-0.220886	
-0.222717	
-0.2229	
-0.218262	
-0.205261	
-0.182861	
-0.15094	
-0.116394	
-0.0862427	
