1.99225	
1.99219	
1.99219	
1.99219	
1.99219	
1.99219	
1.99219	
1.99219	
1.99219	
1.99219	
1.99219	
1.99219	
1.99219	
1.99219	
1.99219	
1.99219	
1.99219	
1.99219	
1.99219	
1.99219	
1.99219	
1.99219	
1.99219	
1.99219	
1.99219	
1.98279	
1.74127	
1.36182	
1.02905	
0.720215	
0.456726	
0.253601	
0.113281	
0.0162964	
-0.0604248	
-0.136292	
-0.22345	
-0.327637	
-0.448853	
-0.584351	
-0.7276	
-0.873474	
-1.02289	
-1.17554	
-1.3324	
-1.49524	
-1.66699	
-1.84119	
-1.98383	
-1.99329	
-1.992	
-1.992	
-1.992	
-1.992	
-1.992	
-1.99207	
-1.992	
-1.992	
-1.992	
-1.992	
-1.992	
-1.992	
-1.992	
-1.992	
-1.992	
-1.992	
-1.992	
-1.992	
-1.992	
-1.992	
-1.992	
-1.992	
-1.99207	
-1.99207	
-1.99207	
-1.99207	
-1.992	
-1.992	
-1.992	
-1.992	
-1.992	
-1.992	
-1.992	
-1.992	
-1.992	
-1.992	
-1.992	
-1.99207	
-1.992	
-1.99207	
-1.99207	
-1.99207	
-1.99207	
-1.992	
-1.992	
-1.992	
-1.992	
-1.992	
-1.992	
-1.992	
-1.992	
-1.99207	
-1.992	
-1.992	
-1.992	
-1.99207	
-1.992	
-1.992	
-1.992	
-1.992	
-1.992	
-1.992	
-1.992	
-1.992	
-1.992	
-1.99207	
-1.992	
-1.992	
-1.992	
-1.99207	
-1.992	
-1.992	
-1.992	
-1.992	
-1.992	
-1.992	
-1.992	
-1.992	
-1.99207	
-1.99207	
-1.992	
-1.99207	
-1.99207	
-1.99207	
-1.992	
-1.992	
-1.992	
-1.992	
-1.992	
-1.992	
-1.992	
-1.992	
-1.992	
-1.992	
-1.992	
-1.99207	
-1.992	
-1.992	
-1.992	
-1.992	
-1.992	
-1.992	
-1.992	
-1.992	
-1.992	
-1.99207	
-1.992	
-1.99207	
-1.992	
-1.992	
-1.992	
-1.992	
-1.992	
-1.992	
-1.992	
-1.979	
-1.87213	
-1.76776	
-1.69623	
-1.64301	
-1.60553	
-1.58051	
-1.56451	
-1.56207	
-1.57446	
-1.60114	
-1.63818	
-1.67841	
-1.71893	
-1.75482	
-1.7829	
-1.80548	
-1.82269	
-1.83716	
-1.85107	
-1.86371	
-1.87732	
-1.89246	
-1.90881	
-1.92542	
-1.9425	
-1.9599	
-1.97632	
-1.9906	
-1.99225	
-1.992	
-1.99207	
-1.99207	
-1.992	
-1.992	
-1.992	
-1.992	
-1.992	
-1.992	
-1.992	
-1.992	
-1.992	
-1.992	
-1.99207	
-1.99207	
-1.992	
-1.99207	
-1.99207	
-1.99207	
-1.992	
-1.992	
-1.99188	
-1.98517	
-1.97235	
-1.9588	
-1.94696	
-1.92767	
-1.88708	
-1.80383	
-1.67218	
-1.50769	
-1.33209	
-1.1673	
-1.02484	
-0.910339	
-0.825134	
-0.765442	
-0.72467	
-0.697937	
-0.681702	
-0.676453	
-0.682495	
-0.703064	
-0.738281	
-0.780884	
-0.827209	
-0.870911	
-0.9104	
-0.944397	
-0.972534	
-0.998474	
-1.02155	
-1.04321	
-1.06409	
-1.08643	
-1.10895	
-1.1322	
-1.15668	
-1.18231	
-1.20599	
-1.22729	
-1.24811	
-1.26703	
-1.28204	
-1.29596	
-1.30829	
-1.3186	
-1.32886	
-1.33673	
-1.3432	
-1.34772	
-1.35144	
-1.35565	
-1.35962	
-1.36206	
-1.36285	
-1.36426	
-1.36633	
-1.36755	
-1.36816	
-1.36652	
-1.36334	
-1.35901	
-1.35345	
-1.34802	
-1.34204	
-1.33575	
-1.32709	
-1.31793	
-1.30945	
-1.30176	
-1.28772	
-1.25348	
-1.1745	
-1.04413	
-0.879639	
-0.703369	
-0.535156	
-0.387939	
-0.268066	
-0.176392	
-0.110779	
-0.0669556	
-0.0421143	
-0.0285034	
-0.0248413	
-0.0344238	
-0.0592041	
-0.0971069	
-0.145264	
-0.196533	
-0.250793	
-0.302795	
-0.348877	
-0.386719	
-0.418823	
-0.44928	
-0.476807	
-0.506287	
-0.536926	
-0.570923	
-0.603271	
-0.633789	
-0.662537	
-0.688965	
-0.715393	
-0.741211	
-0.765625	
-0.786133	
-0.805115	
-0.823364	
-0.838745	
-0.852722	
-0.864502	
-0.876099	
-0.886353	
-0.895935	
-0.905579	
-0.913696	
-0.920959	
-0.927612	
-0.932983	
-0.936951	
-0.941833	
-0.945984	
-0.94989	
-0.952332	
-0.954285	
-0.953491	
-0.949646	
-0.94635	
-0.941467	
-0.935364	
-0.931763	
-0.926147	
-0.920349	
-0.911621	
-0.880371	
-0.803894	
-0.67865	
-0.518982	
-0.347473	
-0.183838	
-0.0410156	
0.0727539	
0.155701	
0.211487	
0.247742	
0.268066	
0.274109	
0.269348	
0.252625	
0.222534	
0.181335	
0.130249	
0.0735474	
0.0144653	
-0.0401611	
-0.0863647	
-0.126953	
-0.16217	
-0.197754	
-0.232727	
-0.26709	
-0.300415	
-0.331482	
-0.363281	
-0.395874	
-0.428101	
-0.459473	
-0.488403	
-0.515381	
-0.540344	
-0.563354	
-0.584778	
-0.605347	
-0.622375	
-0.637939	
-0.651245	
-0.662598	
-0.672424	
-0.680664	
-0.688477	
-0.696838	
-0.705444	
-0.71344	
-0.719177	
-0.723145	
-0.727417	
-0.732361	
-0.736023	
-0.737976	
-0.739685	
-0.740356	
-0.740784	
-0.741028	
-0.740173	
-0.737793	
-0.734863	
-0.731079	
-0.723389	
-0.700195	
-0.643188	
-0.535461	
-0.387329	
-0.219299	
-0.0552368	
0.0879517	
0.202881	
0.289856	
0.347351	
0.38324	
0.405212	
0.416016	
0.4151	
0.401733	
0.375977	
0.334839	
0.282349	
0.224243	
0.165833	
0.111877	
0.0645142	
0.0216064	
-0.0150146	
-0.050293	
-0.0829468	
-0.113464	
-0.146423	
-0.179871	
-0.211975	
-0.244568	
-0.277527	
-0.309998	
-0.340393	
-0.370056	
-0.396179	
-0.419678	
-0.44165	
-0.461914	
-0.482239	
-0.498962	
-0.513733	
-0.528564	
-0.542175	
-0.553772	
-0.565491	
-0.576416	
-0.583557	
-0.588257	
-0.594543	
-0.599609	
-0.604614	
-0.610901	
-0.615356	
-0.61731	
-0.617859	
-0.61792	
-0.617676	
-0.617554	
-0.618469	
-0.617249	
-0.61499	
-0.612488	
-0.603333	
-0.567078	
-0.484314	
-0.356506	
-0.200012	
-0.0370483	
0.114502	
0.24408	
0.342651	
0.41272	
0.458557	
0.487488	
0.500244	
0.502075	
0.493835	
0.471863	
0.436523	
0.387939	
0.329346	
0.267639	
0.21106	
0.158691	
0.110962	
0.0702515	
0.0344238	
0.00115967	
-0.031189	
-0.0648804	
-0.098938	
-0.13385	
-0.169312	
-0.205017	
-0.237915	
-0.270386	
-0.299988	
-0.328979	
-0.355896	
-0.382874	
-0.406982	
-0.42804	
-0.446045	
-0.462646	
-0.474792	
-0.486145	
-0.497925	
-0.506714	
-0.515381	
-0.524231	
-0.532471	
-0.540649	
-0.547791	
-0.55426	
-0.559814	
-0.563354	
-0.566772	
-0.570435	
-0.573303	
-0.57428	
-0.573486	
-0.570862	
-0.56781	
-0.56427	
-0.561768	
-0.554382	
-0.53125	
-0.470398	
-0.361816	
-0.215576	
-0.0523071	
0.107605	
0.249878	
0.364868	
0.45166	
0.509216	
0.543579	
0.562988	
0.572632	
0.572388	
0.562073	
0.537292	
0.496338	
0.439575	
0.376343	
0.311768	
0.249268	
0.194092	
0.147766	
0.107422	
0.0693359	
0.0319824	
-0.00457764	
-0.0424194	
-0.0800781	
-0.115295	
-0.151611	
-0.188049	
-0.22113	
-0.252136	
-0.283997	
-0.313782	
-0.340637	
-0.366638	
-0.390137	
-0.410217	
-0.428528	
-0.446167	
-0.460693	
-0.474121	
-0.486328	
-0.498047	
-0.508911	
-0.520264	
-0.529785	
-0.537781	
-0.545654	
-0.553772	
-0.559265	
-0.56189	
-0.563049	
-0.562988	
-0.561951	
-0.560425	
-0.560669	
-0.561707	
-0.561462	
-0.558655	
-0.557312	
-0.55365	
-0.540649	
-0.501526	
-0.417236	
-0.287842	
-0.132751	
0.0305786	
0.181458	
0.306396	
0.40033	
0.463074	
0.503967	
0.529724	
0.541931	
0.54425	
0.537476	
0.516479	
0.480225	
0.431519	
0.372131	
0.309631	
0.251953	
0.206299	
0.181763	
0.169006	
0.161255	
0.154053	
0.144043	
0.128235	
0.10791	
0.0843506	
0.0570068	
0.0255127	
-0.010376	
-0.0493774	
-0.0878906	
-0.122742	
-0.155334	
-0.186462	
-0.215454	
-0.242737	
-0.268494	
-0.294434	
-0.319092	
-0.343384	
-0.366638	
-0.387329	
-0.405029	
-0.420715	
-0.431458	
-0.440125	
-0.447571	
-0.454712	
-0.461731	
-0.465942	
-0.468628	
-0.474487	
-0.481873	
-0.48645	
-0.48877	
-0.490662	
-0.489563	
-0.483337	
-0.462952	
-0.407837	
-0.308777	
-0.174377	
-0.0244141	
0.125061	
0.258423	
0.368103	
0.450378	
0.504822	
0.539795	
0.561279	
0.573547	
0.577087	
0.569458	
0.546631	
0.507629	
0.453369	
0.391663	
0.328735	
0.271057	
0.220337	
0.174744	
0.133606	
0.0942993	
0.0552368	
0.0166626	
-0.0239868	
-0.0652466	
-0.106262	
-0.147583	
-0.187012	
-0.222778	
-0.255493	
-0.284546	
-0.31189	
-0.33844	
-0.361511	
-0.381775	
-0.399048	
-0.414368	
-0.426819	
-0.437805	
-0.447754	
-0.455505	
-0.464233	
-0.473267	
-0.480835	
-0.486267	
-0.48999	
-0.493103	
-0.496338	
-0.49762	
-0.49762	
-0.496704	
-0.496033	
-0.495605	
-0.493469	
-0.491211	
-0.486755	
-0.48175	
-0.478027	
-0.473511	
-0.457458	
-0.412415	
-0.322876	
-0.19043	
-0.0337524	
0.121277	
0.260254	
0.375793	
0.464355	
0.525391	
0.566406	
0.594482	
0.614563	
0.627686	
0.631897	
0.623352	
0.596191	
0.546448	
0.480957	
0.40802	
0.338074	
0.276001	
0.220276	
0.1698	
0.124817	
0.0830078	
0.0435181	
0.00482178	
-0.034668	
-0.0765991	
-0.11792	
-0.158936	
-0.199036	
-0.235657	
-0.272278	
-0.306152	
-0.335999	
-0.363953	
-0.38855	
-0.410095	
-0.43103	
-0.44989	
-0.464783	
-0.478088	
-0.48999	
-0.501343	
-0.512451	
-0.521362	
-0.52948	
-0.537231	
-0.543213	
-0.550964	
-0.559692	
-0.566223	
-0.571716	
-0.573181	
-0.573669	
-0.573975	
-0.572388	
-0.570313	
-0.567261	
-0.56604	
-0.563965	
-0.554199	
-0.519653	
-0.442505	
-0.32251	
-0.175232	
-0.0228882	
0.113098	
0.225037	
0.310059	
0.366943	
0.404785	
0.430969	
0.449707	
0.461792	
0.464966	
0.456726	
0.431152	
0.388184	
0.332336	
0.272583	
0.218384	
0.171814	
0.131409	
0.095459	
0.0615845	
0.0280762	
-0.00665283	
-0.0424194	
-0.0784302	
-0.113647	
-0.149719	
-0.185242	
-0.218262	
-0.251221	
-0.282898	
-0.3125	
-0.340637	
-0.366333	
-0.389404	
-0.411011	
-0.430176	
-0.44751	
-0.462524	
-0.474731	
-0.485474	
-0.495789	
-0.5047	
-0.512878	
-0.520325	
-0.526489	
-0.532043	
-0.535278	
-0.537781	
-0.537598	
-0.536987	
-0.536804	
-0.536072	
-0.536011	
-0.537964	
-0.538269	
-0.538513	
-0.53186	
-0.50354	
-0.436462	
-0.326904	
-0.187073	
-0.0380859	
0.100342	
0.219177	
0.318176	
0.394897	
0.450378	
0.490234	
0.518616	
0.538879	
0.552673	
0.557922	
0.548523	
0.522217	
0.476013	
0.41333	
0.344971	
0.279541	
0.219666	
0.169006	
0.125	
0.0838623	
0.0430908	
0.00378418	
-0.0343628	
-0.0716553	
-0.107117	
-0.141418	
-0.175537	
-0.210632	
-0.24469	
-0.274414	
-0.302307	
-0.328735	
-0.352844	
-0.373962	
-0.392883	
-0.409241	
-0.425476	
-0.440857	
-0.454346	
-0.465698	
-0.476624	
-0.485168	
-0.493408	
-0.502869	
-0.509583	
-0.512939	
-0.51593	
-0.520935	
-0.523804	
-0.524231	
-0.524719	
-0.524231	
-0.522522	
-0.521301	
-0.520386	
-0.520569	
-0.520325	
-0.516113	
-0.497314	
-0.445801	
-0.348999	
-0.214661	
-0.0636597	
0.0847778	
0.216309	
0.325073	
0.40918	
0.472107	
0.518127	
0.549744	
0.570801	
0.582581	
0.585266	
0.576965	
0.550415	
0.504272	
0.442871	
0.375183	
0.308228	
0.249573	
0.19989	
0.156494	
0.117859	
0.0817871	
0.0454712	
0.00976563	
-0.0274048	
-0.0638428	
-0.0997925	
-0.13446	
-0.168701	
-0.199951	
-0.22937	
-0.257568	
-0.286926	
-0.314148	
-0.339355	
-0.360718	
-0.378845	
-0.393127	
-0.406006	
-0.417542	
-0.429565	
-0.439697	
-0.449341	
-0.458984	
-0.466919	
-0.472778	
-0.477905	
-0.482544	
-0.487793	
-0.490967	
-0.492615	
-0.494751	
-0.495483	
-0.495544	
-0.494629	
-0.491455	
-0.488831	
-0.485657	
-0.482422	
-0.476257	
-0.456116	
-0.403748	
-0.306213	
-0.172607	
-0.026062	
0.116943	
0.243774	
0.343872	
0.41748	
0.468506	
0.502319	
0.522949	
0.533875	
0.535339	
0.52887	
0.510803	
0.476807	
0.428406	
0.371643	
0.312256	
0.257813	
0.210449	
0.169312	
0.132324	
0.0977173	
0.0674438	
0.0372925	
0.00622559	
-0.0252075	
-0.0601196	
-0.09729	
-0.133362	
-0.164368	
-0.191895	
-0.220093	
-0.245911	
-0.270752	
-0.293762	
-0.31427	
-0.332642	
-0.346985	
-0.358704	
-0.371033	
-0.382751	
-0.392334	
-0.399109	
-0.404846	
-0.410034	
-0.417053	
-0.425598	
-0.434265	
-0.441833	
-0.447327	
-0.450867	
-0.453796	
-0.454468	
-0.456543	
-0.457336	
-0.458435	
-0.459717	
-0.459473	
-0.451355	
-0.422302	
-0.357605	
-0.250061	
-0.112488	
0.0322876	
0.169495	
0.286316	
0.378357	
0.445251	
0.490295	
0.519836	
0.537598	
0.547913	
0.550415	
0.541382	
0.518311	
0.478027	
0.424866	
0.362732	
0.299622	
0.240906	
0.190491	
0.147888	
0.108948	
0.0737305	
0.0383301	
0.00195313	
-0.0358887	
-0.0734253	
-0.108643	
-0.143005	
-0.177063	
-0.208679	
-0.238403	
-0.266602	
-0.293579	
-0.319031	
-0.34198	
-0.36145	
-0.379395	
-0.39624	
-0.408203	
-0.417664	
-0.425537	
-0.433655	
-0.440735	
-0.449341	
-0.457275	
-0.464111	
-0.470947	
-0.47821	
-0.485535	
-0.491211	
-0.494202	
-0.494385	
-0.494873	
-0.494141	
-0.491272	
-0.488403	
-0.486938	
-0.484192	
-0.480042	
-0.475037	
-0.461426	
-0.422852	
-0.339966	
-0.212891	
-0.0610962	
0.0924072	
0.23291	
0.349731	
0.438293	
0.501953	
0.544617	
0.572021	
0.588623	
0.597351	
0.598694	
0.589417	
0.566284	
0.528503	
0.473999	
0.409729	
0.344177	
0.284668	
0.234436	
0.190186	
0.1521	
0.116455	
0.0817261	
0.0460815	
0.00860596	
-0.0287476	
-0.0671997	
-0.103394	
-0.136902	
-0.168213	
-0.197815	
-0.226318	
-0.252625	
-0.279236	
-0.305481	
-0.329346	
-0.350586	
-0.366272	
-0.380066	
-0.393677	
-0.406555	
-0.417908	
-0.429443	
-0.439758	
-0.447876	
-0.455505	
-0.465027	
-0.474854	
-0.482056	
-0.487122	
-0.491821	
-0.491516	
-0.490417	
-0.487854	
-0.485718	
-0.483093	
-0.479309	
-0.476624	
-0.474548	
-0.471191	
-0.462646	
-0.432495	
-0.362061	
-0.243225	
-0.0921021	
0.0671387	
0.213806	
0.337219	
0.431335	
0.498596	
0.543457	
0.572937	
0.590698	
0.598267	
0.596619	
0.585693	
0.564453	
0.526978	
0.4776	
0.417786	
0.354431	
0.294983	
0.242554	
0.197693	
0.158386	
0.121765	
0.0869141	
0.0505981	
0.0151978	
-0.0204468	
-0.0559692	
-0.0911255	
-0.124695	
-0.15802	
-0.189575	
-0.219421	
-0.24585	
-0.270142	
-0.294006	
-0.316589	
-0.334473	
-0.351074	
-0.366516	
-0.380493	
-0.391907	
-0.402527	
-0.411682	
-0.421021	
-0.429321	
-0.436401	
-0.445068	
-0.453979	
-0.463013	
-0.470093	
-0.476013	
-0.480164	
-0.482788	
-0.483643	
-0.485657	
-0.488342	
-0.48822	
-0.487	
-0.485779	
-0.482666	
-0.470032	
-0.427734	
-0.340454	
-0.208984	
-0.0527954	
0.103271	
0.241943	
0.353333	
0.434204	
0.48877	
0.522522	
0.544373	
0.558105	
0.56311	
0.56012	
0.546387	
0.516541	
0.470947	
0.418396	
0.361755	
0.30719	
0.256348	
0.213623	
0.17865	
0.146667	
0.116577	
0.0855103	
0.0518799	
0.019043	
-0.0129395	
-0.046875	
-0.0811157	
-0.112793	
-0.143372	
-0.17157	
-0.197693	
-0.222534	
-0.244263	
-0.262573	
-0.27948	
-0.293823	
-0.30719	
-0.319824	
-0.332458	
-0.344299	
-0.354126	
-0.362793	
-0.369873	
-0.377625	
-0.386169	
-0.395996	
-0.403137	
-0.408386	
-0.411987	
-0.414612	
-0.415527	
-0.415283	
-0.416626	
-0.414917	
-0.416016	
-0.415161	
-0.40686	
-0.374023	
-0.296204	
-0.175781	
-0.0279541	
0.123169	
0.257874	
0.370056	
0.457825	
0.521667	
0.564514	
0.593811	
0.615051	
0.628601	
0.631653	
0.625427	
0.602356	
0.557495	
0.494629	
0.42511	
0.356567	
0.292297	
0.237915	
0.188904	
0.14209	
0.0986938	
0.0564575	
0.0153198	
-0.0262451	
-0.0678101	
-0.108459	
-0.147644	
-0.18634	
-0.221375	
-0.255249	
-0.287781	
-0.317383	
-0.342285	
-0.365356	
-0.383728	
-0.40033	
-0.415222	
-0.429932	
-0.443298	
-0.45575	
-0.466064	
-0.473511	
-0.48053	
-0.487793	
-0.496155	
-0.502258	
-0.506042	
-0.509888	
-0.510498	
-0.510071	
-0.510132	
-0.509583	
-0.507446	
-0.503418	
-0.500244	
-0.497925	
-0.494629	
-0.488037	
-0.470276	
-0.421082	
-0.323059	
-0.183777	
-0.0253906	
0.12738	
0.259766	
0.365479	
0.444153	
0.49707	
0.533813	
0.560669	
0.576477	
0.584534	
0.583069	
0.566101	
0.528503	
0.471375	
0.40509	
0.335815	
0.272034	
0.215515	
0.16687	
0.123962	
0.0848999	
0.0473633	
0.0110474	
-0.0249023	
-0.0604858	
-0.0949097	
-0.131287	
-0.16626	
-0.199829	
-0.231323	
-0.261047	
-0.288086	
-0.311951	
-0.334656	
-0.355774	
-0.374939	
-0.390991	
-0.406006	
-0.417053	
-0.427551	
-0.436279	
-0.445313	
-0.452881	
-0.459656	
-0.465027	
-0.47052	
-0.476501	
-0.482117	
-0.48468	
-0.486267	
-0.486633	
-0.48645	
-0.484741	
-0.482422	
-0.481262	
-0.479919	
-0.479004	
-0.475891	
-0.464417	
-0.426941	
-0.34491	
-0.216675	
-0.0612183	
0.0974731	
0.23877	
0.355591	
0.445129	
0.50885	
0.552856	
0.584106	
0.606201	
0.622498	
0.629456	
0.620056	
0.589661	
0.537537	
0.469177	
0.394104	
0.322693	
0.256836	
0.198792	
0.150757	
0.109497	
0.0723877	
0.036499	
0.000488281	
-0.0361938	
-0.0722046	
-0.111084	
-0.150024	
-0.184631	
-0.217224	
-0.249084	
-0.278442	
-0.304382	
-0.328491	
-0.34967	
-0.367859	
-0.383057	
-0.395935	
-0.409058	
-0.419739	
-0.428528	
-0.437866	
-0.445862	
-0.453186	
-0.458069	
-0.462769	
-0.466187	
-0.468689	
-0.471497	
-0.472839	
-0.472107	
-0.471313	
-0.469849	
-0.46936	
-0.466797	
-0.46637	
-0.466187	
-0.464905	
-0.457214	
-0.431641	
-0.366699	
-0.25531	
-0.111511	
0.041687	
0.180786	
0.297668	
0.386169	
0.450012	
0.49292	
0.521118	
0.538818	
0.546326	
0.545227	
0.528931	
0.493469	
0.439697	
0.374268	
0.308472	
0.248535	
0.195313	
0.149536	
0.110046	
0.0736084	
0.038208	
0.00488281	
-0.0292969	
-0.0662842	
-0.102966	
-0.138428	
-0.17395	
-0.208435	
-0.240479	
-0.269897	
-0.296997	
-0.323181	
-0.346252	
-0.367126	
-0.38446	
-0.398987	
-0.411926	
-0.423828	
-0.430786	
-0.437256	
-0.444763	
-0.451904	
-0.458801	
-0.466736	
-0.476257	
-0.484558	
-0.490356	
-0.492737	
-0.49353	
-0.491821	
-0.490845	
-0.491394	
-0.490356	
-0.490356	
-0.488098	
-0.485168	
-0.481262	
-0.473083	
-0.445313	
-0.378662	
-0.261902	
-0.108032	
0.055603	
0.207825	
0.336792	
0.43927	
0.515747	
0.568481	
0.604187	
0.627075	
0.643188	
0.652588	
0.650269	
0.633728	
0.594116	
0.531921	
0.457947	
0.380798	
0.309204	
0.243896	
0.190125	
0.143921	
0.103882	
0.0665283	
0.0294189	
-0.00891113	
-0.0474854	
-0.0843506	
-0.122742	
-0.161987	
-0.197021	
-0.229675	
-0.261047	
-0.289368	
-0.31604	
-0.340332	
-0.362	
-0.380127	
-0.396545	
-0.411316	
-0.424561	
-0.434814	
-0.4422	
-0.450745	
-0.460083	
-0.466797	
-0.474243	
-0.480713	
-0.486572	
-0.492554	
-0.496521	
-0.497498	
-0.497864	
-0.496765	
-0.495911	
-0.495483	
-0.494019	
-0.491882	
-0.489929	
-0.483704	
-0.460938	
-0.402771	
-0.295105	
-0.147278	
0.0181274	
0.173523	
0.307434	
0.414917	
0.493774	
0.549011	
0.586304	
0.612671	
0.631775	
0.640991	
0.639221	
0.622559	
0.58374	
0.523315	
0.451721	
0.375244	
0.304321	
0.240234	
0.184326	
0.136902	
0.09729	
0.0592651	
0.024353	
-0.0107422	
-0.050415	
-0.0881348	
-0.125	
-0.161987	
-0.197815	
-0.232239	
-0.263489	
-0.291199	
-0.315369	
-0.338562	
-0.358643	
-0.376038	
-0.39325	
-0.40686	
-0.420044	
-0.430969	
-0.438965	
-0.446289	
-0.454346	
-0.461975	
-0.469666	
-0.475891	
-0.48114	
-0.486694	
-0.490723	
-0.49353	
-0.493347	
-0.492188	
-0.492676	
-0.491699	
-0.488647	
-0.485291	
-0.482727	
-0.478882	
-0.469238	
-0.435425	
-0.359558	
-0.233887	
-0.0773926	
0.0864868	
0.236389	
0.360352	
0.455811	
0.525574	
0.574524	
0.608093	
0.628845	
0.640869	
0.646301	
0.639526	
0.614197	
0.565918	
0.499207	
0.424377	
0.350769	
0.282776	
0.223755	
0.174377	
0.131714	
0.0928345	
0.0568237	
0.020752	
-0.0177612	
-0.0549316	
-0.0918579	
-0.127686	
-0.162598	
-0.198242	
-0.230774	
-0.259705	
-0.286499	
-0.310791	
-0.33313	
-0.353638	
-0.371155	
-0.384888	
-0.398987	
-0.411316	
-0.420959	
-0.428833	
-0.434692	
-0.441284	
-0.446411	
-0.452942	
-0.460144	
-0.467529	
-0.473938	
-0.479553	
-0.483521	
-0.485352	
-0.483765	
-0.481384	
-0.480347	
-0.479858	
-0.480042	
-0.477783	
-0.471924	
-0.457214	
-0.414001	
-0.323059	
-0.184509	
-0.0215454	
0.14032	
0.282776	
0.397644	
0.487183	
0.550842	
0.594727	
0.625671	
0.646545	
0.658813	
0.659424	
0.645264	
0.607544	
0.546875	
0.474243	
0.396179	
0.322998	
0.257935	
0.201782	
0.154114	
0.111267	
0.0737305	
0.0384521	
0.0020752	
-0.0352783	
-0.0738525	
-0.111206	
-0.14801	
-0.182129	
-0.214783	
-0.244751	
-0.272705	
-0.297119	
-0.319275	
-0.33905	
-0.357727	
-0.372681	
-0.385803	
-0.396484	
-0.40564	
-0.414734	
-0.424255	
-0.434082	
-0.442322	
-0.448853	
-0.454041	
-0.457947	
-0.461731	
-0.465942	
-0.469299	
-0.471741	
-0.471313	
-0.469543	
-0.466736	
-0.463562	
-0.460571	
-0.458313	
-0.456665	
-0.448059	
-0.416504	
-0.341003	
-0.218323	
-0.0678711	
0.0863037	
0.224731	
0.337708	
0.421143	
0.47821	
0.516541	
0.542358	
0.558228	
0.564697	
0.559387	
0.535583	
0.490662	
0.431641	
0.365234	
0.302246	
0.246521	
0.197327	
0.155212	
0.117676	
0.0820313	
0.0479126	
0.0145264	
-0.0203857	
-0.0559692	
-0.0911865	
-0.12616	
-0.161133	
-0.19519	
-0.228516	
-0.258606	
-0.284973	
-0.309204	
-0.33252	
-0.352905	
-0.370422	
-0.384521	
-0.396484	
-0.408691	
-0.419495	
-0.430298	
-0.440002	
-0.449036	
-0.45636	
-0.463074	
-0.470642	
-0.477234	
-0.481689	
-0.483948	
-0.485901	
-0.484863	
-0.481506	
-0.478455	
-0.475098	
-0.472656	
-0.469482	
-0.465149	
-0.451172	
-0.410522	
-0.324341	
-0.191772	
-0.0341187	
0.12561	
0.268799	
0.388245	
0.47937	
0.547363	
0.595398	
0.630737	
0.654907	
0.67218	
0.682434	
0.675232	
0.645203	
0.589111	
0.514648	
0.433044	
0.354492	
0.283325	
0.223267	
0.171204	
0.128052	
0.0899658	
0.0514526	
0.0117188	
-0.0273438	
-0.0651245	
-0.103271	
-0.140808	
-0.176819	
-0.210083	
-0.243164	
-0.274353	
-0.302979	
-0.328003	
-0.351685	
-0.373962	
-0.392761	
-0.408508	
-0.423401	
-0.436646	
-0.446045	
-0.45459	
-0.462769	
-0.471375	
-0.480591	
-0.487732	
-0.492188	
-0.496216	
-0.499817	
-0.501404	
-0.501221	
-0.499023	
-0.498779	
-0.497009	
-0.495178	
-0.493469	
-0.491821	
-0.487976	
-0.47821	
-0.45166	
-0.388611	
-0.275269	
-0.12439	
0.0374756	
0.191162	
0.323608	
0.428528	
0.505249	
0.560181	
0.598877	
0.625305	
0.64563	
0.655518	
0.651672	
0.627747	
0.58136	
0.514893	
0.437622	
0.360291	
0.288147	
0.225647	
0.17218	
0.126038	
0.0861816	
0.0476074	
0.0088501	
-0.0302124	
-0.0681152	
-0.10437	
-0.140076	
-0.174072	
-0.206543	
-0.238647	
-0.270813	
-0.300354	
-0.327515	
-0.350403	
-0.370361	
-0.387573	
-0.402771	
-0.415405	
-0.42572	
-0.435608	
-0.445679	
-0.455627	
-0.463562	
-0.472351	
-0.480042	
-0.486938	
-0.494385	
-0.500854	
-0.503723	
-0.504333	
-0.503906	
-0.501404	
-0.499451	
-0.497864	
-0.495911	
-0.492249	
-0.489502	
-0.486694	
-0.478455	
-0.449463	
-0.37738	
-0.2547	
-0.0993652	
0.0603638	
0.207275	
0.33075	
0.427307	
0.496155	
0.544922	
0.577087	
0.59729	
0.610657	
0.615234	
0.609131	
0.584473	
0.536804	
0.473694	
0.40094	
0.327881	
0.264832	
0.20813	
0.158691	
0.115845	
0.0765991	
0.0378418	
-6.10352E-05	
-0.0383301	
-0.0762939	
-0.114624	
-0.151184	
-0.186157	
-0.219788	
-0.251404	
-0.281189	
-0.308655	
-0.332825	
-0.354248	
-0.375183	
-0.393555	
-0.409485	
-0.421631	
-0.432251	
-0.442383	
-0.450317	
-0.458069	
-0.466003	
-0.474915	
-0.483765	
-0.490051	
-0.494873	
-0.498901	
-0.500366	
-0.499634	
-0.497314	
-0.493896	
-0.489075	
-0.484863	
-0.480774	
-0.476868	
-0.475464	
-0.475586	
-0.469849	
-0.446777	
-0.383789	
-0.269836	
-0.119568	
0.039856	
0.187927	
0.312378	
0.408691	
0.473816	
0.515503	
0.539001	
0.551086	
0.55481	
0.549683	
0.53125	
0.497009	
0.449951	
0.392578	
0.331177	
0.27417	
0.226868	
0.187073	
0.152588	
0.121765	
0.0921021	
0.0613403	
0.0278931	
-0.0057373	
-0.0424194	
-0.079895	
-0.115234	
-0.151062	
-0.185303	
-0.216919	
-0.245117	
-0.271851	
-0.295593	
-0.317383	
-0.337524	
-0.355469	
-0.370056	
-0.382935	
-0.395264	
-0.406738	
-0.415466	
-0.422668	
-0.429993	
-0.43689	
-0.444214	
-0.451355	
-0.457764	
-0.461426	
-0.463928	
-0.463379	
-0.463135	
-0.462158	
-0.460144	
-0.456909	
-0.454407	
-0.453613	
-0.446106	
-0.416687	
-0.347717	
-0.229614	
-0.078125	
0.0805664	
0.228149	
0.349426	
0.442749	
0.508789	
0.554321	
0.584595	
0.602356	
0.611755	
0.613098	
0.602234	
0.57843	
0.535706	
0.476074	
0.407349	
0.339539	
0.276428	
0.223999	
0.180237	
0.139954	
0.102173	
0.0648193	
0.0270386	
-0.0126343	
-0.0517578	
-0.0901489	
-0.126587	
-0.16217	
-0.197998	
-0.2323	
-0.263733	
-0.293152	
-0.318176	
-0.339966	
-0.359619	
-0.376465	
-0.392029	
-0.40741	
-0.421448	
-0.432922	
-0.442078	
-0.451111	
-0.459839	
-0.46759	
-0.473694	
-0.479004	
-0.483398	
-0.486877	
-0.489014	
-0.489258	
-0.490173	
-0.490601	
-0.489136	
-0.487244	
-0.484497	
-0.481201	
-0.477356	
-0.472473	
-0.460205	
-0.424744	
-0.345093	
-0.216125	
-0.057373	
0.10553	
0.25293	
0.375061	
0.468384	
0.53595	
0.58136	
0.609192	
0.625061	
0.632874	
0.631836	
0.619141	
0.593506	
0.550232	
0.487915	
0.415344	
0.344543	
0.28009	
0.226318	
0.182495	
0.143616	
0.108398	
0.0731201	
0.0355835	
-0.00311279	
-0.0426025	
-0.0827026	
-0.121643	
-0.158386	
-0.191895	
-0.224609	
-0.254456	
-0.28479	
-0.310181	
-0.333984	
-0.354431	
-0.374451	
-0.391785	
-0.405334	
-0.417175	
-0.426575	
-0.434875	
-0.442688	
-0.449707	
-0.457581	
-0.463257	
-0.467468	
-0.473633	
-0.478149	
-0.481018	
-0.483032	
-0.482666	
-0.482422	
-0.481201	
-0.478882	
-0.473572	
-0.470337	
-0.466736	
-0.462402	
-0.446045	
-0.399414	
-0.306885	
-0.169678	
-0.0101929	
0.147888	
0.284424	
0.393555	
0.475342	
0.527954	
0.559875	
0.579468	
0.590271	
0.594238	
0.588257	
0.568787	
0.532288	
0.478333	
0.413086	
0.344849	
0.28302	
0.232056	
0.189758	
0.153381	
0.121155	
0.090332	
0.0574951	
0.0227661	
-0.012146	
-0.0482178	
-0.085144	
-0.119507	
-0.152954	
-0.186096	
-0.216064	
-0.243042	
-0.26947	
-0.291626	
-0.311646	
-0.327759	
-0.343506	
-0.359253	
-0.371704	
-0.382141	
-0.392334	
-0.39917	
-0.406982	
-0.414734	
-0.421875	
-0.427673	
-0.431885	
-0.436096	
-0.439636	
-0.441406	
-0.441711	
-0.441101	
-0.439758	
-0.439514	
-0.440552	
-0.440247	
-0.433228	
-0.404053	
-0.334778	
-0.21875	
-0.0706787	
0.0845947	
0.22583	
0.342834	
0.431641	
0.492981	
0.533569	
0.558228	
0.570984	
0.575195	
0.570068	
0.551086	
0.515076	
0.464722	
0.399536	
0.331177	
0.268555	
0.213318	
0.167786	
0.127075	
0.0905151	
0.0570068	
0.022522	
-0.0122681	
-0.0471802	
-0.0828857	
-0.119629	
-0.155334	
-0.189331	
-0.221802	
-0.251343	
-0.278503	
-0.306152	
-0.330872	
-0.351563	
-0.371399	
-0.387085	
-0.40094	
-0.410522	
-0.42041	
-0.429443	
-0.437683	
-0.445313	
-0.452087	
-0.457947	
-0.46344	
-0.465576	
-0.468933	
-0.471802	
-0.473206	
-0.473511	
-0.472839	
-0.472534	
-0.470886	
-0.467529	
-0.4646	
-0.46228	
-0.454834	
-0.429871	
-0.367554	
-0.25708	
-0.106262	
0.0598755	
0.218689	
0.352478	
0.457336	
0.535095	
0.589905	
0.628601	
0.654297	
0.670898	
0.67926	
0.67627	
0.656982	
0.614197	
0.552979	
0.476379	
0.395691	
0.321106	
0.256592	
0.19989	
0.153015	
0.110779	
0.0715942	
0.0333862	
-0.00543213	
-0.0432739	
-0.0827026	
-0.12323	
-0.15979	
-0.194519	
-0.226868	
-0.254578	
-0.280273	
-0.306396	
-0.328918	
-0.348816	
-0.367004	
-0.38385	
-0.399292	
-0.41095	
-0.418274	
-0.425293	
-0.431763	
-0.43988	
-0.447449	
-0.45459	
-0.462341	
-0.469116	
-0.473267	
-0.474731	
-0.474548	
-0.473267	
-0.472595	
-0.472534	
-0.472473	
-0.473694	
-0.475708	
-0.472839	
-0.456116	
-0.407471	
-0.309448	
-0.165466	
0	
0.15979	
0.297363	
0.407288	
0.488647	
0.544922	
0.586243	
0.614319	
0.632996	
0.643799	
0.643982	
0.627686	
0.588074	
0.526367	
0.450134	
0.370605	
0.295471	
0.227295	
0.170837	
0.124634	
0.0844116	
0.0463257	
0.00866699	
-0.0287476	
-0.0655518	
-0.100525	
-0.136841	
-0.17157	
-0.205933	
-0.239563	
-0.269043	
-0.296448	
-0.320679	
-0.343445	
-0.364563	
-0.384277	
-0.401733	
-0.41626	
-0.42688	
-0.43573	
-0.445862	
-0.455261	
-0.463562	
-0.470642	
-0.478882	
-0.48645	
-0.492126	
-0.497009	
-0.499023	
-0.499695	
-0.497253	
-0.496521	
-0.494507	
-0.492126	
-0.491028	
-0.490723	
-0.489746	
-0.487427	
-0.474792	
-0.435791	
-0.348694	
-0.214294	
-0.0524292	
0.108398	
0.250732	
0.366455	
0.451416	
0.510437	
0.552124	
0.579773	
0.598389	
0.608643	
0.606934	
0.588867	
0.548401	
0.487915	
0.415955	
0.342346	
0.272278	
0.211121	
0.157593	
0.114258	
0.0761719	
0.041687	
0.00933838	
-0.0236816	
-0.0574341	
-0.0917969	
-0.125305	
-0.158447	
-0.191711	
-0.225098	
-0.256042	
-0.283264	
-0.309021	
-0.333557	
-0.353699	
-0.370605	
-0.38324	
-0.394165	
-0.401855	
-0.409058	
-0.417847	
-0.426758	
-0.433899	
-0.440002	
-0.44519	
-0.450195	
-0.455017	
-0.457153	
-0.458801	
-0.458435	
-0.456726	
-0.456055	
-0.455872	
-0.453491	
-0.452515	
-0.452393	
-0.449097	
-0.430603	
-0.37677	
-0.272888	
-0.129944	
0.0267334	
0.174927	
0.297302	
0.390015	
0.454102	
0.49469	
0.519165	
0.531433	
0.535522	
0.533203	
0.516663	
0.481934	
0.428955	
0.366028	
0.300232	
0.237854	
0.182861	
0.136719	
0.0979614	
0.0620728	
0.0289917	
-0.00323486	
-0.0372314	
-0.0718384	
-0.10791	
-0.144348	
-0.180969	
-0.21637	
-0.246765	
-0.273987	
-0.299622	
-0.324585	
-0.346313	
-0.366272	
-0.383057	
-0.397949	
-0.410034	
-0.421021	
-0.430542	
-0.438293	
-0.443726	
-0.449097	
-0.454529	
-0.458862	
-0.462219	
-0.465881	
-0.466919	
-0.468079	
-0.468994	
-0.469971	
-0.467896	
-0.465271	
-0.463196	
-0.460693	
-0.458069	
-0.455139	
-0.450256	
-0.432495	
-0.383911	
-0.286011	
-0.14325	
0.020813	
0.179871	
0.319275	
0.431396	
0.514404	
0.572632	
0.613953	
0.641602	
0.658875	
0.66803	
0.667114	
0.649353	
0.61084	
0.552429	
0.478699	
0.396606	
0.319641	
0.251831	
0.194336	
0.146057	
0.104858	
0.0668945	
0.0290527	
-0.00866699	
-0.0471802	
-0.0863647	
-0.125427	
-0.162842	
-0.199646	
-0.234131	
-0.264771	
-0.291992	
-0.317505	
-0.341064	
-0.362915	
-0.381042	
-0.395874	
-0.408569	
-0.418457	
-0.426636	
-0.434509	
-0.442993	
-0.449829	
-0.455688	
-0.462891	
-0.469299	
-0.476135	
-0.483765	
-0.487366	
-0.490601	
-0.491699	
-0.491272	
-0.489319	
-0.486206	
-0.482422	
-0.47876	
-0.475708	
-0.472107	
-0.459473	
-0.418823	
-0.330444	
-0.194397	
-0.0311279	
0.132629	
0.277405	
0.394775	
0.483398	
0.543152	
0.583679	
0.612366	
0.631104	
0.639526	
0.638855	
0.62616	
0.593567	
0.538452	
0.466553	
0.387207	
0.310242	
0.242249	
0.185242	
0.137024	
0.09552	
0.059082	
0.0222778	
-0.0159302	
-0.0540161	
-0.0928955	
-0.132263	
-0.170837	
-0.206299	
-0.238159	
-0.269897	
-0.298401	
-0.322937	
-0.345459	
-0.363403	
-0.380127	
-0.394592	
-0.406372	
-0.417175	
-0.428589	
-0.437439	
-0.444275	
-0.452209	
-0.459961	
-0.466492	
-0.472534	
-0.477051	
-0.48114	
-0.483826	
-0.483826	
-0.482361	
-0.481018	
-0.479736	
-0.479126	
-0.477173	
-0.472107	
-0.469604	
-0.468201	
-0.458313	
-0.427917	
-0.357178	
-0.233948	
-0.0740967	
0.0933228	
0.243958	
0.367065	
0.462402	
0.528442	
0.572571	
0.599365	
0.616333	
0.625305	
0.625061	
0.613037	
0.583557	
0.53418	
0.467651	
0.394287	
0.323059	
0.259155	
0.205017	
0.159424	
0.117493	
0.0774536	
0.0378418	
-0.00146484	
-0.0404663	
-0.0791016	
-0.116333	
-0.150269	
-0.18335	
-0.216248	
-0.245239	
-0.270325	
-0.294128	
-0.315979	
-0.335815	
-0.355591	
-0.373596	
-0.388855	
-0.400574	
-0.411621	
-0.420837	
-0.428345	
-0.434448	
-0.439758	
-0.445618	
-0.452087	
-0.458923	
-0.464905	
-0.468018	
-0.46875	
-0.467773	
-0.466248	
-0.4646	
-0.461487	
-0.458191	
-0.453918	
-0.44989	
-0.447327	
-0.441772	
-0.415527	
-0.348938	
-0.229797	
-0.072998	
0.0910645	
0.240845	
0.366272	
0.462036	
0.528259	
0.573547	
0.602661	
0.620056	
0.631165	
0.632507	
0.621826	
0.596191	
0.548706	
0.484497	
0.412964	
0.34198	
0.278931	
0.224731	
0.178528	
0.137207	
0.100159	
0.0616455	
0.0246582	
-0.0122681	
-0.0517578	
-0.0894775	
-0.125854	
-0.161987	
-0.195374	
-0.225952	
-0.254883	
-0.282715	
-0.309387	
-0.331787	
-0.351074	
-0.368042	
-0.383789	
-0.396912	
-0.407043	
-0.416199	
-0.423401	
-0.429016	
-0.433899	
-0.438416	
-0.445679	
-0.451782	
-0.455688	
-0.45929	
-0.46167	
-0.463135	
-0.462341	
-0.461182	
-0.460693	
-0.45929	
-0.457764	
-0.454346	
-0.45105	
-0.444336	
-0.421692	
-0.365601	
-0.25824	
-0.108948	
0.0540771	
0.208557	
0.339294	
0.442505	
0.516479	
0.566467	
0.60083	
0.624512	
0.638855	
0.644409	
0.637756	
0.614014	
0.565308	
0.498169	
0.422729	
0.34906	
0.281799	
0.222534	
0.172302	
0.129761	
0.0916138	
0.0560913	
0.0213013	
-0.0129395	
-0.0476074	
-0.0845337	
-0.118225	
-0.147583	
-0.174988	
-0.200745	
-0.221375	
-0.24115	
-0.257324	
-0.26886	
-0.276672	
-0.284607	
-0.289917	
-0.294861	
-0.30249	
-0.311218	
-0.320251	
-0.330811	
-0.342896	
-0.356506	
-0.370422	
-0.385254	
-0.398132	
-0.409851	
-0.420959	
-0.431213	
-0.439392	
-0.44696	
-0.453247	
-0.458923	
-0.462952	
-0.462708	
-0.462708	
-0.460266	
-0.44519	
-0.399963	
-0.306763	
-0.166931	
-0.00927734	
0.141541	
0.272217	
0.377319	
0.453613	
0.507813	
0.546631	
0.573486	
0.590027	
0.5979	
0.592529	
0.56958	
0.524231	
0.458984	
0.384155	
0.307129	
0.235962	
0.174438	
0.122559	
0.0808716	
0.0453491	
0.0123901	
-0.0202637	
-0.0545044	
-0.0880737	
-0.123291	
-0.156372	
-0.189697	
-0.220337	
-0.249756	
-0.27594	
-0.300354	
-0.325623	
-0.3479	
-0.365112	
-0.378601	
-0.391052	
-0.402405	
-0.41217	
-0.422058	
-0.428345	
-0.433594	
-0.43866	
-0.445679	
-0.452332	
-0.45697	
-0.462708	
-0.465881	
-0.467407	
-0.468018	
-0.468994	
-0.46875	
-0.467773	
-0.46637	
-0.464111	
-0.461487	
-0.458252	
-0.454041	
-0.442871	
-0.411987	
-0.337463	
-0.213928	
-0.0596924	
0.101257	
0.246521	
0.36615	
0.456421	
0.519287	
0.56311	
0.592896	
0.612976	
0.624329	
0.625366	
0.608398	
0.567871	
0.504639	
0.430054	
0.353394	
0.28125	
0.218323	
0.166748	
0.123413	
0.0846558	
0.0487061	
0.0116577	
-0.0251465	
-0.062561	
-0.0996094	
-0.133423	
-0.167664	
-0.199951	
-0.229736	
-0.259399	
-0.287292	
-0.312256	
-0.334351	
-0.35144	
-0.36731	
-0.380859	
-0.392456	
-0.403137	
-0.41394	
-0.423645	
-0.431396	
-0.437683	
-0.443909	
-0.450195	
-0.455872	
-0.460999	
-0.464478	
-0.467468	
-0.468079	
-0.467712	
-0.465332	
-0.461975	
-0.457153	
-0.45343	
-0.4505	
-0.448364	
-0.446167	
-0.440002	
-0.421753	
-0.370117	
-0.268311	
-0.124634	
0.0358276	
0.188538	
0.315063	
0.412231	
0.478455	
0.521118	
0.54834	
0.565796	
0.575745	
0.574158	
0.557556	
0.520203	
0.463379	
0.394836	
0.325012	
0.262817	
0.209473	
0.164124	
0.124878	
0.0900269	
0.0575562	
0.0251465	
-0.00714111	
-0.0421753	
-0.0776367	
-0.11145	
-0.144226	
-0.176514	
-0.20752	
-0.236511	
-0.263367	
-0.287537	
-0.309937	
-0.329224	
-0.34613	
-0.358704	
-0.36853	
-0.375854	
-0.382263	
-0.389587	
-0.398865	
-0.407715	
-0.414429	
-0.419312	
-0.423523	
-0.428528	
-0.434387	
-0.438171	
-0.438843	
-0.438843	
-0.439392	
-0.438904	
-0.437317	
-0.436035	
-0.433716	
-0.430359	
-0.417725	
-0.373901	
-0.284668	
-0.148438	
0.0135498	
0.17218	
0.310242	
0.423218	
0.509399	
0.574097	
0.620972	
0.654846	
0.679565	
0.693542	
0.696716	
0.681519	
0.641357	
0.576294	
0.495178	
0.406128	
0.321472	
0.24707	
0.185852	
0.138	
0.0979614	
0.0609741	
0.0246582	
-0.0142212	
-0.0532227	
-0.0918579	
-0.13092	
-0.168579	
-0.205139	
-0.238708	
-0.267883	
-0.294128	
-0.318909	
-0.339966	
-0.357788	
-0.37323	
-0.38678	
-0.400208	
-0.410156	
-0.419495	
-0.429138	
-0.436523	
-0.442017	
-0.447449	
-0.452881	
-0.457825	
-0.461426	
-0.464966	
-0.466614	
-0.467896	
-0.467957	
-0.465942	
-0.464111	
-0.462219	
-0.45813	
-0.454895	
-0.452148	
-0.447998	
-0.438293	
-0.404602	
-0.326416	
-0.197937	
-0.0389404	
0.124756	
0.272705	
0.395264	
0.492371	
0.566162	
0.620911	
0.661499	
0.692505	
0.713318	
0.71936	
0.705933	
0.666138	
0.59967	
0.511169	
0.415833	
0.32843	
0.252808	
0.191345	
0.143127	
0.103577	
0.0681152	
0.0343628	
-0.000427246	
-0.0373535	
-0.0751953	
-0.113831	
-0.151062	
-0.185852	
-0.217041	
-0.247559	
-0.278381	
-0.307312	
-0.33197	
-0.35498	
-0.37323	
-0.386841	
-0.397705	
-0.407837	
-0.418091	
-0.427307	
-0.43396	
-0.440735	
-0.448669	
-0.454834	
-0.460266	
-0.465698	
-0.468201	
-0.470215	
-0.471375	
-0.47052	
-0.46875	
-0.466675	
-0.464478	
-0.462158	
-0.459167	
-0.456116	
-0.452759	
-0.447815	
-0.433044	
-0.388611	
-0.295471	
-0.156189	
0.00567627	
0.165283	
0.306702	
0.422852	
0.513855	
0.584595	
0.637695	
0.67865	
0.70697	
0.719055	
0.711121	
0.680847	
0.624084	
0.543396	
0.449219	
0.354065	
0.268555	
0.198608	
0.14386	
0.100464	
0.0631714	
0.0274658	
-0.00793457	
-0.0437012	
-0.0806274	
-0.117493	
-0.154053	
-0.188538	
-0.221558	
-0.254517	
-0.283386	
-0.309143	
-0.33252	
-0.352539	
-0.368774	
-0.380371	
-0.390442	
-0.401184	
-0.408997	
-0.415833	
-0.421326	
-0.427795	
-0.433044	
-0.437866	
-0.442017	
-0.445496	
-0.44751	
-0.451477	
-0.453735	
-0.454651	
-0.454224	
-0.452393	
-0.449402	
-0.445435	
-0.443726	
-0.444214	
-0.445557	
-0.445435	
-0.439758	
-0.41394	
-0.34906	
-0.237427	
-0.0911865	
0.0658569	
0.210144	
0.331665	
0.425171	
0.493225	
0.544006	
0.579834	
0.604492	
0.614624	
0.606934	
0.577026	
0.524048	
0.450928	
0.367126	
0.283875	
0.210999	
0.153076	
0.107605	
0.0699463	
0.0361328	
0.00354004	
-0.0276489	
-0.0599365	
-0.0958862	
-0.132446	
-0.166382	
-0.198303	
-0.229004	
-0.258179	
-0.284302	
-0.307434	
-0.329712	
-0.350952	
-0.368958	
-0.385254	
-0.398987	
-0.410522	
-0.420715	
-0.427551	
-0.433655	
-0.440063	
-0.446289	
-0.450989	
-0.455688	
-0.460876	
-0.469116	
-0.474487	
-0.479614	
-0.480774	
-0.478943	
-0.475403	
-0.471069	
-0.467773	
-0.465759	
-0.462708	
-0.458984	
-0.455322	
-0.451843	
-0.440674	
-0.405884	
-0.32666	
-0.197815	
-0.0371704	
0.12384	
0.268127	
0.389709	
0.487061	
0.561707	
0.617737	
0.661438	
0.696472	
0.717468	
0.719299	
0.701294	
0.660034	
0.590881	
0.50293	
0.406494	
0.316284	
0.238708	
0.175476	
0.123718	
0.0804443	
0.043396	
0.0078125	
-0.0291748	
-0.0666504	
-0.104492	
-0.142029	
-0.180115	
-0.216125	
-0.246643	
-0.274536	
-0.300415	
-0.325012	
-0.348999	
-0.370178	
-0.386536	
-0.399841	
-0.412476	
-0.4245	
-0.434326	
-0.443115	
-0.452332	
-0.460327	
-0.465881	
-0.47052	
-0.475464	
-0.480957	
-0.484436	
-0.487793	
-0.490662	
-0.492188	
-0.492554	
-0.490723	
-0.489258	
-0.485596	
-0.483643	
-0.479309	
-0.473755	
-0.468262	
-0.462341	
-0.446228	
-0.400146	
-0.307129	
-0.168152	
-0.00665283	
0.151428	
0.290344	
0.402161	
0.48761	
0.549744	
0.594238	
0.625366	
0.649841	
0.664856	
0.66394	
0.642761	
0.597168	
0.529114	
0.445984	
0.356262	
0.272339	
0.200012	
0.139648	
0.0927734	
0.0521851	
0.0153198	
-0.0194702	
-0.0547485	
-0.0919189	
-0.129028	
-0.1651	
-0.198547	
-0.230042	
-0.260986	
-0.28949	
-0.315247	
-0.338745	
-0.359375	
-0.380981	
-0.39978	
-0.414307	
-0.424561	
-0.432739	
-0.437683	
-0.442505	
-0.447815	
-0.454041	
-0.460144	
-0.466187	
-0.472839	
-0.47876	
-0.482117	
-0.485474	
-0.488037	
-0.484802	
-0.482178	
-0.478577	
-0.475098	
-0.473389	
-0.472656	
-0.470642	
-0.465759	
-0.461487	
-0.456421	
-0.447449	
-0.420166	
-0.352966	
-0.235291	
-0.0813599	
0.0821533	
0.232483	
0.354614	
0.447632	
0.514954	
0.562134	
0.594116	
0.616333	
0.631897	
0.63855	
0.631958	
0.605286	
0.551636	
0.479004	
0.397522	
0.317322	
0.245789	
0.185547	
0.137024	
0.0964966	
0.0615234	
0.0291138	
-0.00378418	
-0.0383911	
-0.0747681	
-0.110718	
-0.146973	
-0.183167	
-0.214172	
-0.242737	
-0.269958	
-0.295471	
-0.318787	
-0.338013	
-0.35376	
-0.366577	
-0.377319	
-0.385681	
-0.392151	
-0.398865	
-0.404968	
-0.410828	
-0.418457	
-0.424194	
-0.429932	
-0.435608	
-0.440186	
-0.443604	
-0.446533	
-0.449768	
-0.449646	
-0.447937	
-0.445496	
-0.442322	
-0.438293	
-0.433838	
-0.431335	
-0.429138	
-0.422668	
-0.401367	
-0.344238	
-0.235046	
-0.0881958	
0.0690308	
0.212097	
0.328857	
0.41626	
0.474304	
0.510071	
0.530212	
0.54248	
0.548645	
0.545349	
0.527893	
0.493286	
0.441406	
0.378601	
0.314209	
0.254395	
0.203674	
0.161621	
0.12616	
0.0953979	
0.0650635	
0.0332642	
6.10352E-05	
-0.0331421	
-0.0675659	
-0.103455	
-0.139221	
-0.173828	
-0.203735	
-0.230164	
-0.255737	
-0.280457	
-0.302246	
-0.321411	
-0.338989	
-0.354187	
-0.367065	
-0.37915	
-0.389648	
-0.397095	
-0.403564	
-0.409973	
-0.415039	
-0.420166	
-0.425537	
-0.430359	
-0.43573	
-0.442017	
-0.445251	
-0.445557	
-0.443726	
-0.441833	
-0.440186	
-0.439575	
-0.438904	
-0.43689	
-0.432434	
-0.418701	
-0.380066	
-0.294922	
-0.160217	
0.000610352	
0.160217	
0.302307	
0.415894	
0.502197	
0.562988	
0.607117	
0.638611	
0.660034	
0.67334	
0.678528	
0.669739	
0.642273	
0.592224	
0.524963	
0.44696	
0.368774	
0.296143	
0.232971	
0.181702	
0.136902	
0.0949707	
0.055542	
0.0162964	
-0.0244141	
-0.0645752	
-0.104248	
-0.142578	
-0.177917	
-0.210144	
-0.24115	
-0.269104	
-0.295166	
-0.319458	
-0.340698	
-0.359558	
-0.375854	
-0.388184	
-0.399353	
-0.409851	
-0.418579	
-0.426758	
-0.433777	
-0.439941	
-0.44635	
-0.452454	
-0.457214	
-0.461914	
-0.464233	
-0.463928	
-0.4646	
-0.463013	
-0.462158	
-0.458862	
-0.454102	
-0.452698	
-0.452209	
-0.451721	
-0.442688	
-0.412048	
-0.338257	
-0.214539	
-0.0582275	
0.106201	
0.255737	
0.377686	
0.470642	
0.536499	
0.583313	
0.616516	
0.639954	
0.656738	
0.663086	
0.655273	
0.627319	
0.574707	
0.503967	
0.424561	
0.345276	
0.272461	
0.208984	
0.15802	
0.116699	
0.0801392	
0.0437622	
0.00836182	
-0.0275269	
-0.0629272	
-0.100952	
-0.137085	
-0.171631	
-0.204041	
-0.236023	
-0.264221	
-0.291077	
-0.316162	
-0.337097	
-0.355896	
-0.372986	
-0.385742	
-0.397827	
-0.407776	
-0.415894	
-0.423401	
-0.430176	
-0.437073	
-0.443054	
-0.448547	
-0.453552	
-0.459412	
-0.463074	
-0.464844	
-0.465698	
-0.465698	
-0.465332	
-0.464661	
-0.464111	
-0.461914	
-0.45929	
-0.456787	
-0.451172	
-0.432312	
-0.379456	
-0.277161	
-0.13147	
0.0314941	
0.186218	
0.318298	
0.421021	
0.496033	
0.549133	
0.585327	
0.609192	
0.62677	
0.637878	
0.633911	
0.608765	
0.560608	
0.493958	
0.416382	
0.340576	
0.273376	
0.214111	
0.16748	
0.129944	
0.097229	
0.0654297	
0.0322266	
0	
-0.0350952	
-0.071228	
-0.105286	
-0.139099	
-0.172241	
-0.201599	
-0.230591	
-0.258118	
-0.281494	
-0.300232	
-0.316833	
-0.330627	
-0.34314	
-0.353943	
-0.362732	
-0.372131	
-0.381592	
-0.390808	
-0.39801	
-0.405762	
-0.413025	
-0.418335	
-0.419495	
-0.420654	
-0.421692	
-0.422607	
-0.423828	
-0.424377	
-0.422974	
-0.422485	
-0.422424	
-0.419312	
-0.401123	
-0.345642	
-0.239685	
-0.0985107	
0.0548706	
0.198181	
0.318909	
0.412109	
0.480835	
0.530457	
0.566162	
0.592712	
0.608826	
0.611267	
0.595703	
0.554871	
0.490784	
0.411865	
0.327393	
0.250977	
0.187012	
0.137512	
0.0976563	
0.0632935	
0.0311279	
-0.00170898	
-0.0358276	
-0.0702515	
-0.105835	
-0.139832	
-0.172913	
-0.205261	
-0.234863	
-0.262085	
-0.286316	
-0.307434	
-0.326416	
-0.343933	
-0.357483	
-0.369629	
-0.382507	
-0.394897	
-0.405029	
-0.414856	
-0.423645	
-0.430603	
-0.437195	
-0.443542	
-0.44928	
-0.452942	
-0.456238	
-0.458435	
-0.457336	
-0.456238	
-0.455444	
-0.452332	
-0.44812	
-0.44519	
-0.443665	
-0.441589	
-0.433777	
-0.40564	
-0.335876	
-0.216858	
-0.0635376	
0.0936279	
0.237488	
0.361572	
0.459839	
0.533325	
0.591858	
0.639526	
0.677063	
0.69989	
0.704529	
0.688843	
0.647522	
0.579773	
0.494141	
0.400574	
0.312012	
0.234741	
0.173279	
0.124939	
0.0856934	
0.0493774	
0.0145874	
-0.0205688	
-0.0575562	
-0.0942993	
-0.133179	
-0.171509	
-0.206848	
-0.239136	
-0.266785	
-0.292419	
-0.316101	
-0.338196	
-0.358215	
-0.377441	
-0.392212	
-0.40564	
-0.41864	
-0.428284	
-0.437927	
-0.448486	
-0.45636	
-0.463684	
-0.470337	
-0.475159	
-0.478577	
-0.479431	
-0.480591	
-0.483093	
-0.486755	
-0.487549	
-0.487183	
-0.485352	
-0.481934	
-0.480042	
-0.47583	
-0.46698	
-0.440308	
-0.377869	
-0.265381	
-0.116089	
0.0441895	
0.194275	
0.323303	
0.423401	
0.500916	
0.563782	
0.61377	
0.651245	
0.674866	
0.681152	
0.663208	
0.621399	
0.554382	
0.466187	
0.373657	
0.286743	
0.211365	
0.15094	
0.103577	
0.0645752	
0.0304565	
-0.00140381	
-0.0353394	
-0.0714111	
-0.108582	
-0.145386	
-0.180908	
-0.214478	
-0.24646	
-0.276855	
-0.305115	
-0.3302	
-0.352173	
-0.370056	
-0.385986	
-0.401001	
-0.415833	
-0.429016	
-0.440552	
-0.451599	
-0.459106	
-0.463745	
-0.471252	
-0.476746	
-0.481567	
-0.484802	
-0.485474	
-0.486389	
-0.48645	
-0.48584	
-0.48468	
-0.484619	
-0.485535	
-0.48291	
-0.479858	
-0.478699	
-0.475586	
-0.464172	
-0.427368	
-0.344299	
-0.211792	
-0.0527344	
0.106689	
0.25	
0.366455	
0.454224	
0.518921	
0.567261	
0.601624	
0.627075	
0.640259	
0.634033	
0.605652	
0.551147	
0.473511	
0.385376	
0.297852	
0.222046	
0.161316	
0.113953	
0.0773926	
0.0445557	
0.0131836	
-0.0167236	
-0.0479736	
-0.0819092	
-0.116089	
-0.151184	
-0.18689	
-0.221313	
-0.25177	
-0.278198	
-0.303833	
-0.326538	
-0.345032	
-0.360657	
-0.373962	
-0.385315	
-0.395325	
-0.404053	
-0.410767	
-0.41571	
-0.422913	
-0.431946	
-0.438843	
-0.443909	
-0.44751	
-0.450012	
-0.453369	
-0.455444	
-0.456055	
-0.456299	
-0.454346	
-0.452698	
-0.45105	
-0.449219	
-0.449402	
-0.446899	
-0.428711	
-0.374634	
-0.268616	
-0.122864	
0.0361938	
0.182983	
0.305298	
0.398987	
0.466492	
0.513672	
0.547913	
0.570557	
0.582458	
0.577942	
0.554382	
0.507996	
0.441895	
0.362488	
0.279541	
0.205322	
0.147034	
0.102905	
0.06604	
0.0361938	
0.00799561	
-0.0218506	
-0.0527344	
-0.0836182	
-0.112915	
-0.14386	
-0.172424	
-0.200439	
-0.228821	
-0.255554	
-0.281006	
-0.303528	
-0.32605	
-0.346985	
-0.362915	
-0.375671	
-0.387329	
-0.397644	
-0.406921	
-0.416931	
-0.424622	
-0.429993	
-0.434448	
-0.439392	
-0.445984	
-0.451538	
-0.457031	
-0.459106	
-0.458862	
-0.458557	
-0.455994	
-0.454895	
-0.453308	
-0.451111	
-0.450684	
-0.447327	
-0.429749	
-0.377747	
-0.272095	
-0.123596	
0.0384521	
0.193542	
0.32605	
0.431946	
0.511841	
0.57196	
0.618652	
0.656311	
0.683594	
0.695374	
0.6875	
0.657043	
0.602112	
0.526306	
0.436523	
0.343384	
0.260498	
0.192932	
0.138916	
0.0952759	
0.0578613	
0.0249023	
-0.00726318	
-0.0436401	
-0.0807495	
-0.117371	
-0.15387	
-0.188843	
-0.222778	
-0.25531	
-0.284668	
-0.311035	
-0.334595	
-0.356384	
-0.376587	
-0.392212	
-0.40625	
-0.419189	
-0.430298	
-0.440674	
-0.450317	
-0.457214	
-0.462524	
-0.46759	
-0.472778	
-0.477905	
-0.481018	
-0.481201	
-0.479492	
-0.476807	
-0.475952	
-0.474731	
-0.472229	
-0.468689	
-0.464722	
-0.459839	
-0.452576	
-0.433105	
-0.37854	
-0.271057	
-0.118835	
0.0489502	
0.204651	
0.339966	
0.449036	
0.532654	
0.593262	
0.638672	
0.673218	
0.695618	
0.70282	
0.692444	
0.6604	
0.603882	
0.524536	
0.432434	
0.341309	
0.25946	
0.191467	
0.138062	
0.0943604	
0.0576172	
0.0245361	
-0.00793457	
-0.0405884	
-0.0756836	
-0.112732	
-0.149231	
-0.185669	
-0.221741	
-0.251953	
-0.282654	
-0.310669	
-0.333923	
-0.355103	
-0.373474	
-0.387512	
-0.399109	
-0.407959	
-0.416138	
-0.421875	
-0.427734	
-0.43335	
-0.43866	
-0.445618	
-0.454651	
-0.461731	
-0.467468	
-0.473633	
-0.475891	
-0.475403	
-0.475037	
-0.473816	
-0.471558	
-0.468933	
-0.467468	
-0.464905	
-0.4599	
-0.440247	
-0.383301	
-0.274658	
-0.123352	
0.0425415	
0.196594	
0.325867	
0.428284	
0.50592	
0.562927	
0.605774	
0.636963	
0.655884	
0.659912	
0.643555	
0.605042	
0.543457	
0.460999	
0.369507	
0.281616	
0.207031	
0.146912	
0.0999146	
0.0613403	
0.0272827	
-0.00518799	
-0.0371704	
-0.0691528	
-0.103394	
-0.138306	
-0.174622	
-0.210144	
-0.242615	
-0.272888	
-0.299927	
-0.323425	
-0.343384	
-0.361328	
-0.378784	
-0.394409	
-0.407288	
-0.417847	
-0.427612	
-0.435059	
-0.443604	
-0.451477	
-0.45813	
-0.463135	
-0.467163	
-0.470642	
-0.47229	
-0.473267	
-0.473083	
-0.470947	
-0.46814	
-0.465576	
-0.462524	
-0.459106	
-0.456421	
-0.454407	
-0.44519	
-0.414001	
-0.341858	
-0.219604	
-0.0657959	
0.093811	
0.237732	
0.354919	
0.446411	
0.513977	
0.565796	
0.604736	
0.631592	
0.645752	
0.643188	
0.620117	
0.57489	
0.508179	
0.425781	
0.338928	
0.259338	
0.191162	
0.136414	
0.0911255	
0.0531616	
0.0188599	
-0.0144653	
-0.0466919	
-0.0823975	
-0.120361	
-0.156494	
-0.191162	
-0.225708	
-0.256165	
-0.285217	
-0.312439	
-0.337769	
-0.359619	
-0.378479	
-0.392822	
-0.406921	
-0.418884	
-0.427002	
-0.433716	
-0.440125	
-0.447388	
-0.455078	
-0.46167	
-0.466492	
-0.470398	
-0.472839	
-0.475281	
-0.475525	
-0.474731	
-0.471924	
-0.468567	
-0.466431	
-0.465332	
-0.46283	
-0.461426	
-0.460266	
-0.45166	
-0.419312	
-0.343445	
-0.222534	
-0.0792847	
0.0640259	
0.190125	
0.289368	
0.362427	
0.411987	
0.44397	
0.46344	
0.473694	
0.475647	
0.466675	
0.441467	
0.396667	
0.336609	
0.272766	
0.212891	
0.161255	
0.119019	
0.0836182	
0.0507202	
0.0205688	
-0.0112915	
-0.0440674	
-0.0759888	
-0.106934	
-0.136658	
-0.166565	
-0.196594	
-0.224548	
-0.250366	
-0.276306	
-0.298706	
-0.319702	
-0.339661	
-0.355347	
-0.370178	
-0.382813	
-0.394409	
-0.40509	
-0.415771	
-0.425171	
-0.434753	
-0.442688	
-0.44812	
-0.454163	
-0.461426	
-0.467163	
-0.469177	
-0.468506	
-0.467896	
-0.468689	
-0.470093	
-0.473511	
-0.476501	
-0.479187	
-0.472107	
-0.439636	
-0.365295	
-0.253174	
-0.121948	
0.00982666	
0.12616	
0.218323	
0.284363	
0.329346	
0.363037	
0.38623	
0.402649	
0.412048	
0.411987	
0.401306	
0.375732	
0.334656	
0.282654	
0.225647	
0.169495	
0.120178	
0.0789185	
0.0425415	
0.00970459	
-0.0213013	
-0.0516357	
-0.0848999	
-0.118774	
-0.152222	
-0.185059	
-0.215393	
-0.244141	
-0.271423	
-0.297363	
-0.32019	
-0.342041	
-0.361023	
-0.37738	
-0.391296	
-0.402893	
-0.412781	
-0.422546	
-0.431641	
-0.440186	
-0.446106	
-0.452026	
-0.458252	
-0.463196	
-0.468262	
-0.472717	
-0.476624	
-0.478516	
-0.48053	
-0.482422	
-0.482971	
-0.482361	
-0.483337	
-0.483582	
-0.482178	
-0.479431	
-0.472839	
-0.453247	
-0.40155	
-0.313293	
-0.200562	
-0.0814209	
0.0288696	
0.122437	
0.196228	
0.251282	
0.291321	
0.318787	
0.33844	
0.351074	
0.358032	
0.35791	
0.344727	
0.317322	
0.278992	
0.233704	
0.188416	
0.146545	
0.109863	
0.0784912	
0.0526123	
0.0281372	
0.00579834	
-0.0172119	
-0.0423584	
-0.0684814	
-0.0952759	
-0.121399	
-0.147034	
-0.170349	
-0.193359	
-0.214294	
-0.233643	
-0.250916	
-0.266907	
-0.280457	
-0.292175	
-0.304382	
-0.315002	
-0.326599	
-0.337158	
-0.34491	
-0.354004	
-0.362244	
-0.369812	
-0.375671	
-0.381531	
-0.388794	
-0.394958	
-0.399719	
-0.40155	
-0.402161	
-0.402283	
-0.404846	
-0.407104	
-0.407043	
-0.407043	
-0.407776	
-0.406677	
-0.395325	
-0.362	
-0.29248	
-0.194885	
-0.0870972	
0.0171509	
0.108765	
0.183777	
0.241211	
0.282349	
0.312012	
0.334412	
0.351074	
0.361572	
0.36438	
0.356201	
0.334778	
0.301453	
0.262451	
0.223816	
0.190125	
0.161499	
0.137024	
0.116211	
0.0971069	
0.0783081	
0.0578003	
0.0376587	
0.0165405	
-0.00592041	
-0.0263062	
-0.046875	
-0.0670166	
-0.0871582	
-0.1073	
-0.127625	
-0.146667	
-0.163757	
-0.177063	
-0.191162	
-0.205078	
-0.218445	
-0.229675	
-0.240417	
-0.252686	
-0.264282	
-0.276062	
-0.283997	
-0.292603	
-0.300537	
-0.305542	
-0.310791	
-0.315979	
-0.320923	
-0.322815	
-0.325012	
-0.32666	
-0.329468	
-0.333496	
-0.339661	
-0.34314	
-0.339478	
-0.314697	
-0.258728	
-0.172852	
-0.0718384	
0.0281372	
0.117676	
0.18988	
0.244568	
0.284058	
0.311279	
0.331055	
0.345642	
0.351807	
0.350647	
0.339233	
0.316284	
0.285217	
0.250549	
0.219788	
0.193359	
0.172974	
0.154053	
0.136658	
0.120728	
0.104492	
0.0862427	
0.0670776	
0.0460815	
0.0261841	
0.0057373	
-0.015625	
-0.0372925	
-0.057312	
-0.0765991	
-0.0947266	
-0.111694	
-0.127136	
-0.141541	
-0.154114	
-0.164429	
-0.173218	
-0.181702	
-0.18866	
-0.194763	
-0.201721	
-0.209473	
-0.215332	
-0.222168	
-0.230347	
-0.23877	
-0.247314	
-0.253906	
-0.261719	
-0.268433	
-0.272522	
-0.278076	
-0.284546	
-0.290527	
-0.295349	
-0.292603	
-0.266968	
-0.208252	
-0.118164	
-0.0128174	
0.0946045	
0.19342	
0.278198	
0.348022	
0.401978	
0.443848	
0.476074	
0.499939	
0.515686	
0.524841	
0.526001	
0.512512	
0.484619	
0.448425	
0.408203	
0.369263	
0.33374	
0.302368	
0.272949	
0.245789	
0.217407	
0.189148	
0.160645	
0.130615	
0.0997925	
0.0690918	
0.0372925	
0.00744629	
-0.0202637	
-0.0459595	
-0.0683594	
-0.0919189	
-0.114075	
-0.136536	
-0.156799	
-0.174805	
-0.192444	
-0.207764	
-0.222107	
-0.234802	
-0.247681	
-0.260559	
-0.272644	
-0.284485	
-0.296692	
-0.306641	
-0.315308	
-0.324097	
-0.330261	
-0.335327	
-0.340393	
-0.345215	
-0.351074	
-0.357971	
-0.363525	
-0.368225	
-0.37262	
-0.37439	
-0.364319	
-0.321899	
-0.239502	
-0.125122	
-0.000366211	
0.122009	
0.233459	
0.327209	
0.402588	
0.459473	
0.502075	
0.534058	
0.557556	
0.57251	
0.576233	
0.568237	
0.543945	
0.506165	
0.460449	
0.410583	
0.360962	
0.315125	
0.272949	
0.236267	
0.203552	
0.172058	
0.139832	
0.105957	
0.0710449	
0.0363159	
0.00274658	
-0.029541	
-0.0602417	
-0.0906982	
-0.120911	
-0.150208	
-0.177673	
-0.203308	
-0.224609	
-0.245667	
-0.264526	
-0.281982	
-0.298767	
-0.311584	
-0.323364	
-0.335205	
-0.343994	
-0.3526	
-0.363892	
-0.375732	
-0.387085	
-0.396545	
-0.403198	
-0.407043	
-0.411499	
-0.413696	
-0.416077	
-0.417786	
-0.419067	
-0.420654	
-0.423279	
-0.425842	
-0.424438	
-0.418518	
-0.393738	
-0.332642	
-0.231323	
-0.102844	
0.0335693	
0.159729	
0.269775	
0.358093	
0.423218	
0.467834	
0.495422	
0.511963	
0.51886	
0.516418	
0.505798	
0.483704	
0.449463	
0.402161	
0.34967	
0.294922	
0.242859	
0.197998	
0.160583	
0.128479	
0.10022	
0.0708008	
0.0409546	
0.00866699	
-0.0273438	
-0.0635376	
-0.100525	
-0.137024	
-0.170471	
-0.200562	
-0.226013	
-0.250671	
-0.275085	
-0.297668	
-0.315369	
-0.330933	
-0.343689	
-0.356445	
-0.3703	
-0.383057	
-0.396606	
-0.40863	
-0.418762	
-0.427368	
-0.43512	
-0.443115	
-0.449829	
-0.455811	
-0.462219	
-0.466675	
-0.469727	
-0.469116	
-0.467285	
-0.465881	
-0.464722	
-0.463501	
-0.46283	
-0.462219	
-0.459656	
-0.451477	
-0.422607	
-0.353149	
-0.240845	
-0.102051	
0.041626	
0.173218	
0.282898	
0.363708	
0.41687	
0.447754	
0.462341	
0.468262	
0.466797	
0.457458	
0.43866	
0.407104	
0.362549	
0.311035	
0.259521	
0.213135	
0.172607	
0.138733	
0.111267	
0.086792	
0.0629272	
0.0391235	
0.0145264	
-0.0134277	
-0.0426636	
-0.0725708	
-0.103699	
-0.13385	
-0.162048	
-0.189758	
-0.216553	
-0.240906	
-0.261719	
-0.283752	
-0.302063	
-0.316711	
-0.327271	
-0.337708	
-0.348267	
-0.359375	
-0.368896	
-0.375427	
-0.382813	
-0.390991	
-0.3974	
-0.401978	
-0.407288	
-0.411377	
-0.413391	
-0.416016	
-0.417664	
-0.416931	
-0.415344	
-0.415344	
-0.415833	
-0.416626	
-0.413391	
-0.397095	
-0.346802	
-0.251892	
-0.122803	
0.019043	
0.153015	
0.265869	
0.348877	
0.401245	
0.429443	
0.441956	
0.446106	
0.444153	
0.43512	
0.415649	
0.38208	
0.335693	
0.285095	
0.238953	
0.197571	
0.158691	
0.124817	
0.0962524	
0.0708008	
0.0455322	
0.0182495	
-0.0109863	
-0.0412598	
-0.0708008	
-0.0994263	
-0.128174	
-0.156616	
-0.183716	
-0.20752	
-0.229858	
-0.251038	
-0.271606	
-0.290588	
-0.307495	
-0.321777	
-0.334045	
-0.344543	
-0.354126	
-0.364136	
-0.372498	
-0.380554	
-0.389282	
-0.398682	
-0.404236	
-0.409241	
-0.414429	
-0.420227	
-0.423523	
-0.425354	
-0.426025	
-0.425171	
-0.425293	
-0.425415	
-0.424561	
-0.423523	
-0.416443	
-0.385254	
-0.310852	
-0.192932	
-0.0487671	
0.100281	
0.235107	
0.345886	
0.428223	
0.483887	
0.520508	
0.543701	
0.555786	
0.561096	
0.557251	
0.541931	
0.514893	
0.471497	
0.417908	
0.358765	
0.301636	
0.248962	
0.203186	
0.166077	
0.132202	
0.0991821	
0.067688	
0.0358887	
0.00274658	
-0.0322266	
-0.067627	
-0.101624	
-0.133545	
-0.165405	
-0.195862	
-0.223816	
-0.250244	
-0.275208	
-0.297119	
-0.316406	
-0.335205	
-0.352966	
-0.370056	
-0.383789	
-0.39563	
-0.405457	
-0.414429	
-0.421631	
-0.427063	
-0.434265	
-0.44165	
-0.447815	
-0.4552	
-0.461914	
-0.466431	
-0.467468	
-0.467896	
-0.467102	
-0.46637	
-0.465088	
-0.462341	
-0.45929	
-0.454529	
-0.435608	
-0.380554	
-0.277588	
-0.136841	
0.0202026	
0.171448	
0.298889	
0.399109	
0.468567	
0.515503	
0.545654	
0.566528	
0.579224	
0.581482	
0.575684	
0.555725	
0.520691	
0.469238	
0.408875	
0.343506	
0.281067	
0.22876	
0.18335	
0.144775	
0.110168	
0.0777588	
0.0448608	
0.0111084	
-0.0239258	
-0.0604248	
-0.0985107	
-0.135071	
-0.170471	
-0.203369	
-0.233093	
-0.26416	
-0.290283	
-0.313843	
-0.334839	
-0.354614	
-0.37384	
-0.390198	
-0.403076	
-0.415771	
-0.426208	
-0.435242	
-0.442749	
-0.448914	
-0.454956	
-0.460266	
-0.466003	
-0.470703	
-0.475159	
-0.477417	
-0.481079	
-0.483704	
-0.484985	
-0.484558	
-0.483154	
-0.480835	
-0.478149	
-0.474976	
-0.46698	
-0.440857	
-0.372437	
-0.256348	
-0.106628	
0.0510254	
0.194031	
0.313232	
0.404236	
0.467468	
0.508606	
0.533569	
0.549927	
0.5578	
0.557861	
0.548218	
0.522888	
0.479858	
0.422974	
0.356445	
0.2901	
0.229248	
0.178955	
0.13916	
0.103943	
0.0707397	
0.0367432	
0.0020752	
-0.0321655	
-0.0662231	
-0.10022	
-0.133911	
-0.168152	
-0.199402	
-0.23175	
-0.261169	
-0.28894	
-0.314453	
-0.338135	
-0.356689	
-0.370789	
-0.383484	
-0.393677	
-0.402161	
-0.411316	
-0.419739	
-0.426086	
-0.431824	
-0.438049	
-0.444519	
-0.450684	
-0.456848	
-0.46228	
-0.467896	
-0.473145	
-0.476807	
-0.47821	
-0.477539	
-0.474792	
-0.471497	
-0.467773	
-0.46637	
-0.465881	
-0.465332	
-0.455444	
-0.415344	
-0.32666	
-0.192871	
-0.0380249	
0.112549	
0.241394	
0.337036	
0.401062	
0.442078	
0.467102	
0.478638	
0.479736	
0.473389	
0.457642	
0.427368	
0.382507	
0.326538	
0.268799	
0.21637	
0.174744	
0.142761	
0.116638	
0.0913696	
0.0664673	
0.0402222	
0.0120239	
-0.0201416	
-0.0543823	
-0.0872803	
-0.11969	
-0.150513	
-0.180786	
-0.20813	
-0.231201	
-0.256226	
-0.278503	
-0.296387	
-0.310974	
-0.325012	
-0.337891	
-0.348694	
-0.358398	
-0.36792	
-0.375854	
-0.382629	
-0.39032	
-0.39917	
-0.405518	
-0.410461	
-0.415222	
-0.419128	
-0.421204	
-0.423828	
-0.426331	
-0.427917	
-0.428711	
-0.431519	
-0.434021	
-0.432617	
-0.415833	
-0.364624	
-0.266174	
-0.126343	
0.0305176	
0.176758	
0.296021	
0.383301	
0.441956	
0.477295	
0.496338	
0.505371	
0.506226	
0.499084	
0.481567	
0.449402	
0.401733	
0.341125	
0.278015	
0.221252	
0.173157	
0.138062	
0.109131	
0.0836792	
0.0579834	
0.0324707	
0.00231934	
-0.0313721	
-0.0640259	
-0.0963135	
-0.129456	
-0.161682	
-0.192688	
-0.221741	
-0.249146	
-0.273926	
-0.296631	
-0.318481	
-0.337585	
-0.353027	
-0.365601	
-0.377625	
-0.389038	
-0.399292	
-0.409973	
-0.418274	
-0.423828	
-0.429993	
-0.436096	
-0.441833	
-0.445679	
-0.445801	
-0.446045	
-0.44696	
-0.447632	
-0.446289	
-0.443787	
-0.442688	
-0.441589	
-0.440735	
-0.433594	
-0.403442	
-0.329407	
-0.205322	
-0.0510254	
0.107422	
0.248108	
0.359131	
0.441895	
0.496399	
0.531494	
0.553467	
0.565308	
0.56842	
0.564697	
0.550537	
0.522766	
0.478577	
0.419922	
0.351135	
0.283081	
0.224487	
0.175293	
0.134277	
0.0971069	
0.0645142	
0.0328979	
6.10352E-05	
-0.0360718	
-0.0731812	
-0.108337	
-0.142883	
-0.177368	
-0.210449	
-0.243042	
-0.271912	
-0.297729	
-0.323425	
-0.346252	
-0.367676	
-0.384521	
-0.398621	
-0.411011	
-0.420837	
-0.429504	
-0.437866	
-0.444946	
-0.450806	
-0.457397	
-0.462952	
-0.468994	
-0.474304	
-0.477234	
-0.478455	
-0.479675	
-0.480774	
-0.479736	
-0.476807	
-0.475647	
-0.474365	
-0.47345	
-0.472595	
-0.462646	
-0.42865	
-0.350891	
-0.222839	
-0.06427	
0.097168	
0.239197	
0.355713	
0.443481	
0.505371	
0.547546	
0.574951	
0.591187	
0.599731	
0.598022	
0.585571	
0.561768	
0.522705	
0.46698	
0.39856	
0.327881	
0.261658	
0.204651	
0.158142	
0.120361	
0.0839844	
0.0493774	
0.0128784	
-0.0261841	
-0.0651855	
-0.103333	
-0.143127	
-0.180725	
-0.213379	
-0.241455	
-0.270142	
-0.298462	
-0.324036	
-0.345764	
-0.366394	
-0.386719	
-0.403198	
-0.415222	
-0.426697	
-0.435852	
-0.444702	
-0.45166	
-0.459961	
-0.464844	
-0.46936	
-0.474121	
-0.4776	
-0.484131	
-0.487976	
-0.490479	
-0.490601	
-0.489319	
-0.488831	
-0.487427	
-0.484985	
-0.482178	
-0.480103	
-0.477722	
-0.466736	
-0.431641	
-0.3479	
-0.213867	
-0.0508423	
0.11438	
0.260376	
0.377197	
0.464966	
0.523438	
0.562317	
0.586121	
0.600769	
0.607117	
0.60614	
0.596497	
0.570374	
0.525635	
0.463745	
0.39325	
0.322754	
0.259094	
0.203918	
0.161377	
0.124268	
0.0910034	
0.0571289	
0.0213623	
-0.015564	
-0.0543823	
-0.0950317	
-0.133972	
-0.171448	
-0.20813	
-0.24054	
-0.267517	
-0.294373	
-0.318054	
-0.340149	
-0.358826	
-0.375366	
-0.390442	
-0.40332	
-0.411621	
-0.41803	
-0.425537	
-0.43573	
-0.444763	
-0.451416	
-0.458313	
-0.464478	
-0.470642	
-0.47467	
-0.478271	
-0.48053	
-0.481628	
-0.481323	
-0.480408	
-0.477966	
-0.474365	
-0.469482	
-0.464661	
-0.460083	
-0.448486	
-0.410583	
-0.329407	
-0.196716	
-0.0330811	
0.131104	
0.275024	
0.390015	
0.472168	
0.526367	
0.562195	
0.584106	
0.594055	
0.596619	
0.590881	
0.574341	
0.544434	
0.496033	
0.434204	
0.365662	
0.298889	
0.240723	
0.191772	
0.151855	
0.117188	
0.0856323	
0.053894	
0.0184937	
-0.0172729	
-0.0535889	
-0.0917969	
-0.129028	
-0.16272	
-0.195801	
-0.226929	
-0.256409	
-0.283936	
-0.307922	
-0.329712	
-0.349426	
-0.365967	
-0.381104	
-0.391724	
-0.40033	
-0.409668	
-0.416504	
-0.424194	
-0.433411	
-0.440918	
-0.446899	
-0.451904	
-0.456055	
-0.45929	
-0.462646	
-0.465149	
-0.466187	
-0.465759	
-0.464661	
-0.46283	
-0.460083	
-0.456177	
-0.451965	
-0.447571	
-0.441895	
-0.421997	
-0.362976	
-0.25177	
-0.0981445	
0.0691528	
0.226074	
0.355469	
0.454773	
0.523499	
0.567688	
0.593872	
0.605286	
0.607788	
0.603577	
0.589233	
0.564514	
0.522705	
0.465759	
0.399231	
0.332336	
0.272156	
0.222351	
0.18042	
0.143372	
0.109924	
0.0767822	
0.0430908	
0.0098877	
-0.0239868	
-0.0593872	
-0.0958252	
-0.131714	
-0.166138	
-0.197998	
-0.228149	
-0.254822	
-0.279785	
-0.304565	
-0.327454	
-0.347168	
-0.362366	
-0.374817	
-0.386414	
-0.396973	
-0.40448	
-0.413757	
-0.421814	
-0.429443	
-0.436279	
-0.442444	
-0.447571	
-0.451233	
-0.45459	
-0.455994	
-0.456543	
-0.456787	
-0.456787	
-0.456116	
-0.456177	
-0.454956	
-0.453003	
-0.449402	
-0.44519	
-0.436035	
-0.405457	
-0.331116	
-0.205017	
-0.0453491	
0.119812	
0.266663	
0.386658	
0.476379	
0.535461	
0.570984	
0.591675	
0.602356	
0.603821	
0.59491	
0.574097	
0.539307	
0.488342	
0.426514	
0.362305	
0.300049	
0.243652	
0.19696	
0.163025	
0.133057	
0.102295	
0.0703735	
0.0376587	
0.00195313	
-0.0355835	
-0.0717773	
-0.107483	
-0.141785	
-0.173401	
-0.202759	
-0.229736	
-0.255066	
-0.277405	
-0.299561	
-0.320251	
-0.338623	
-0.355286	
-0.368713	
-0.379944	
-0.389038	
-0.399292	
-0.406738	
-0.414124	
-0.421936	
-0.429199	
-0.433472	
-0.438293	
-0.442505	
-0.444824	
-0.44873	
-0.450134	
-0.449036	
-0.447754	
-0.447144	
-0.444946	
-0.442078	
-0.438843	
-0.434814	
-0.429688	
-0.408325	
-0.351929	
-0.243835	
-0.0950317	
0.069397	
0.225647	
0.354553	
0.45166	
0.519409	
0.562622	
0.587952	
0.601746	
0.604614	
0.599365	
0.58429	
0.555725	
0.513245	
0.456848	
0.390076	
0.324524	
0.266724	
0.218262	
0.177979	
0.142578	
0.110046	
0.0762329	
0.0405273	
0.0032959	
-0.0341797	
-0.0727539	
-0.109619	
-0.144287	
-0.17865	
-0.21167	
-0.24054	
-0.266357	
-0.289551	
-0.311096	
-0.330811	
-0.348328	
-0.362305	
-0.373901	
-0.38562	
-0.39563	
-0.403687	
-0.411987	
-0.4198	
-0.426697	
-0.433899	
-0.439697	
-0.445557	
-0.450684	
-0.455139	
-0.456421	
-0.455444	
-0.452759	
-0.450378	
-0.448608	
-0.448547	
-0.447205	
-0.445068	
-0.443359	
-0.437317	
-0.419434	
-0.373047	
-0.277649	
-0.137085	
0.0247803	
0.182129	
0.318481	
0.424255	
0.498779	
0.546814	
0.575867	
0.592285	
0.598999	
0.597473	
0.585999	
0.56134	
0.518555	
0.459961	
0.391846	
0.324097	
0.264648	
0.214294	
0.171936	
0.135315	
0.102539	
0.0700684	
0.0368652	
0.00146484	
-0.036377	
-0.0758057	
-0.114563	
-0.152039	
-0.18457	
-0.216675	
-0.246643	
-0.27478	
-0.299438	
-0.32135	
-0.340881	
-0.359192	
-0.373657	
-0.386597	
-0.395935	
-0.404236	
-0.411011	
-0.416748	
-0.422791	
-0.429871	
-0.437622	
-0.445251	
-0.45166	
-0.456543	
-0.459839	
-0.462891	
-0.464478	
-0.464722	
-0.462891	
-0.460632	
-0.458374	
-0.457397	
-0.454773	
-0.451294	
-0.444092	
-0.429749	
-0.392761	
-0.313538	
-0.186035	
-0.0249023	
0.139038	
0.282349	
0.397461	
0.480896	
0.535583	
0.568176	
0.588257	
0.598694	
0.600464	
0.591492	
0.571228	
0.534424	
0.479614	
0.413757	
0.34375	
0.278625	
0.223511	
0.178711	
0.141052	
0.107483	
0.0762939	
0.0438843	
0.00958252	
-0.0255127	
-0.0610352	
-0.0975342	
-0.133179	
-0.167297	
-0.200012	
-0.230774	
-0.257324	
-0.280273	
-0.301086	
-0.320618	
-0.338867	
-0.354187	
-0.368835	
-0.381042	
-0.391418	
-0.401306	
-0.410645	
-0.419678	
-0.427612	
-0.434204	
-0.43988	
-0.445251	
-0.448669	
-0.450989	
-0.45282	
-0.453491	
-0.452148	
-0.450989	
-0.449768	
-0.448303	
-0.446228	
-0.444275	
-0.442017	
-0.439209	
-0.430237	
-0.400146	
-0.328308	
-0.203857	
-0.0449219	
0.117493	
0.262756	
0.381348	
0.466309	
0.523804	
0.561035	
0.582703	
0.593933	
0.596375	
0.590515	
0.573425	
0.538513	
0.485229	
0.418457	
0.348694	
0.283569	
0.22644	
0.177795	
0.137695	
0.10321	
0.0692749	
0.0350342	
-0.000915527	
-0.0401001	
-0.0774536	
-0.113281	
-0.1474	
-0.179199	
-0.20929	
-0.238159	
-0.265564	
-0.2901	
-0.311462	
-0.33075	
-0.348755	
-0.364319	
-0.375854	
-0.386536	
-0.394409	
-0.400452	
-0.407837	
-0.416504	
-0.425232	
-0.434692	
-0.442566	
-0.447449	
-0.452759	
-0.456421	
-0.458191	
-0.458801	
-0.455811	
-0.452026	
-0.450134	
-0.44928	
-0.448303	
-0.446533	
-0.443665	
-0.440552	
-0.42981	
-0.399597	
-0.330627	
-0.211548	
-0.0568237	
0.104187	
0.249329	
0.368164	
0.456848	
0.515137	
0.552734	
0.578308	
0.591614	
0.59729	
0.593933	
0.578613	
0.546692	
0.495422	
0.429016	
0.357178	
0.288635	
0.229675	
0.180725	
0.140076	
0.104492	
0.0718994	
0.0377808	
0.00189209	
-0.0344238	
-0.0734253	
-0.109863	
-0.144714	
-0.177429	
-0.206604	
-0.235596	
-0.261475	
-0.285645	
-0.308777	
-0.329102	
-0.344971	
-0.358887	
-0.371277	
-0.381287	
-0.390686	
-0.398804	
-0.404968	
-0.409607	
-0.415466	
-0.42218	
-0.430237	
-0.436157	
-0.442322	
-0.44812	
-0.452087	
-0.453674	
-0.454224	
-0.453308	
-0.450867	
-0.44812	
-0.445923	
-0.442627	
-0.438477	
-0.434631	
-0.425232	
-0.400757	
-0.338196	
-0.227051	
-0.0764771	
0.0861816	
0.235474	
0.357727	
0.448486	
0.51062	
0.550598	
0.574646	
0.589111	
0.596375	
0.59491	
0.581177	
0.550171	
0.499512	
0.43573	
0.365479	
0.297302	
0.236816	
0.186035	
0.144592	
0.106628	
0.0708618	
0.0341797	
-0.00262451	
-0.0377197	
-0.0726318	
-0.108765	
-0.1474	
-0.182434	
-0.216248	
-0.247009	
-0.274109	
-0.298889	
-0.321472	
-0.340942	
-0.357361	
-0.369934	
-0.381653	
-0.391785	
-0.39978	
-0.407227	
-0.415344	
-0.422607	
-0.431091	
-0.437866	
-0.444275	
-0.450317	
-0.455078	
-0.457703	
-0.458984	
-0.461121	
-0.460938	
-0.458435	
-0.455811	
-0.45166	
-0.447693	
-0.445862	
-0.444397	
-0.442749	
-0.439392	
-0.427856	
-0.393005	
-0.311768	
-0.180603	
-0.019104	
0.142639	
0.284546	
0.396667	
0.47644	
0.528503	
0.563049	
0.58197	
0.589111	
0.590332	
0.585632	
0.568787	
0.533813	
0.47876	
0.411133	
0.342041	
0.276306	
0.218445	
0.17041	
0.130066	
0.0941162	
0.0598145	
0.0231934	
-0.0130615	
-0.0507813	
-0.0894165	
-0.125305	
-0.160034	
-0.193054	
-0.222351	
-0.251099	
-0.277405	
-0.299866	
-0.320679	
-0.3396	
-0.357239	
-0.373291	
-0.384949	
-0.395508	
-0.404053	
-0.411682	
-0.418945	
-0.42627	
-0.4328	
-0.438232	
-0.442871	
-0.448181	
-0.454163	
-0.457642	
-0.458679	
-0.459045	
-0.456848	
-0.453064	
-0.449463	
-0.445557	
-0.441345	
-0.438293	
-0.436279	
-0.433777	
-0.428223	
-0.405273	
-0.346069	
-0.236389	
-0.0859985	
0.0756836	
0.226807	
0.350281	
0.441772	
0.503174	
0.542725	
0.566772	
0.579834	
0.583984	
0.579224	
0.562988	
0.533875	
0.488892	
0.427917	
0.358765	
0.291199	
0.230469	
0.181335	
0.139709	
0.10553	
0.0747681	
0.0436401	
0.0102539	
-0.0249023	
-0.0608521	
-0.0986328	
-0.137573	
-0.173828	
-0.205139	
-0.233643	
-0.260925	
-0.286621	
-0.310059	
-0.331909	
-0.350708	
-0.366882	
-0.38269	
-0.395508	
-0.405945	
-0.415039	
-0.422729	
-0.429077	
-0.435303	
-0.443359	
-0.450867	
-0.456177	
-0.45874	
-0.463867	
-0.46759	
-0.469116	
-0.469055	
-0.467773	
-0.46698	
-0.462891	
-0.460144	
-0.455566	
-0.451904	
-0.450073	
-0.447327	
-0.438049	
-0.406677	
-0.329346	
-0.202393	
-0.0424194	
0.120544	
0.264709	
0.375854	
0.453369	
0.502625	
0.530396	
0.541992	
0.543518	
0.540039	
0.528625	
0.504883	
0.466248	
0.412598	
0.351685	
0.290649	
0.235596	
0.191711	
0.155945	
0.125061	
0.0970459	
0.0702515	
0.0405273	
0.00848389	
-0.0238037	
-0.0584106	
-0.0933838	
-0.127502	
-0.159119	
-0.189331	
-0.216919	
-0.242981	
-0.266479	
-0.285645	
-0.302002	
-0.315491	
-0.328613	
-0.337891	
-0.345459	
-0.351013	
-0.355835	
-0.360291	
-0.366394	
-0.372986	
-0.378418	
-0.382935	
-0.386536	
-0.389771	
-0.393799	
-0.3974	
-0.400269	
-0.401245	
-0.400452	
-0.398987	
-0.395935	
-0.394714	
-0.393921	
-0.385071	
-0.350403	
-0.274109	
-0.15033	
0.00170898	
0.154175	
0.284973	
0.387146	
0.455994	
0.49939	
0.524536	
0.53479	
0.536804	
0.530029	
0.516541	
0.490173	
0.447571	
0.393555	
0.332336	
0.271912	
0.21698	
0.170654	
0.132141	
0.0997925	
0.0700684	
0.0407715	
0.0078125	
-0.0254517	
-0.0598755	
-0.0958862	
-0.130127	
-0.164307	
-0.196716	
-0.227173	
-0.254578	
-0.278931	
-0.2995	
-0.320068	
-0.338562	
-0.355469	
-0.368164	
-0.377869	
-0.386353	
-0.395813	
-0.403015	
-0.40979	
-0.415466	
-0.420166	
-0.424622	
-0.429871	
-0.434814	
-0.439575	
-0.442688	
-0.44458	
-0.443604	
-0.442444	
-0.441406	
-0.438477	
-0.436584	
-0.434265	
-0.433533	
-0.428589	
-0.405945	
-0.345337	
-0.23114	
-0.0747681	
0.0960083	
0.254639	
0.384521	
0.481506	
0.547241	
0.588745	
0.614197	
0.630005	
0.636353	
0.636292	
0.626892	
0.604065	
0.564026	
0.505676	
0.437561	
0.36554	
0.299133	
0.241882	
0.195923	
0.155762	
0.119385	
0.0842896	
0.0480347	
0.0102539	
-0.0285645	
-0.0686035	
-0.108521	
-0.144043	
-0.178406	
-0.211365	
-0.241272	
-0.269104	
-0.294067	
-0.3172	
-0.337402	
-0.354858	
-0.36969	
-0.382996	
-0.394043	
-0.403381	
-0.41272	
-0.421143	
-0.428833	
-0.43573	
-0.443054	
-0.451111	
-0.458374	
-0.464478	
-0.468262	
-0.469666	
-0.469299	
-0.467529	
-0.467651	
-0.46875	
-0.469116	
-0.468323	
-0.465393	
-0.459167	
-0.436707	
-0.379822	
-0.272522	
-0.123901	
0.0372314	
0.185181	
0.30896	
0.403259	
0.467712	
0.509827	
0.537109	
0.552673	
0.560364	
0.560425	
0.549011	
0.523438	
0.481689	
0.426208	
0.361572	
0.295166	
0.23407	
0.183777	
0.141541	
0.105835	
0.0733643	
0.0411987	
0.00878906	
-0.0248413	
-0.0604858	
-0.0956421	
-0.130127	
-0.164368	
-0.196106	
-0.224243	
-0.253113	
-0.280334	
-0.30365	
-0.322937	
-0.339844	
-0.357239	
-0.371582	
-0.384033	
-0.393738	
-0.40332	
-0.412659	
-0.422485	
-0.431946	
-0.439087	
-0.443909	
-0.448364	
-0.450378	
-0.451416	
-0.452759	
-0.453186	
-0.454163	
-0.453735	
-0.451721	
-0.448792	
-0.448608	
-0.445129	
-0.427185	
-0.375732	
-0.279541	
-0.14624	
-0.00323486	
0.134216	
0.250916	
0.339355	
0.403564	
0.445129	
0.469849	
0.485291	
0.491333	
0.49176	
0.482605	
0.458923	
0.415161	
0.356934	
0.29248	
0.229675	
0.17511	
0.129639	
0.0922852	
0.0612793	
0.0322876	
0.00299072	
-0.0287476	
-0.0625	
-0.0964355	
-0.130066	
-0.16394	
-0.195557	
-0.224548	
-0.250305	
-0.275085	
-0.297668	
-0.317444	
-0.333984	
-0.349304	
-0.362427	
-0.372925	
-0.384521	
-0.393555	
-0.401001	
-0.406372	
-0.410034	
-0.414307	
-0.419495	
-0.424194	
-0.42865	
-0.431763	
-0.433899	
-0.435486	
-0.435669	
-0.435669	
-0.434998	
-0.431458	
-0.430359	
-0.429749	
-0.42981	
-0.428101	
-0.418945	
-0.390747	
-0.324646	
-0.215393	
-0.074707	
0.072937	
0.207336	
0.317322	
0.400085	
0.459595	
0.499878	
0.52478	
0.540588	
0.548645	
0.549011	
0.536926	
0.510864	
0.46759	
0.411926	
0.348938	
0.286194	
0.22876	
0.181396	
0.143372	
0.110779	
0.0778198	
0.0460205	
0.0140381	
-0.020752	
-0.0563354	
-0.0928345	
-0.127991	
-0.160706	
-0.191833	
-0.221069	
-0.248047	
-0.271667	
-0.293823	
-0.312622	
-0.328796	
-0.34198	
-0.354431	
-0.366699	
-0.377319	
-0.386597	
-0.393555	
-0.400818	
-0.409302	
-0.416565	
-0.42395	
-0.431396	
-0.437012	
-0.441345	
-0.441467	
-0.442566	
-0.441772	
-0.43988	
-0.436462	
-0.433167	
-0.42981	
-0.426697	
-0.423279	
-0.418335	
-0.403748	
-0.362488	
-0.278137	
-0.152588	
-0.00756836	
0.134094	
0.258362	
0.355713	
0.425293	
0.473267	
0.50708	
0.529968	
0.541382	
0.544556	
0.537476	
0.518738	
0.480774	
0.429199	
0.370056	
0.3078	
0.247864	
0.197998	
0.156433	
0.122009	
0.0877686	
0.0545044	
0.0236206	
-0.00897217	
-0.0437622	
-0.0785522	
-0.114136	
-0.149231	
-0.182129	
-0.212341	
-0.237549	
-0.264832	
-0.28833	
-0.309631	
-0.327332	
-0.342041	
-0.357056	
-0.369751	
-0.380066	
-0.38916	
-0.397034	
-0.403931	
-0.409973	
-0.415588	
-0.421143	
-0.426636	
-0.43042	
-0.43457	
-0.437988	
-0.440369	
-0.441467	
-0.439819	
-0.438477	
-0.436157	
-0.433228	
-0.429993	
-0.427185	
-0.421448	
-0.41217	
-0.38208	
-0.314087	
-0.20166	
-0.0611572	
0.0840454	
0.216736	
0.324707	
0.40332	
0.455505	
0.488708	
0.508606	
0.516968	
0.516785	
0.510864	
0.495056	
0.467285	
0.427551	
0.376465	
0.321472	
0.268982	
0.224854	
0.187561	
0.154236	
0.124084	
0.0942993	
0.0637207	
0.0306396	
-0.00415039	
-0.0379639	
-0.0730591	
-0.108276	
-0.141052	
-0.171204	
-0.19812	
-0.221619	
-0.242432	
-0.262146	
-0.282654	
-0.300842	
-0.317017	
-0.330139	
-0.339844	
-0.349243	
-0.358032	
-0.36438	
-0.369812	
-0.374939	
-0.378235	
-0.381287	
-0.383911	
-0.384399	
-0.386719	
-0.388916	
-0.388123	
-0.387573	
-0.388062	
-0.387817	
-0.385132	
-0.383728	
-0.38324	
-0.373596	
-0.340576	
-0.266418	
-0.149292	
-0.0106812	
0.127747	
0.248962	
0.344727	
0.413818	
0.460205	
0.489319	
0.504822	
0.511169	
0.509338	
0.496155	
0.469971	
0.429688	
0.377075	
0.317993	
0.25769	
0.205078	
0.160156	
0.12439	
0.093689	
0.0632324	
0.0346069	
0.00476074	
-0.0244751	
-0.0554199	
-0.0870361	
-0.119202	
-0.1521	
-0.183533	
-0.213135	
-0.238953	
-0.261292	
-0.281921	
-0.300598	
-0.317078	
-0.332703	
-0.348755	
-0.361877	
-0.37146	
-0.381042	
-0.390137	
-0.396667	
-0.403503	
-0.410217	
-0.415283	
-0.420532	
-0.425537	
-0.428894	
-0.431885	
-0.433777	
-0.43457	
-0.434998	
-0.432922	
-0.431152	
-0.43042	
-0.430176	
-0.429871	
-0.424866	
-0.406372	
-0.355408	
-0.25415	
-0.113464	
0.0422363	
0.191101	
0.31842	
0.417786	
0.489868	
0.538452	
0.567261	
0.58429	
0.594055	
0.595459	
0.587891	
0.567017	
0.527954	
0.473145	
0.40918	
0.341919	
0.279053	
0.226501	
0.182068	
0.143494	
0.108887	
0.0777588	
0.0452271	
0.0123901	
-0.022522	
-0.0610962	
-0.0987549	
-0.133301	
-0.165649	
-0.196838	
-0.227051	
-0.256409	
-0.281189	
-0.302612	
-0.320679	
-0.334778	
-0.34845	
-0.361572	
-0.374207	
-0.386292	
-0.398926	
-0.407654	
-0.416321	
-0.423279	
-0.427795	
-0.432495	
-0.436523	
-0.438538	
-0.439941	
-0.440979	
-0.440308	
-0.438599	
-0.436035	
-0.433655	
-0.431885	
-0.428711	
-0.425171	
-0.418335	
-0.393311	
-0.332825	
-0.224915	
-0.0830078	
0.0690308	
0.209839	
0.326538	
0.414978	
0.476929	
0.51709	
0.541626	
0.556458	
0.562805	
0.559875	
0.545837	
0.517639	
0.473572	
0.414612	
0.348511	
0.284668	
0.228333	
0.180664	
0.139771	
0.102783	
0.0683594	
0.0366211	
0.00274658	
-0.0310059	
-0.0683594	
-0.106934	
-0.143738	
-0.17749	
-0.20697	
-0.234497	
-0.260376	
-0.285034	
-0.307007	
-0.324463	
-0.340576	
-0.355042	
-0.36676	
-0.377075	
-0.387024	
-0.397522	
-0.406921	
-0.415588	
-0.424133	
-0.433716	
-0.44043	
-0.446594	
-0.451355	
-0.454041	
-0.455139	
-0.45697	
-0.457275	
-0.457581	
-0.456238	
-0.45459	
-0.453491	
-0.451721	
-0.447021	
-0.4375	
-0.411804	
-0.346375	
-0.232483	
-0.0844116	
0.0713501	
0.214844	
0.33136	
0.4198	
0.481995	
0.520569	
0.542847	
0.554321	
0.558838	
0.552551	
0.535522	
0.503174	
0.453674	
0.391785	
0.324646	
0.262024	
0.209229	
0.164978	
0.128662	
0.0974731	
0.0681763	
0.038208	
0.00738525	
-0.0262451	
-0.0599365	
-0.0952759	
-0.132751	
-0.169067	
-0.200623	
-0.22998	
-0.258057	
-0.284607	
-0.307861	
-0.329041	
-0.345947	
-0.359619	
-0.371277	
-0.380249	
-0.387817	
-0.394958	
-0.402832	
-0.41095	
-0.419617	
-0.427429	
-0.433655	
-0.439819	
-0.444885	
-0.44635	
-0.444275	
-0.441345	
-0.436951	
-0.433228	
-0.430481	
-0.428833	
-0.428284	
-0.427368	
-0.422913	
-0.39856	
-0.33606	
-0.224854	
-0.0807495	
0.0696411	
0.202881	
0.308228	
0.384766	
0.431335	
0.457947	
0.47113	
0.475159	
0.470154	
0.455811	
0.426025	
0.37854	
0.322693	
0.263794	
0.208618	
0.163147	
0.128906	
0.100342	
0.0731201	
0.0475464	
0.024231	
-0.00299072	
-0.0323486	
-0.0648804	
-0.0966797	
-0.128601	
-0.159546	
-0.187866	
-0.215149	
-0.240173	
-0.263428	
-0.285583	
-0.304932	
-0.321716	
-0.33728	
-0.348633	
-0.36084	
-0.371887	
-0.381104	
-0.38916	
-0.396851	
-0.404602	
-0.412537	
-0.419983	
-0.42572	
-0.429565	
-0.431702	
-0.432007	
-0.431519	
-0.432556	
-0.43158	
-0.430847	
-0.427734	
-0.425781	
-0.423279	
-0.409119	
-0.365662	
-0.275452	
-0.139832	
0.0186157	
0.172546	
0.303894	
0.408081	
0.485901	
0.540161	
0.574951	
0.597229	
0.608948	
0.612976	
0.607239	
0.587402	
0.550293	
0.494507	
0.423889	
0.347961	
0.277954	
0.217346	
0.168213	
0.12854	
0.0938721	
0.0611572	
0.0298462	
-0.00415039	
-0.0415649	
-0.0800781	
-0.117371	
-0.154968	
-0.192017	
-0.224854	
-0.254028	
-0.280884	
-0.305176	
-0.326965	
-0.347107	
-0.36261	
-0.375793	
-0.388489	
-0.399841	
-0.409912	
-0.41864	
-0.426086	
-0.434326	
-0.441101	
-0.444641	
-0.446777	
-0.449158	
-0.453674	
-0.45752	
-0.457153	
-0.454346	
-0.451416	
-0.450623	
-0.45166	
-0.451721	
-0.450989	
-0.450195	
-0.441711	
-0.414551	
-0.34845	
-0.233337	
-0.0812378	
0.0799561	
0.227844	
0.351257	
0.445435	
0.514709	
0.561401	
0.591125	
0.610413	
0.620544	
0.620422	
0.610596	
0.584778	
0.536072	
0.466797	
0.389648	
0.313232	
0.243958	
0.187317	
0.140808	
0.101379	
0.0665283	
0.0335693	
0.000793457	
-0.0350342	
-0.0722046	
-0.108337	
-0.144958	
-0.181335	
-0.215149	
-0.247253	
-0.277649	
-0.303833	
-0.325989	
-0.346191	
-0.366028	
-0.382568	
-0.395874	
-0.407471	
-0.417419	
-0.42572	
-0.433533	
-0.440674	
-0.446045	
-0.450928	
-0.455322	
-0.46106	
-0.464294	
-0.464539	
-0.463135	
-0.463013	
-0.463806	
-0.461792	
-0.459656	
-0.456665	
-0.453125	
-0.450378	
-0.447937	
-0.437927	
-0.405823	
-0.330505	
-0.205139	
-0.0485229	
0.110168	
0.251404	
0.364624	
0.449402	
0.509338	
0.550476	
0.576599	
0.591675	
0.5979	
0.594116	
0.577759	
0.543091	
0.487244	
0.416077	
0.341003	
0.270813	
0.211121	
0.161865	
0.118408	
0.0814209	
0.0472412	
0.0125732	
-0.022522	
-0.0583496	
-0.0939331	
-0.128296	
-0.162476	
-0.19635	
-0.230164	
-0.25946	
-0.284119	
-0.306274	
-0.325989	
-0.344543	
-0.359619	
-0.371765	
-0.382019	
-0.391296	
-0.39978	
-0.407227	
-0.415161	
-0.423096	
-0.431274	
-0.438843	
-0.445923	
-0.453247	
-0.458191	
-0.459229	
-0.458191	
-0.455505	
-0.452271	
-0.449951	
-0.447266	
-0.444336	
-0.440918	
-0.438965	
-0.436646	
-0.428711	
-0.407288	
-0.354614	
-0.253357	
-0.108521	
0.0518188	
0.203308	
0.331604	
0.430115	
0.499451	
0.545593	
0.571838	
0.587646	
0.596313	
0.595093	
0.581543	
0.554138	
0.508118	
0.443542	
0.37146	
0.300659	
0.236389	
0.180542	
0.135071	
0.0967407	
0.0641479	
0.0319214	
-0.000976563	
-0.0359497	
-0.0740356	
-0.110962	
-0.146423	
-0.178528	
-0.209656	
-0.238953	
-0.263977	
-0.288452	
-0.311646	
-0.333252	
-0.349243	
-0.36261	
-0.374329	
-0.385803	
-0.39563	
-0.402771	
-0.409241	
-0.415833	
-0.422729	
-0.43042	
-0.437866	
-0.443848	
-0.448364	
-0.451599	
-0.452942	
-0.451965	
-0.448914	
-0.445007	
-0.441772	
-0.438416	
-0.438232	
-0.43634	
-0.433899	
-0.428955	
-0.415649	
-0.377197	
-0.292969	
-0.161194	
-0.00421143	
0.149963	
0.282898	
0.388428	
0.465149	
0.518127	
0.55072	
0.568298	
0.576294	
0.576233	
0.565247	
0.539856	
0.497986	
0.438538	
0.367432	
0.295532	
0.230042	
0.174133	
0.130676	
0.09375	
0.0601807	
0.0296631	
-0.00177002	
-0.0337524	
-0.067688	
-0.102478	
-0.137512	
-0.172241	
-0.20343	
-0.233398	
-0.25946	
-0.280579	
-0.299377	
-0.317261	
-0.333252	
-0.346619	
-0.358521	
-0.367859	
-0.373169	
-0.380188	
-0.388184	
-0.393433	
-0.39801	
-0.403564	
-0.407898	
-0.41449	
-0.41925	
-0.421265	
-0.421448	
-0.420288	
-0.41864	
-0.41394	
-0.408447	
-0.403809	
-0.401855	
-0.400452	
-0.399841	
-0.397095	
-0.385376	
-0.348267	
-0.262512	
-0.131531	
0.0211182	
0.167847	
0.291443	
0.386963	
0.45105	
0.488647	
0.507813	
0.515076	
0.513245	
0.503479	
0.480042	
0.441223	
0.38855	
0.329529	
0.26886	
0.213867	
0.167847	
0.131042	
0.0997925	
0.0720215	
0.0443115	
0.0139771	
-0.0175781	
-0.0507202	
-0.0845337	
-0.11969	
-0.152649	
-0.185425	
-0.216675	
-0.244385	
-0.268799	
-0.291809	
-0.313538	
-0.332214	
-0.345703	
-0.357361	
-0.368347	
-0.376404	
-0.382813	
-0.387024	
-0.392517	
-0.397339	
-0.402344	
-0.404602	
-0.408936	
-0.41449	
-0.418152	
-0.422668	
-0.426758	
-0.429749	
-0.42865	
-0.425293	
-0.423218	
-0.421326	
-0.417419	
-0.414673	
-0.411621	
-0.400574	
-0.368774	
-0.292114	
-0.161194	
0.000549316	
0.164673	
0.311462	
0.429993	
0.517273	
0.576477	
0.613831	
0.635132	
0.647095	
0.652771	
0.648987	
0.631592	
0.595276	
0.537598	
0.466553	
0.391846	
0.319214	
0.25647	
0.204529	
0.161133	
0.12323	
0.0889893	
0.0536499	
0.0169067	
-0.020874	
-0.0578613	
-0.0961914	
-0.132813	
-0.166382	
-0.199097	
-0.229004	
-0.254272	
-0.277039	
-0.298462	
-0.319397	
-0.337769	
-0.354126	
-0.369019	
-0.381775	
-0.392639	
-0.400757	
-0.406494	
-0.412476	
-0.417786	
-0.423462	
-0.427734	
-0.430603	
-0.43396	
-0.434814	
-0.436279	
-0.436218	
-0.434387	
-0.435059	
-0.43457	
-0.434204	
-0.433228	
-0.430664	
-0.426086	
-0.409485	
-0.360291	
-0.260864	
-0.116638	
0.0457764	
0.199951	
0.330505	
0.433716	
0.508911	
0.559143	
0.590698	
0.610779	
0.622375	
0.62616	
0.619446	
0.594788	
0.546509	
0.480652	
0.403809	
0.325989	
0.254272	
0.194885	
0.146667	
0.104736	
0.0668335	
0.0310059	
-0.00415039	
-0.0377197	
-0.0712891	
-0.106018	
-0.141602	
-0.178406	
-0.211365	
-0.242493	
-0.270447	
-0.295349	
-0.318359	
-0.338135	
-0.356262	
-0.370728	
-0.383728	
-0.394592	
-0.403015	
-0.410278	
-0.416565	
-0.422607	
-0.429138	
-0.43457	
-0.43988	
-0.443726	
-0.445129	
-0.445374	
-0.444763	
-0.444397	
-0.445007	
-0.444946	
-0.442993	
-0.442993	
-0.44165	
-0.439758	
-0.438965	
-0.43573	
-0.421997	
-0.379822	
-0.290833	
-0.152405	
0.00714111	
0.16394	
0.299133	
0.404907	
0.481995	
0.534302	
0.569031	
0.589966	
0.602234	
0.605164	
0.596436	
0.570862	
0.522339	
0.455627	
0.379761	
0.305237	
0.238342	
0.180115	
0.133423	
0.0947266	
0.0593872	
0.026001	
-0.00531006	
-0.038208	
-0.0740356	
-0.108826	
-0.142822	
-0.176453	
-0.208313	
-0.239502	
-0.268127	
-0.293579	
-0.314697	
-0.334595	
-0.351257	
-0.365784	
-0.37793	
-0.38855	
-0.397583	
-0.404114	
-0.409058	
-0.414124	
-0.417847	
-0.423828	
-0.430481	
-0.436279	
-0.441223	
-0.445374	
-0.449402	
-0.450623	
-0.449341	
-0.446411	
-0.443359	
-0.441895	
-0.438293	
-0.435364	
-0.434631	
-0.430664	
-0.421936	
-0.395935	
-0.330811	
-0.213623	
-0.059082	
0.103577	
0.250549	
0.369934	
0.460449	
0.522827	
0.564026	
0.590576	
0.605652	
0.612305	
0.609436	
0.591125	
0.549866	
0.486694	
0.411743	
0.335815	
0.264587	
0.204102	
0.15448	
0.113586	
0.0786133	
0.0454712	
0.0123291	
-0.0219727	
-0.0565186	
-0.0935059	
-0.129089	
-0.163086	
-0.19635	
-0.2276	
-0.255432	
-0.279602	
-0.299744	
-0.318787	
-0.336304	
-0.351563	
-0.364868	
-0.377319	
-0.386169	
-0.392334	
-0.396851	
-0.402222	
-0.406555	
-0.411316	
-0.416504	
-0.421021	
-0.426453	
-0.431335	
-0.434875	
-0.438782	
-0.441406	
-0.440247	
-0.439636	
-0.436768	
-0.435303	
-0.431702	
-0.428101	
-0.42334	
-0.415161	
-0.390137	
-0.326782	
-0.210693	
-0.0601196	
0.0951538	
0.236877	
0.352539	
0.439697	
0.501343	
0.541992	
0.567017	
0.581238	
0.589417	
0.588318	
0.569092	
0.529114	
0.468079	
0.394897	
0.318726	
0.247864	
0.185852	
0.133606	
0.0923462	
0.0565796	
0.0250244	
-0.0032959	
-0.0323486	
-0.06604	
-0.100647	
-0.134949	
-0.168335	
-0.200806	
-0.230957	
-0.256531	
-0.28009	
-0.30249	
-0.32196	
-0.339966	
-0.356384	
-0.369751	
-0.382507	
-0.391541	
-0.397156	
-0.403259	
-0.410156	
-0.418274	
-0.424133	
-0.42804	
-0.432678	
-0.437622	
-0.440369	
-0.441589	
-0.440552	
-0.439331	
-0.438171	
-0.435486	
-0.433594	
-0.431885	
-0.42981	
-0.428528	
-0.42865	
-0.426636	
-0.417236	
-0.383606	
-0.306091	
-0.177795	
-0.0206909	
0.13678	
0.274597	
0.384827	
0.46637	
0.52179	
0.558167	
0.581421	
0.594482	
0.598633	
0.591309	
0.566162	
0.520203	
0.4552	
0.379944	
0.304199	
0.236328	
0.179443	
0.133362	
0.0944214	
0.0629883	
0.0360107	
0.00622559	
-0.0274048	
-0.0632935	
-0.0996704	
-0.133301	
-0.166809	
-0.19873	
-0.227966	
-0.254822	
-0.279053	
-0.299744	
-0.319458	
-0.335632	
-0.350464	
-0.362549	
-0.373108	
-0.382202	
-0.391602	
-0.398621	
-0.404785	
-0.410522	
-0.415833	
-0.419983	
-0.423706	
-0.426147	
-0.428528	
-0.429626	
-0.429993	
-0.429199	
-0.427246	
-0.425964	
-0.424622	
-0.422119	
-0.418701	
-0.415283	
-0.411438	
-0.406433	
-0.389343	
-0.339417	
-0.240723	
-0.098999	
0.0570679	
0.203064	
0.326843	
0.423035	
0.491333	
0.537109	
0.5672	
0.589111	
0.601196	
0.603088	
0.59137	
0.557556	
0.501892	
0.430847	
0.354187	
0.280396	
0.215271	
0.160889	
0.117737	
0.081665	
0.0498657	
0.0187988	
-0.012146	
-0.0445557	
-0.0780029	
-0.112061	
-0.145081	
-0.177124	
-0.208252	
-0.236816	
-0.261719	
-0.281921	
-0.299988	
-0.317017	
-0.334045	
-0.346252	
-0.356079	
-0.363953	
-0.372009	
-0.379517	
-0.385376	
-0.390686	
-0.395142	
-0.400818	
-0.406494	
-0.41217	
-0.416199	
-0.419617	
-0.421143	
-0.421204	
-0.42041	
-0.417908	
-0.415344	
-0.413452	
-0.41272	
-0.410645	
-0.408813	
-0.407288	
-0.401367	
-0.379028	
-0.319519	
-0.209167	
-0.0622559	
0.0932617	
0.235474	
0.353943	
0.443481	
0.507568	
0.553284	
0.584167	
0.605469	
0.616577	
0.615601	
0.597473	
0.554871	
0.490173	
0.411133	
0.327637	
0.252686	
0.19104	
0.141174	
0.102295	
0.0685425	
0.0377808	
0.00738525	
-0.0224609	
-0.0535889	
-0.0853271	
-0.117493	
-0.14978	
-0.178955	
-0.206116	
-0.231873	
-0.255676	
-0.275146	
-0.29303	
-0.307739	
-0.319885	
-0.332275	
-0.344055	
-0.354004	
-0.362976	
-0.369995	
-0.376404	
-0.383667	
-0.390564	
-0.397522	
-0.400757	
-0.403748	
-0.407654	
-0.410767	
-0.409729	
-0.408264	
-0.406799	
-0.404968	
-0.404175	
-0.402039	
-0.40094	
-0.401001	
-0.401428	
-0.3974	
-0.375732	
-0.314697	
-0.204895	
-0.0649414	
0.0785522	
0.204956	
0.308289	
0.385498	
0.43811	
0.473389	
0.494568	
0.504395	
0.503235	
0.486389	
0.451965	
0.397217	
0.327637	
0.254883	
0.188782	
0.133301	
0.090271	
0.0570679	
0.0301514	
0.00354004	
-0.024292	
-0.0530396	
-0.0842896	
-0.118103	
-0.152466	
-0.185242	
-0.214661	
-0.241882	
-0.263611	
-0.282837	
-0.30011	
-0.315796	
-0.329468	
-0.343262	
-0.356445	
-0.36676	
-0.376709	
-0.38446	
-0.393494	
-0.400208	
-0.403992	
-0.407471	
-0.413208	
-0.418823	
-0.424072	
-0.42688	
-0.428467	
-0.429016	
-0.427734	
-0.427429	
-0.427734	
-0.426392	
-0.424805	
-0.424133	
-0.424438	
-0.423706	
-0.418823	
-0.398071	
-0.342346	
-0.238342	
-0.0968628	
0.0550537	
0.195801	
0.313416	
0.406799	
0.478455	
0.528442	
0.56366	
0.588318	
0.603027	
0.60968	
0.602539	
0.575867	
0.526367	
0.455933	
0.374695	
0.293396	
0.22113	
0.159607	
0.113403	
0.076355	
0.0432739	
0.012146	
-0.0202026	
-0.0545044	
-0.0891724	
-0.123047	
-0.155579	
-0.18634	
-0.215637	
-0.241577	
-0.266418	
-0.289429	
-0.310425	
-0.328918	
-0.344421	
-0.356995	
-0.370178	
-0.381409	
-0.390808	
-0.398804	
-0.407654	
-0.415527	
-0.421875	
-0.427063	
-0.431274	
-0.436951	
-0.443665	
-0.450317	
-0.452576	
-0.453186	
-0.45282	
-0.451904	
-0.451111	
-0.448975	
-0.447449	
-0.444824	
-0.442627	
-0.438599	
-0.431152	
-0.409119	
-0.352051	
-0.244873	
-0.0995483	
0.0564575	
0.200195	
0.319763	
0.410522	
0.47699	
0.524109	
0.554565	
0.575439	
0.589233	
0.593628	
0.5849	
0.558716	
0.509949	
0.443481	
0.367737	
0.293213	
0.22522	
0.167603	
0.120239	
0.0821533	
0.0489502	
0.0169678	
-0.0129395	
-0.0445557	
-0.0789795	
-0.11377	
-0.146667	
-0.17926	
-0.208252	
-0.235413	
-0.260925	
-0.282654	
-0.303589	
-0.321838	
-0.33728	
-0.351624	
-0.363953	
-0.375061	
-0.383179	
-0.391357	
-0.398132	
-0.405151	
-0.41217	
-0.417786	
-0.424072	
-0.428955	
-0.433044	
-0.437439	
-0.440125	
-0.44165	
-0.440125	
-0.438965	
-0.438416	
-0.438843	
-0.437439	
-0.434265	
-0.429932	
-0.424927	
-0.415955	
-0.391174	
-0.328186	
-0.216797	
-0.0730591	
0.0784302	
0.216675	
0.330383	
0.417175	
0.478394	
0.519958	
0.544739	
0.559753	
0.565735	
0.563782	
0.549194	
0.516541	
0.467163	
0.402039	
0.331543	
0.266479	
0.210693	
0.164978	
0.127441	
0.0946045	
0.0656128	
0.0361938	
0.00537109	
-0.02771	
-0.0611572	
-0.0962524	
-0.130676	
-0.164001	
-0.193604	
-0.222778	
-0.248596	
-0.272827	
-0.292114	
-0.309387	
-0.323303	
-0.336548	
-0.348328	
-0.358398	
-0.368042	
-0.376038	
-0.381592	
-0.387024	
-0.389771	
-0.393555	
-0.398682	
-0.402954	
-0.406006	
-0.40625	
-0.40509	
-0.405396	
-0.404907	
-0.402954	
-0.40033	
-0.398254	
-0.396912	
-0.396179	
-0.395386	
-0.389038	
-0.364075	
-0.296997	
-0.184265	
-0.0446167	
0.0974121	
0.223206	
0.324463	
0.401062	
0.453125	
0.485901	
0.504944	
0.513123	
0.513428	
0.503723	
0.479309	
0.437256	
0.378052	
0.313782	
0.25	
0.196411	
0.15332	
0.119934	
0.0892944	
0.0618896	
0.0350342	
0.00543213	
-0.026123	
-0.0609131	
-0.0946655	
-0.127869	
-0.159912	
-0.188293	
-0.215271	
-0.241211	
-0.26593	
-0.286804	
-0.306335	
-0.323303	
-0.340149	
-0.355042	
-0.368469	
-0.378235	
-0.385559	
-0.392395	
-0.398499	
-0.404602	
-0.409363	
-0.41272	
-0.417786	
-0.423584	
-0.42926	
-0.433472	
-0.434875	
-0.434448	
-0.432434	
-0.429932	
-0.426819	
-0.423767	
-0.421814	
-0.421143	
-0.4198	
-0.408691	
-0.374329	
-0.296692	
-0.171204	
-0.0175171	
0.137085	
0.273865	
0.384949	
0.469482	
0.529236	
0.569763	
0.597961	
0.616211	
0.627197	
0.630005	
0.618835	
0.591248	
0.542419	
0.472107	
0.392273	
0.317688	
0.25293	
0.199585	
0.156616	
0.119141	
0.0830688	
0.0493774	
0.0150146	
-0.0203247	
-0.0562744	
-0.0908813	
-0.126282	
-0.159729	
-0.189514	
-0.219177	
-0.247437	
-0.272522	
-0.297119	
-0.317627	
-0.33551	
-0.351257	
-0.364929	
-0.375366	
-0.385986	
-0.396729	
-0.404175	
-0.410278	
-0.418091	
-0.425964	
-0.431641	
-0.436768	
-0.438599	
-0.44165	
-0.44397	
-0.44397	
-0.442017	
-0.440002	
-0.437256	
-0.434937	
-0.434021	
-0.43396	
-0.432556	
-0.427612	
-0.417419	
-0.384949	
-0.310242	
-0.187744	
-0.0340576	
0.121521	
0.259033	
0.371216	
0.455078	
0.515076	
0.556824	
0.586975	
0.60553	
0.615662	
0.616577	
0.604309	
0.570801	
0.516418	
0.444153	
0.365601	
0.291809	
0.227661	
0.174377	
0.131104	
0.0944824	
0.0591431	
0.0240479	
-0.0111084	
-0.0471802	
-0.0843506	
-0.120789	
-0.156677	
-0.191101	
-0.222107	
-0.250061	
-0.276672	
-0.300537	
-0.322266	
-0.340088	
-0.354248	
-0.365906	
-0.375488	
-0.384277	
-0.392944	
-0.401489	
-0.408264	
-0.414978	
-0.421692	
-0.427368	
-0.432739	
-0.43634	
-0.44165	
-0.446899	
-0.449158	
-0.450256	
-0.450562	
-0.450378	
-0.447998	
-0.44519	
-0.442871	
-0.440491	
-0.438171	
-0.434082	
-0.424744	
-0.400146	
-0.338135	
-0.223999	
-0.0730591	
0.0859375	
0.230164	
0.350281	
0.440613	
0.505615	
0.549744	
0.579102	
0.598083	
0.607666	
0.607361	
0.594604	
0.56366	
0.510864	
0.439697	
0.362305	
0.288086	
0.224426	
0.169861	
0.124634	
0.0883179	
0.0576782	
0.0247803	
-0.00964355	
-0.0455933	
-0.081604	
-0.116211	
-0.149475	
-0.179993	
-0.210327	
-0.239624	
-0.266052	
-0.288635	
-0.309326	
-0.327393	
-0.343262	
-0.358704	
-0.370972	
-0.381165	
-0.39032	
-0.396606	
-0.40387	
-0.410217	
-0.417175	
-0.423645	
-0.429077	
-0.434387	
-0.440186	
-0.444397	
-0.445679	
-0.445923	
-0.444885	
-0.442566	
-0.440002	
-0.438477	
-0.436279	
-0.433533	
-0.430603	
-0.427002	
-0.418762	
-0.39386	
-0.327515	
-0.211243	
-0.0609741	
0.0944824	
0.23468	
0.349548	
0.43634	
0.497681	
0.537964	
0.563965	
0.578857	
0.585876	
0.582214	
0.564941	
0.527832	
0.469116	
0.394897	
0.318298	
0.247559	
0.188049	
0.141174	
0.101318	
0.0681152	
0.0368042	
0.00524902	
-0.0258179	
-0.0557861	
-0.0866089	
-0.119141	
-0.151123	
-0.182495	
-0.213013	
-0.241821	
-0.269043	
-0.292419	
-0.313416	
-0.331116	
-0.345276	
-0.357544	
-0.367065	
-0.375854	
-0.383606	
-0.389465	
-0.395752	
-0.400879	
-0.405212	
-0.410461	
-0.416748	
-0.420898	
-0.422913	
-0.424683	
-0.424683	
-0.422058	
-0.417847	
-0.413391	
-0.410034	
-0.405579	
-0.402405	
-0.403015	
-0.402161	
-0.39447	
-0.360596	
-0.282043	
-0.160034	
-0.015564	
0.12561	
0.24707	
0.341797	
0.408752	
0.452454	
0.477417	
0.490967	
0.494019	
0.485718	
0.464355	
0.425476	
0.3703	
0.305664	
0.241455	
0.184509	
0.138306	
0.102905	
0.074707	
0.0463867	
0.0195313	
-0.00610352	
-0.0341797	
-0.0654297	
-0.0983276	
-0.131775	
-0.163635	
-0.193909	
-0.222961	
-0.251038	
-0.276001	
-0.298706	
-0.319458	
-0.336426	
-0.350708	
-0.363831	
-0.374695	
-0.385559	
-0.395508	
-0.402832	
-0.408752	
-0.413208	
-0.417297	
-0.420105	
-0.424927	
-0.427917	
-0.428955	
-0.429565	
-0.428833	
-0.428101	
-0.42627	
-0.423157	
-0.421082	
-0.419067	
-0.415833	
-0.413513	
-0.411011	
-0.400452	
-0.367065	
-0.2901	
-0.166077	
-0.0137939	
0.142517	
0.282776	
0.394104	
0.479004	
0.539734	
0.580872	
0.608582	
0.625916	
0.63501	
0.636475	
0.623535	
0.590942	
0.535034	
0.461182	
0.379578	
0.301819	
0.234192	
0.179382	
0.135742	
0.0993652	
0.0673828	
0.034668	
0.00323486	
-0.0309448	
-0.0661011	
-0.100891	
-0.135559	
-0.169739	
-0.201965	
-0.231445	
-0.258606	
-0.283752	
-0.306641	
-0.325867	
-0.344116	
-0.359253	
-0.370911	
-0.381042	
-0.389587	
-0.398621	
-0.40686	
-0.413696	
-0.419678	
-0.426086	
-0.430542	
-0.434448	
-0.437683	
-0.437866	
-0.437378	
-0.438721	
-0.437866	
-0.437805	
-0.438049	
-0.435608	
-0.433044	
-0.431458	
-0.425781	
-0.409424	
-0.36438	
-0.270447	
-0.130371	
0.0275879	
0.177734	
0.30719	
0.408875	
0.484619	
0.539795	
0.578674	
0.604431	
0.618408	
0.625061	
0.617554	
0.593689	
0.54541	
0.475464	
0.393433	
0.312317	
0.239014	
0.177795	
0.126282	
0.0855713	
0.0507813	
0.0195313	
-0.0114136	
-0.0441284	
-0.0784912	
-0.114441	
-0.150879	
-0.184143	
-0.215759	
-0.245605	
-0.271851	
-0.295471	
-0.317383	
-0.337952	
-0.355347	
-0.370667	
-0.382568	
-0.394714	
-0.405212	
-0.412415	
-0.419128	
-0.42572	
-0.432556	
-0.43927	
-0.444336	
-0.447266	
-0.452087	
-0.454285	
-0.453369	
-0.453613	
-0.452515	
-0.449341	
-0.447021	
-0.444458	
-0.440125	
-0.435974	
-0.434143	
-0.430664	
-0.415283	
-0.368164	
-0.271667	
-0.13269	
0.024353	
0.173767	
0.303162	
0.404541	
0.479919	
0.531433	
0.565369	
0.587402	
0.597046	
0.598328	
0.5896	
0.561157	
0.513611	
0.445923	
0.368958	
0.292175	
0.223877	
0.167542	
0.121338	
0.0841675	
0.0523071	
0.0222168	
-0.00872803	
-0.0388184	
-0.0689697	
-0.100342	
-0.132385	
-0.164734	
-0.195923	
-0.225037	
-0.251465	
-0.277161	
-0.300659	
-0.320374	
-0.337463	
-0.349426	
-0.359253	
-0.367188	
-0.376404	
-0.384155	
-0.391418	
-0.398376	
-0.40448	
-0.410095	
-0.414307	
-0.416504	
-0.419006	
-0.421875	
-0.422974	
-0.42334	
-0.421753	
-0.421326	
-0.421387	
-0.421631	
-0.422119	
-0.422729	
-0.420349	
-0.411865	
-0.381165	
-0.304749	
-0.179749	
-0.0280762	
0.120728	
0.248413	
0.349426	
0.420593	
0.467529	
0.497925	
0.51593	
0.523621	
0.522217	
0.50824	
0.476746	
0.426758	
0.362671	
0.293457	
0.229431	
0.173462	
0.127747	
0.09198	
0.0620728	
0.034668	
0.00646973	
-0.0239868	
-0.0571899	
-0.0903931	
-0.125183	
-0.160339	
-0.19342	
-0.222595	
-0.248108	
-0.271545	
-0.294495	
-0.316528	
-0.335266	
-0.351196	
-0.365662	
-0.377258	
-0.387634	
-0.395142	
-0.400757	
-0.405396	
-0.411499	
-0.418274	
-0.424438	
-0.430298	
-0.433838	
-0.436279	
-0.438171	
-0.439087	
-0.438171	
-0.437012	
-0.43457	
-0.431702	
-0.428711	
-0.426086	
-0.423706	
-0.420166	
-0.408203	
-0.370422	
-0.285034	
-0.151245	
0.00769043	
0.164612	
0.299622	
0.405701	
0.486023	
0.541992	
0.578003	
0.598999	
0.61145	
0.614868	
0.606812	
0.585083	
0.544495	
0.483337	
0.407959	
0.329224	
0.258118	
0.197998	
0.149902	
0.112122	
0.0783081	
0.0454102	
0.0150146	
-0.0202637	
-0.0569458	
-0.0927124	
-0.127991	
-0.162048	
-0.194397	
-0.225769	
-0.252625	
-0.27533	
-0.296509	
-0.31665	
-0.335449	
-0.353088	
-0.366211	
-0.375793	
-0.386414	
-0.394226	
-0.400879	
-0.409424	
-0.414124	
-0.420105	
-0.42688	
-0.432678	
-0.440247	
-0.445374	
-0.445923	
-0.446106	
-0.443665	
-0.438782	
-0.434204	
-0.432312	
-0.430664	
-0.428833	
-0.426575	
-0.423523	
-0.412598	
-0.373962	
-0.283997	
-0.146118	
0.0140991	
0.168518	
0.301514	
0.406982	
0.482788	
0.534729	
0.566833	
0.585632	
0.595459	
0.596985	
0.587158	
0.563721	
0.521484	
0.46167	
0.389526	
0.31604	
0.248718	
0.190552	
0.142761	
0.103516	
0.0682373	
0.0351563	
0.000915527	
-0.0338745	
-0.0682983	
-0.104553	
-0.139526	
-0.171204	
-0.201965	
-0.233215	
-0.261902	
-0.286255	
-0.308228	
-0.327454	
-0.342773	
-0.35614	
-0.368347	
-0.379456	
-0.388062	
-0.395264	
-0.401428	
-0.40686	
-0.414124	
-0.421631	
-0.427307	
-0.43103	
-0.433838	
-0.434937	
-0.435364	
-0.436035	
-0.435059	
-0.432312	
-0.429688	
-0.429749	
-0.429443	
-0.427734	
-0.425964	
-0.421997	
-0.40863	
-0.369446	
-0.280701	
-0.1427	
0.0198975	
0.176147	
0.308105	
0.411133	
0.484924	
0.532654	
0.562012	
0.577881	
0.586487	
0.587646	
0.575928	
0.548889	
0.504578	
0.444214	
0.374084	
0.303406	
0.240723	
0.187622	
0.14563	
0.110535	
0.0783081	
0.0478516	
0.0154419	
-0.0172119	
-0.0524292	
-0.088501	
-0.124268	
-0.158325	
-0.19043	
-0.221069	
-0.249268	
-0.275085	
-0.298157	
-0.318542	
-0.336426	
-0.350647	
-0.362366	
-0.370911	
-0.3797	
-0.387024	
-0.392944	
-0.399719	
-0.407043	
-0.412781	
-0.418701	
-0.422424	
-0.426331	
-0.429138	
-0.431152	
-0.431213	
-0.428345	
-0.425964	
-0.424805	
-0.423889	
-0.423584	
-0.423645	
-0.421082	
-0.414917	
-0.398438	
-0.354187	
-0.262939	
-0.124207	
0.0366821	
0.19043	
0.319824	
0.419556	
0.490173	
0.53717	
0.568787	
0.588196	
0.596008	
0.593628	
0.580811	
0.55249	
0.502991	
0.437439	
0.364929	
0.292664	
0.229004	
0.175354	
0.133362	
0.0980835	
0.0679321	
0.0380859	
0.00750732	
-0.0255737	
-0.0595703	
-0.095459	
-0.130554	
-0.163391	
-0.193665	
-0.222107	
-0.247681	
-0.268738	
-0.28949	
-0.307373	
-0.324951	
-0.3396	
-0.351685	
-0.362976	
-0.373108	
-0.38269	
-0.388245	
-0.393433	
-0.400635	
-0.407593	
-0.414673	
-0.421936	
-0.428406	
-0.432861	
-0.434692	
-0.433472	
-0.431946	
-0.430481	
-0.427612	
-0.426758	
-0.424683	
-0.422546	
-0.421753	
-0.415527	
-0.394043	
-0.337463	
-0.229492	
-0.0812988	
0.0810547	
0.229431	
0.349792	
0.439941	
0.501099	
0.540283	
0.563965	
0.575989	
0.580933	
0.577515	
0.560486	
0.524353	
0.466919	
0.394165	
0.318726	
0.250244	
0.192688	
0.144226	
0.104614	
0.0719604	
0.0410767	
0.00897217	
-0.020874	
-0.0529785	
-0.0859375	
-0.118164	
-0.150879	
-0.181519	
-0.211426	
-0.239624	
-0.263306	
-0.283508	
-0.302917	
-0.318237	
-0.33136	
-0.344116	
-0.354614	
-0.36377	
-0.371277	
-0.378052	
-0.385071	
-0.391418	
-0.395752	
-0.400146	
-0.40387	
-0.406921	
-0.408875	
-0.409485	
-0.40863	
-0.407104	
-0.405884	
-0.40509	
-0.404785	
-0.40332	
-0.403564	
-0.402649	
-0.397583	
-0.37439	
-0.310181	
-0.19574	
-0.0488281	
0.101013	
0.230042	
0.331177	
0.40155	
0.444336	
0.465454	
0.472473	
0.47345	
0.46637	
0.445801	
0.407959	
0.35675	
0.295959	
0.234192	
0.179749	
0.136658	
0.102722	
0.0758667	
0.0529785	
0.0305176	
0.0055542	
-0.0250244	
-0.0560913	
-0.088501	
-0.123413	
-0.156677	
-0.188965	
-0.21759	
-0.242188	
-0.264648	
-0.285278	
-0.304443	
-0.318481	
-0.329529	
-0.340454	
-0.351257	
-0.36145	
-0.368042	
-0.375244	
-0.381409	
-0.386719	
-0.392822	
-0.397583	
-0.403198	
-0.40802	
-0.411011	
-0.410034	
-0.409607	
-0.408997	
-0.407043	
-0.404663	
-0.402405	
-0.401001	
-0.399109	
-0.391785	
-0.36731	
-0.301208	
-0.183044	
-0.0279541	
0.133301	
0.278625	
0.39563	
0.483887	
0.544617	
0.583496	
0.607727	
0.619751	
0.623291	
0.619934	
0.602722	
0.565186	
0.506348	
0.433289	
0.355225	
0.281738	
0.218262	
0.165894	
0.124268	
0.0892334	
0.0551147	
0.0227051	
-0.0098877	
-0.0430298	
-0.078064	
-0.111938	
-0.147339	
-0.182129	
-0.21405	
-0.242676	
-0.26825	
-0.291077	
-0.311951	
-0.329285	
-0.34491	
-0.359131	
-0.371521	
-0.38147	
-0.388733	
-0.394043	
-0.398865	
-0.402222	
-0.404907	
-0.409973	
-0.417297	
-0.422668	
-0.425415	
-0.42688	
-0.426208	
-0.425171	
-0.426392	
-0.428101	
-0.42981	
-0.430847	
-0.430115	
-0.420654	
-0.388123	
-0.310547	
-0.180542	
-0.0214233	
0.137634	
0.278687	
0.389709	
0.471985	
0.52948	
0.569885	
0.5979	
0.613342	
0.6203	
0.61554	
0.594055	
0.550232	
0.483582	
0.40271	
0.31665	
0.235657	
0.167725	
0.113281	
0.0700073	
0.0350952	
0.00415039	
-0.0248413	
-0.0534058	
-0.0841064	
-0.116638	
-0.149536	
-0.184021	
-0.216248	
-0.245117	
-0.272034	
-0.297119	
-0.319153	
-0.337158	
-0.352966	
-0.366394	
-0.378601	
-0.391052	
-0.399963	
-0.405762	
-0.414185	
-0.422424	
-0.429321	
-0.436096	
-0.441406	
-0.444885	
-0.447876	
-0.448303	
-0.44812	
-0.447937	
-0.449219	
-0.449585	
-0.448792	
-0.448364	
-0.447998	
-0.444336	
-0.429321	
-0.380615	
-0.283447	
-0.144104	
0.0108032	
0.15509	
0.273071	
0.361877	
0.422791	
0.461914	
0.485535	
0.499512	
0.504456	
0.501648	
0.482849	
0.445374	
0.388977	
0.318909	
0.247498	
0.183411	
0.130554	
0.0900269	
0.0576172	
0.0301514	
0.00323486	
-0.0236816	
-0.0525513	
-0.0841064	
-0.116028	
-0.148865	
-0.18219	
-0.21344	
-0.243286	
-0.271667	
-0.297485	
-0.317871	
-0.336731	
-0.35321	
-0.367615	
-0.379517	
-0.387878	
-0.395813	
-0.405029	
-0.412964	
-0.419556	
-0.425171	
-0.42926	
-0.430969	
-0.432556	
-0.435486	
-0.438904	
-0.43988	
-0.440125	
-0.439148	
-0.439026	
-0.442932	
-0.447327	
-0.445984	
-0.426453	
-0.368958	
-0.262878	
-0.12085	
0.0289917	
0.165405	
0.276672	
0.356262	
0.406677	
0.435242	
0.452271	
0.458557	
0.458069	
0.447754	
0.423889	
0.382019	
0.323486	
0.258423	
0.198975	
0.145935	
0.104187	
0.0731201	
0.0500488	
0.0299072	
0.00585938	
-0.0202637	
-0.050354	
-0.083313	
-0.117432	
-0.151367	
-0.184448	
-0.214783	
-0.242493	
-0.268066	
-0.289795	
-0.310608	
-0.328918	
-0.34491	
-0.358154	
-0.370239	
-0.382935	
-0.394043	
-0.402466	
-0.40979	
-0.417969	
-0.425171	
-0.430908	
-0.435181	
-0.439514	
-0.444153	
-0.446411	
-0.449707	
-0.452393	
-0.455322	
-0.456787	
-0.455811	
-0.449158	
-0.41803	
-0.344238	
-0.22168	
-0.0706787	
0.0828857	
0.217102	
0.323364	
0.40448	
0.46051	
0.49762	
0.519775	
0.531738	
0.535339	
0.530457	
0.514282	
0.482605	
0.430664	
0.363892	
0.293152	
0.226807	
0.169739	
0.122253	
0.0824585	
0.0488892	
0.0195923	
-0.00769043	
-0.036499	
-0.0688477	
-0.102844	
-0.138062	
-0.174133	
-0.206909	
-0.239502	
-0.269714	
-0.2948	
-0.316589	
-0.337036	
-0.35498	
-0.371155	
-0.385498	
-0.396851	
-0.406921	
-0.414917	
-0.423279	
-0.432861	
-0.441101	
-0.447449	
-0.454407	
-0.460083	
-0.465698	
-0.470764	
-0.476013	
-0.480652	
-0.482117	
-0.484619	
-0.487488	
-0.484436	
-0.467163	
-0.414795	
-0.316223	
-0.186707	
-0.0465088	
0.0822144	
0.189514	
0.267212	
0.317322	
0.346924	
0.362976	
0.371887	
0.37262	
0.365356	
0.348755	
0.318115	
0.271729	
0.21283	
0.150818	
0.0904541	
0.0372314	
-0.00561523	
-0.0413208	
-0.0706177	
-0.0986328	
-0.12793	
-0.158569	
-0.188782	
-0.219177	
-0.251648	
-0.284241	
-0.31427	
-0.34491	
-0.374146	
-0.401306	
-0.427124	
-0.449524	
-0.469116	
-0.485168	
-0.49823	
-0.510742	
-0.521301	
-0.529175	
-0.536255	
-0.541748	
-0.548828	
-0.556335	
-0.563965	
-0.569763	
-0.575195	
-0.578613	
-0.58374	
-0.591064	
-0.598694	
-0.603882	
-0.598694	
-0.568481	
-0.503418	
-0.413879	
-0.314697	
-0.220093	
-0.140564	
-0.078064	
-0.0352783	
-0.00854492	
0.00726318	
0.0137939	
0.0132446	
0.00689697	
-0.00665283	
-0.0323486	
-0.0690308	
-0.109924	
-0.14978	
-0.182556	
-0.207397	
-0.226746	
-0.239502	
-0.250427	
-0.261963	
-0.277588	
-0.296448	
-0.31604	
-0.334656	
-0.350891	
-0.367371	
-0.381592	
-0.39447	
-0.407166	
-0.420715	
-0.433289	
-0.443115	
-0.449219	
-0.455811	
-0.46283	
-0.469727	
-0.473999	
-0.477356	
-0.481689	
-0.486267	
-0.489868	
-0.49231	
-0.494629	
-0.499573	
-0.505981	
-0.511169	
-0.510498	
-0.497375	
-0.461975	
-0.403503	
-0.333984	
-0.264954	
-0.203369	
-0.154297	
-0.118713	
-0.0940552	
-0.0768433	
-0.0656128	
-0.0603638	
-0.0586548	
-0.0621948	
-0.072937	
-0.09021	
-0.113037	
-0.135437	
-0.152405	
-0.164124	
-0.172791	
-0.17749	
-0.180908	
-0.186096	
-0.191772	
-0.197937	
-0.206299	
-0.215942	
-0.225281	
-0.235291	
-0.245422	
-0.254761	
-0.26532	
-0.273376	
-0.279297	
-0.285828	
-0.291321	
-0.294861	
-0.299377	
-0.301758	
-0.304993	
-0.308411	
-0.310547	
-0.312134	
-0.313354	
-0.314392	
-0.314758	
-0.315674	
-0.313599	
-0.303101	
-0.273438	
-0.225342	
-0.170654	
-0.116394	
-0.0687866	
-0.0309448	
-0.00323486	
0.0161133	
0.0270996	
0.0335083	
0.0379028	
0.0392456	
0.0389404	
0.034668	
0.0255127	
0.0119629	
-0.00317383	
-0.0165405	
-0.0258789	
-0.0331421	
-0.038269	
-0.0394287	
-0.0411987	
-0.0458374	
-0.0511475	
-0.0575562	
-0.0668335	
-0.0784912	
-0.0900269	
-0.100098	
-0.107788	
-0.115295	
-0.120605	
-0.126343	
-0.133667	
-0.137573	
-0.142334	
-0.146851	
-0.150452	
-0.153076	
-0.154968	
-0.158569	
-0.161743	
-0.165588	
-0.169556	
-0.173096	
-0.173767	
-0.175049	
-0.178833	
-0.180908	
-0.175903	
-0.153442	
-0.111877	
-0.0614014	
-0.0143433	
0.0234375	
0.0531616	
0.0735474	
0.0875244	
0.0950317	
0.0993652	
0.101074	
0.103577	
0.103394	
0.0983276	
0.0898438	
0.0788574	
0.0644531	
0.0487061	
0.0349731	
0.0248413	
0.0192261	
0.0167847	
0.0131836	
0.00732422	
0.00128174	
-0.00689697	
-0.0159912	
-0.0248413	
-0.0317993	
-0.038269	
-0.0470581	
-0.0571899	
-0.0664063	
-0.0758667	
-0.0834961	
-0.0908203	
-0.0975952	
-0.104858	
-0.112061	
-0.119629	
-0.12677	
-0.133057	
-0.138062	
-0.143921	
-0.1474	
-0.150391	
-0.154053	
-0.156433	
-0.159241	
-0.161194	
-0.162903	
-0.166504	
-0.168884	
-0.172302	
-0.17218	
-0.162109	
-0.139099	
-0.098877	
-0.0532837	
-0.0126953	
0.0176392	
0.0361938	
0.0446777	
0.0490112	
0.0505981	
0.0496216	
0.0466919	
0.0428467	
0.039917	
0.0332642	
0.0227661	
0.00952148	
-0.00512695	
-0.0183105	
-0.0270386	
-0.0323486	
-0.0349731	
-0.0369263	
-0.039917	
-0.0429688	
-0.0481567	
-0.0532837	
-0.0587769	
-0.0646973	
-0.0708008	
-0.0755005	
-0.0808105	
-0.0876465	
-0.0922852	
-0.0964966	
-0.100464	
-0.105225	
-0.109985	
-0.113892	
-0.117126	
-0.119263	
-0.122375	
-0.125183	
-0.125549	
-0.126343	
-0.127686	
-0.129578	
-0.132813	
-0.134583	
-0.134155	
-0.136108	
-0.138672	
-0.139771	
-0.138184	
-0.128967	
-0.107788	
-0.0737305	
-0.034729	
-0.0020752	
0.0183716	
0.029541	
0.0358887	
0.0374756	
0.0362549	
0.0336914	
0.0303955	
0.031189	
0.0301514	
0.0232544	
0.0129395	
0.000610352	
-0.0110474	
-0.0203247	
-0.0273438	
-0.0310059	
-0.0321045	
-0.0319824	
-0.0326538	
-0.0340576	
-0.0367432	
-0.0407104	
-0.045166	
-0.0496216	
-0.0551147	
-0.0586548	
-0.0612183	
-0.0629883	
-0.06604	
-0.0688477	
-0.0724487	
-0.0753174	
-0.0792236	
-0.085022	
-0.0897217	
-0.0934448	
-0.0950928	
-0.0962524	
-0.0982666	
-0.0999146	
-0.100403	
-0.0999756	
-0.100708	
-0.101135	
-0.103088	
-0.105042	
-0.107239	
-0.109985	
-0.111389	
-0.106873	
-0.0914917	
-0.0620728	
-0.0258789	
0.00970459	
0.0357056	
0.0497437	
0.0540161	
0.0539551	
0.0498047	
0.0458984	
0.039978	
0.0355835	
0.0297241	
0.0235596	
0.0140991	
0.00402832	
-0.00671387	
-0.0160522	
-0.0229492	
-0.0281372	
-0.0296021	
-0.0308838	
-0.0327148	
-0.0322876	
-0.0325317	
-0.0361328	
-0.0407104	
-0.0465088	
-0.0529785	
-0.0601807	
-0.0648193	
-0.0692749	
-0.0737915	
-0.0760498	
-0.0788574	
-0.0808716	
-0.0845337	
-0.0866699	
-0.0874023	
-0.0869141	
-0.0887451	
-0.0925293	
-0.0975952	
-0.100342	
-0.102478	
-0.10376	
-0.103882	
-0.10498	
-0.105225	
-0.104797	
-0.105286	
-0.106506	
-0.109192	
-0.112427	
-0.115662	
-0.117004	
-0.115723	
-0.105896	
-0.0809326	
-0.0439453	
-0.00585938	
0.0258179	
0.0467529	
0.0587158	
0.0636597	
0.0632324	
0.0610352	
0.0556641	
0.052124	
0.0512085	
0.0481567	
0.0423584	
0.0341187	
0.0258789	
0.0166626	
0.0112915	
0.00787354	
0.00640869	
0.00616455	
0.00494385	
0.00115967	
-0.00341797	
-0.00732422	
-0.0114746	
-0.0167847	
-0.0234375	
-0.0292358	
-0.03479	
-0.0388184	
-0.0420532	
-0.0429077	
-0.0452881	
-0.0484619	
-0.0507813	
-0.053833	
-0.0569458	
-0.0619507	
-0.0664673	
-0.0701294	
-0.0728149	
-0.074585	
-0.0778809	
-0.0805054	
-0.0837402	
-0.0839233	
-0.0841064	
-0.0860596	
-0.0895996	
-0.0922241	
-0.0927124	
-0.0925293	
-0.0940552	
-0.0952148	
-0.0973511	
-0.0979614	
-0.0949097	
-0.0822144	
-0.0532837	
-0.0140381	
0.0250854	
0.0565796	
0.0797119	
0.0944214	
0.103943	
0.107849	
0.107544	
0.105835	
0.104492	
0.104797	
0.102661	
0.0974121	
0.0908203	
0.0830688	
0.0768433	
0.0726318	
0.0687866	
0.0673218	
0.0670166	
0.0665283	
0.0617065	
0.0576172	
0.0535278	
0.0491943	
0.041687	
0.0339355	
0.0264893	
0.0197754	
0.0128174	
0.0057373	
-0.000549316	
-0.0065918	
-0.0122681	
-0.0185547	
-0.022522	
-0.0253906	
-0.0270996	
-0.0319824	
-0.0361328	
-0.0407104	
-0.0463257	
-0.050293	
-0.053894	
-0.0580444	
-0.0609741	
-0.065918	
-0.0701294	
-0.072876	
-0.0742798	
-0.0753174	
-0.0778198	
-0.0828247	
-0.0877686	
-0.090332	
-0.0931396	
-0.09552	
-0.0944214	
-0.0843506	
-0.0584106	
-0.0180054	
0.026123	
0.0666504	
0.0961914	
0.117798	
0.134033	
0.144592	
0.15033	
0.151917	
0.156067	
0.157776	
0.157593	
0.15448	
0.147644	
0.137451	
0.128418	
0.122192	
0.118958	
0.115967	
0.113647	
0.111389	
0.110291	
0.10614	
0.101868	
0.0958252	
0.0912476	
0.0841675	
0.0755005	
0.0673828	
0.0562134	
0.0473022	
0.0394287	
0.03302	
0.0255737	
0.0195923	
0.0119019	
0.00366211	
-0.00262451	
-0.00878906	
-0.0136108	
-0.0189819	
-0.0247192	
-0.0301514	
-0.0363159	
-0.0432739	
-0.0513306	
-0.0588379	
-0.065979	
-0.0720825	
-0.0782471	
-0.0859375	
-0.093811	
-0.0993042	
-0.103516	
-0.107971	
-0.112854	
-0.117981	
-0.122375	
-0.119568	
-0.104858	
-0.0726318	
-0.0247803	
0.0281372	
0.0772095	
0.117554	
0.148926	
0.174133	
0.193481	
0.206726	
0.216125	
0.223267	
0.228027	
0.228088	
0.222839	
0.214111	
0.206604	
0.198914	
0.192139	
0.185059	
0.17804	
0.172546	
0.170654	
0.165161	
0.156006	
0.14563	
0.134644	
0.122498	
0.108459	
0.0943604	
0.083374	
0.0733643	
0.0623779	
0.0495605	
0.0390625	
0.0269775	
0.0137939	
-6.10352E-05	
-0.0113525	
-0.0217285	
-0.0316162	
-0.0426025	
-0.0518188	
-0.0588989	
-0.0681152	
-0.0772095	
-0.0842896	
-0.0908203	
-0.0968628	
-0.10144	
-0.107056	
-0.113159	
-0.119873	
-0.12616	
-0.131287	
-0.136597	
-0.142456	
-0.149353	
-0.15686	
-0.164978	
-0.169006	
-0.164124	
-0.142029	
-0.0986328	
-0.0421143	
0.015686	
0.0703125	
0.115601	
0.151611	
0.177429	
0.197449	
0.211121	
0.218872	
0.223694	
0.226379	
0.223145	
0.212524	
0.201782	
0.190369	
0.180176	
0.170471	
0.160156	
0.151794	
0.144104	
0.134644	
0.124268	
0.111389	
0.0966187	
0.0826416	
0.0704346	
0.057373	
0.0440063	
0.0291748	
0.0166016	
0.00341797	
-0.0103149	
-0.0228882	
-0.0357056	
-0.046814	
-0.0592041	
-0.0703125	
-0.0809937	
-0.0915527	
-0.102234	
-0.112244	
-0.122986	
-0.133301	
-0.144531	
-0.156372	
-0.165771	
-0.175232	
-0.186035	
-0.196106	
-0.204956	
-0.214355	
-0.222351	
-0.228516	
-0.235718	
-0.243042	
-0.24762	
-0.25177	
-0.252747	
-0.25177	
-0.238403	
-0.204224	
-0.1521	
-0.0857544	
-0.0168457	
0.0482178	
0.102539	
0.144653	
0.174988	
0.195679	
0.209717	
0.21875	
0.224487	
0.22522	
0.220337	
0.20874	
0.194519	
0.179077	
0.164368	
0.152649	
0.142578	
0.132385	
0.123047	
0.113098	
0.100647	
0.0874023	
0.072876	
0.0565796	
0.0408325	
0.0252075	
0.00817871	
-0.0109863	
-0.0291748	
-0.0458374	
-0.0630493	
-0.0790405	
-0.0962524	
-0.112915	
-0.128113	
-0.142639	
-0.155212	
-0.16687	
-0.18103	
-0.194275	
-0.205627	
-0.217346	
-0.228699	
-0.237488	
-0.244568	
-0.251831	
-0.258728	
-0.266235	
-0.273499	
-0.280273	
-0.283813	
-0.28833	
-0.292358	
-0.294617	
-0.297058	
-0.300415	
-0.304077	
-0.305176	
-0.293701	
-0.259949	
-0.206238	
-0.135742	
-0.0595703	
0.0127563	
0.0758057	
0.126892	
0.166199	
0.194519	
0.214294	
0.22937	
0.239136	
0.241333	
0.234863	
0.2229	
0.206848	
0.189819	
0.172363	
0.153259	
0.135498	
0.121765	
0.109131	
0.0958862	
0.0807495	
0.0684204	
0.0521851	
0.0338135	
0.0155029	
-0.00421143	
-0.0253906	
-0.045166	
-0.0645752	
-0.0834961	
-0.100281	
-0.11554	
-0.132202	
-0.1474	
-0.162354	
-0.176758	
-0.190918	
-0.204041	
-0.215454	
-0.226563	
-0.236877	
-0.248535	
-0.261047	
-0.271545	
-0.280823	
-0.291016	
-0.30011	
-0.305847	
-0.310974	
-0.315613	
-0.319092	
-0.323425	
-0.328064	
-0.331299	
-0.335022	
-0.338501	
-0.341858	
-0.344604	
-0.34021	
-0.318237	
-0.270264	
-0.200806	
-0.120117	
-0.0357056	
0.0431519	
0.10791	
0.158447	
0.195068	
0.218933	
0.234619	
0.244019	
0.247864	
0.245789	
0.236389	
0.220276	
0.198914	
0.175964	
0.1521	
0.131897	
0.116089	
0.0999756	
0.0839844	
0.0692139	
0.0548096	
0.0396729	
0.0203247	
-0.0010376	
-0.0235596	
-0.0426636	
-0.062561	
-0.0818481	
-0.100403	
-0.117493	
-0.134705	
-0.151489	
-0.167603	
-0.181274	
-0.195313	
-0.207092	
-0.217529	
-0.228577	
-0.240479	
-0.253967	
-0.266235	
-0.276978	
-0.286194	
-0.295959	
-0.307068	
-0.316528	
-0.324707	
-0.330994	
-0.333923	
-0.335754	
-0.337769	
-0.341736	
-0.346436	
-0.35144	
-0.355652	
-0.358887	
-0.362427	
-0.364746	
-0.358521	
-0.331665	
-0.277588	
-0.200439	
-0.111877	
-0.0231323	
0.0561523	
0.120911	
0.170654	
0.204102	
0.226624	
0.242615	
0.251953	
0.256409	
0.252563	
0.241882	
0.223206	
0.196838	
0.166443	
0.135254	
0.107605	
0.0860596	
0.067749	
0.0506592	
0.0340576	
0.0189209	
0.0020752	
-0.0136719	
-0.0310669	
-0.0512695	
-0.0710449	
-0.0899048	
-0.107178	
-0.126282	
-0.145386	
-0.164246	
-0.180115	
-0.195679	
-0.212219	
-0.226013	
-0.235535	
-0.246216	
-0.255554	
-0.263428	
-0.271484	
-0.279968	
-0.288269	
-0.297363	
-0.305847	
-0.312134	
-0.318665	
-0.326294	
-0.335205	
-0.34375	
-0.350464	
-0.355408	
-0.360413	
-0.36554	
-0.370911	
-0.377136	
-0.380859	
-0.383972	
-0.382263	
-0.367737	
-0.333191	
-0.271118	
-0.1875	
-0.0926514	
-0.000427246	
0.0777588	
0.139709	
0.187317	
0.220398	
0.242859	
0.257263	
0.265808	
0.269165	
0.262085	
0.244385	
0.218201	
0.18988	
0.159546	
0.129944	
0.103882	
0.0847168	
0.0697021	
0.0529175	
0.0374756	
0.020874	
0.00299072	
-0.0166626	
-0.0377808	
-0.059082	
-0.0795288	
-0.100037	
-0.1203	
-0.139343	
-0.15625	
-0.175049	
-0.192932	
-0.210754	
-0.227661	
-0.243469	
-0.258179	
-0.270813	
-0.283264	
-0.2948	
-0.305908	
-0.316406	
-0.325562	
-0.333069	
-0.340454	
-0.347717	
-0.356201	
-0.361694	
-0.363831	
-0.366394	
-0.36969	
-0.372559	
-0.374573	
-0.375793	
-0.379761	
-0.384644	
-0.386597	
-0.385254	
-0.372192	
-0.335327	
-0.27179	
-0.188477	
-0.0979614	
-0.0125732	
0.0592651	
0.114746	
0.154114	
0.179688	
0.192566	
0.195374	
0.192383	
0.183716	
0.164429	
0.137878	
0.106628	
0.0776978	
0.0542603	
0.0352173	
0.0200195	
0.00848389	
-0.00262451	
-0.0149536	
-0.0267944	
-0.0404053	
-0.0567017	
-0.0753784	
-0.0938721	
-0.111816	
-0.128662	
-0.146729	
-0.165344	
-0.1828	
-0.200684	
-0.215088	
-0.227356	
-0.238037	
-0.247437	
-0.256592	
-0.266541	
-0.276794	
-0.287476	
-0.295349	
-0.301758	
-0.307617	
-0.316101	
-0.325134	
-0.332581	
-0.337952	
-0.343018	
-0.348083	
-0.353027	
-0.357117	
-0.359985	
-0.362183	
-0.363342	
-0.365967	
-0.367493	
-0.366638	
-0.351685	
-0.308472	
-0.235168	
-0.140259	
-0.0379028	
0.0606079	
0.145142	
0.211853	
0.261475	
0.295349	
0.318665	
0.334595	
0.342712	
0.344299	
0.336426	
0.319031	
0.290527	
0.253296	
0.212524	
0.17511	
0.142639	
0.113464	
0.0899658	
0.0695801	
0.0507202	
0.0319824	
0.0108643	
-0.0114746	
-0.0342407	
-0.0585327	
-0.0822144	
-0.106506	
-0.129028	
-0.152039	
-0.174744	
-0.19635	
-0.214355	
-0.231262	
-0.244385	
-0.258545	
-0.272156	
-0.283997	
-0.294556	
-0.304626	
-0.314514	
-0.323486	
-0.331787	
-0.340271	
-0.347168	
-0.354431	
-0.361328	
-0.366821	
-0.371826	
-0.375977	
-0.379761	
-0.382507	
-0.385498	
-0.387878	
-0.38916	
-0.388611	
-0.388245	
-0.381592	
-0.355469	
-0.299866	
-0.214111	
-0.107971	
0.00115967	
0.101563	
0.184814	
0.249512	
0.296814	
0.331177	
0.356384	
0.372437	
0.38092	
0.38031	
0.369263	
0.345703	
0.311768	
0.272827	
0.230591	
0.18866	
0.152161	
0.121216	
0.0943604	
0.0722046	
0.0496216	
0.0252075	
0.000671387	
-0.0249634	
-0.0504761	
-0.0764771	
-0.102051	
-0.127502	
-0.151489	
-0.175293	
-0.19696	
-0.218506	
-0.238708	
-0.254395	
-0.268372	
-0.281128	
-0.29248	
-0.30365	
-0.314209	
-0.323853	
-0.335144	
-0.34613	
-0.356445	
-0.36554	
-0.373901	
-0.381714	
-0.388672	
-0.394409	
-0.398499	
-0.403625	
-0.407166	
-0.410461	
-0.411987	
-0.412476	
-0.412842	
-0.412598	
-0.410828	
-0.401184	
-0.37323	
-0.314941	
-0.223816	
-0.113586	
-0.00256348	
0.0977173	
0.182129	
0.245667	
0.29187	
0.32489	
0.346252	
0.357544	
0.360474	
0.35553	
0.339966	
0.311462	
0.272949	
0.227722	
0.181824	
0.140991	
0.108093	
0.0809326	
0.0587158	
0.0404053	
0.0237427	
0.00463867	
-0.0172119	
-0.0415039	
-0.0671997	
-0.0912476	
-0.116882	
-0.142273	
-0.166443	
-0.190002	
-0.210388	
-0.231384	
-0.250916	
-0.268127	
-0.282776	
-0.296997	
-0.309021	
-0.32019	
-0.330811	
-0.340576	
-0.347717	
-0.354431	
-0.363342	
-0.372681	
-0.380005	
-0.385559	
-0.390259	
-0.396912	
-0.401917	
-0.405029	
-0.408203	
-0.410583	
-0.41156	
-0.414063	
-0.415161	
-0.415833	
-0.416321	
-0.411438	
-0.388794	
-0.334534	
-0.24707	
-0.139404	
-0.0272217	
0.0770264	
0.165527	
0.233093	
0.281372	
0.313538	
0.335083	
0.348938	
0.355164	
0.353149	
0.34137	
0.316895	
0.279663	
0.235596	
0.188477	
0.14447	
0.108398	
0.0814819	
0.0604858	
0.043396	
0.026062	
0.00646973	
-0.0150757	
-0.0379028	
-0.0613403	
-0.085083	
-0.109436	
-0.133972	
-0.157715	
-0.177429	
-0.196777	
-0.213745	
-0.229736	
-0.239929	
-0.247559	
-0.255005	
-0.262512	
-0.271851	
-0.281921	
-0.291077	
-0.300415	
-0.309387	
-0.317871	
-0.326721	
-0.3349	
-0.340942	
-0.345581	
-0.348938	
-0.351013	
-0.351501	
-0.352661	
-0.353638	
-0.354736	
-0.357056	
-0.358643	
-0.360352	
-0.355957	
-0.331177	
-0.275391	
-0.188538	
-0.0807495	
0.0283203	
0.123413	
0.200256	
0.258423	
0.298462	
0.321411	
0.33429	
0.337891	
0.332092	
0.317505	
0.290894	
0.255005	
0.211548	
0.168823	
0.131226	
0.100403	
0.0784302	
0.0606079	
0.0454102	
0.0309448	
0.0137329	
-0.00653076	
-0.0275269	
-0.0487061	
-0.0714722	
-0.0949707	
-0.117065	
-0.140137	
-0.162537	
-0.183167	
-0.204041	
-0.223511	
-0.240967	
-0.256653	
-0.269653	
-0.282227	
-0.29364	
-0.302795	
-0.309509	
-0.317505	
-0.32428	
-0.331116	
-0.338562	
-0.344971	
-0.352783	
-0.362244	
-0.368835	
-0.374451	
-0.37793	
-0.382446	
-0.387024	
-0.391907	
-0.395752	
-0.398865	
-0.401672	
-0.400513	
-0.392822	
-0.366333	
-0.306763	
-0.212524	
-0.0950317	
0.0296021	
0.144775	
0.242493	
0.317993	
0.372131	
0.409058	
0.432739	
0.447693	
0.454163	
0.452942	
0.440369	
0.413025	
0.370789	
0.317627	
0.26355	
0.214905	
0.174133	
0.141724	
0.114441	
0.0899048	
0.0661011	
0.0410156	
0.013916	
-0.0136108	
-0.0408325	
-0.0696411	
-0.0976563	
-0.123047	
-0.14917	
-0.174683	
-0.195496	
-0.215698	
-0.234741	
-0.252869	
-0.269348	
-0.284851	
-0.299438	
-0.311035	
-0.322998	
-0.33551	
-0.345947	
-0.356567	
-0.367676	
-0.38031	
-0.390381	
-0.398315	
-0.403259	
-0.408508	
-0.414063	
-0.418579	
-0.423401	
-0.430725	
-0.434326	
-0.435303	
-0.43689	
-0.437378	
-0.435547	
-0.427124	
-0.398865	
-0.338135	
-0.245483	
-0.132996	
-0.0168457	
0.0895386	
0.175293	
0.240295	
0.28656	
0.316162	
0.33252	
0.339233	
0.34021	
0.331482	
0.30957	
0.274353	
0.228638	
0.179504	
0.133118	
0.09552	
0.0657959	
0.0409546	
0.0206909	
0.00201416	
-0.0162354	
-0.0360107	
-0.0577393	
-0.0805054	
-0.10321	
-0.124634	
-0.144592	
-0.166016	
-0.187256	
-0.206238	
-0.224304	
-0.241516	
-0.259521	
-0.274963	
-0.288635	
-0.301941	
-0.314026	
-0.324402	
-0.332092	
-0.340088	
-0.349365	
-0.358643	
-0.367981	
-0.377625	
-0.388062	
-0.396729	
-0.404114	
-0.411072	
-0.416565	
-0.423645	
-0.430542	
-0.437012	
-0.443481	
-0.448608	
-0.452148	
-0.443604	
-0.412048	
-0.351013	
-0.26532	
-0.169922	
-0.0748901	
0.00946045	
0.0799561	
0.135742	
0.179565	
0.209412	
0.227417	
0.238403	
0.242188	
0.237549	
0.222656	
0.194397	
0.159363	
0.122192	
0.0883789	
0.0569458	
0.0314331	
0.0115356	
-0.00494385	
-0.0218506	
-0.0406494	
-0.0613403	
-0.0838623	
-0.107178	
-0.131348	
-0.154175	
-0.175354	
-0.194336	
-0.213989	
-0.230469	
-0.245789	
-0.260315	
-0.27417	
-0.287781	
-0.30127	
-0.314209	
-0.325378	
-0.334839	
-0.344116	
-0.354248	
-0.364197	
-0.373413	
-0.382263	
-0.391357	
-0.40033	
-0.408447	
-0.414734	
-0.42041	
-0.422913	
-0.423645	
-0.4245	
-0.425537	
-0.425171	
-0.425964	
-0.427307	
-0.427307	
-0.419495	
-0.392944	
-0.341187	
-0.266907	
-0.182068	
-0.0964966	
-0.0171509	
0.0518188	
0.109558	
0.153809	
0.188049	
0.21521	
0.239441	
0.25647	
0.264954	
0.263428	
0.250305	
0.226563	
0.196106	
0.164307	
0.136169	
0.112915	
0.0905762	
0.0708008	
0.0533447	
0.0352173	
0.0177612	
0.000427246	
-0.0184326	
-0.0368042	
-0.057251	
-0.0783691	
-0.100586	
-0.122375	
-0.142822	
-0.160583	
-0.176697	
-0.193542	
-0.207275	
-0.222717	
-0.23645	
-0.247375	
-0.257019	
-0.266357	
-0.276062	
-0.285095	
-0.292603	
-0.297546	
-0.303955	
-0.31189	
-0.320801	
-0.328674	
-0.333252	
-0.338684	
-0.343506	
-0.348755	
-0.354187	
-0.358398	
-0.361755	
-0.365845	
-0.368774	
-0.367981	
-0.3573	
-0.326111	
-0.272461	
-0.200562	
-0.122009	
-0.0430298	
0.0233765	
0.0790405	
0.121094	
0.15155	
0.179382	
0.200745	
0.216736	
0.227661	
0.231567	
0.22467	
0.209534	
0.188416	
0.16748	
0.14917	
0.133423	
0.120239	
0.108398	
0.0952759	
0.0822144	
0.067688	
0.0522461	
0.0354614	
0.0175171	
6.10352E-05	
-0.0170898	
-0.0345459	
-0.0524292	
-0.0674438	
-0.0831909	
-0.0995483	
-0.114197	
-0.126465	
-0.140808	
-0.154846	
-0.169617	
-0.1828	
-0.192932	
-0.203003	
-0.210144	
-0.216614	
-0.224426	
-0.231995	
-0.239136	
-0.246704	
-0.25293	
-0.259949	
-0.265991	
-0.272766	
-0.27887	
-0.283203	
-0.286682	
-0.290527	
-0.293762	
-0.296814	
-0.294495	
-0.278748	
-0.240967	
-0.180725	
-0.107483	
-0.032959	
0.038147	
0.100769	
0.153015	
0.197266	
0.23291	
0.262756	
0.287659	
0.306641	
0.320251	
0.327393	
0.321533	
0.305847	
0.284729	
0.260986	
0.238892	
0.216858	
0.197998	
0.179871	
0.161865	
0.145386	
0.125549	
0.107056	
0.0878906	
0.0688477	
0.0480957	
0.0258179	
0.0032959	
-0.0184326	
-0.0380249	
-0.0582886	
-0.0768433	
-0.0956421	
-0.114075	
-0.130188	
-0.146179	
-0.16095	
-0.174072	
-0.187561	
-0.198547	
-0.209534	
-0.218994	
-0.229614	
-0.239075	
-0.248108	
-0.258545	
-0.267212	
-0.275757	
-0.284912	
-0.29126	
-0.296631	
-0.301331	
-0.304504	
-0.307312	
-0.310364	
-0.312317	
-0.313721	
-0.313049	
-0.30249	
-0.273926	
-0.221252	
-0.148193	
-0.0672607	
0.0133057	
0.0873413	
0.153015	
0.21167	
0.260864	
0.300293	
0.332031	
0.356079	
0.373718	
0.380859	
0.376892	
0.359863	
0.332153	
0.301636	
0.271423	
0.242859	
0.219177	
0.199402	
0.183044	
0.165771	
0.14801	
0.128235	
0.106262	
0.083252	
0.0578613	
0.0307007	
0.00561523	
-0.0176392	
-0.038269	
-0.0576782	
-0.0772705	
-0.0973511	
-0.116516	
-0.134094	
-0.15033	
-0.165588	
-0.18042	
-0.193848	
-0.206787	
-0.218994	
-0.228149	
-0.237854	
-0.249207	
-0.259155	
-0.268127	
-0.276794	
-0.285889	
-0.297424	
-0.308105	
-0.317322	
-0.324341	
-0.328735	
-0.332764	
-0.336548	
-0.340027	
-0.34375	
-0.344788	
-0.345215	
-0.338989	
-0.311401	
-0.257141	
-0.178833	
-0.0878296	
0.00402832	
0.0897217	
0.164734	
0.223206	
0.271606	
0.311523	
0.343689	
0.367859	
0.381409	
0.385193	
0.375	
0.350708	
0.315125	
0.276428	
0.23645	
0.201782	
0.173401	
0.148315	
0.126648	
0.10553	
0.083313	
0.0605469	
0.0368652	
0.0132446	
-0.0101318	
-0.0335083	
-0.055603	
-0.0787354	
-0.100647	
-0.121094	
-0.13916	
-0.156982	
-0.174072	
-0.188232	
-0.199158	
-0.211365	
-0.223267	
-0.235352	
-0.24585	
-0.256165	
-0.266602	
-0.276001	
-0.286133	
-0.296753	
-0.30658	
-0.312683	
-0.318054	
-0.323303	
-0.327637	
-0.329956	
-0.333069	
-0.337646	
-0.343323	
-0.347656	
-0.351379	
-0.354736	
-0.355347	
-0.347717	
-0.324219	
-0.273071	
-0.195496	
-0.103455	
-0.0106812	
0.074585	
0.146912	
0.203552	
