-5.55
-5.65
-5.76
-5.87
-5.97
-6
-6.11
-6.16
-6.24
-6.35
-6.4
-6.48
-6.27
-5.79
-5.04
-3.65
-2.21
-0.32
1.41
2.27
2.8
3.23
3.23
3.2
2.99
2.72
2.4
2.05
1.63
1.28
1.04
0.77
0.48
-0.03
-0.45
-0.88
-1.2
-1.52
-1.92
-2.29
-2.45
-2.56
-2.64
-2.69
-2.72
-2.72
-2.72
-2.72
-2.85
-3.01
-3.12
-3.25
-3.41
-3.6
-3.81
-4.03
-4.16
-4.35
-4.51
-4.72
-4.91
-5.01
-5.12
-5.23
-5.39
-5.52
-5.6
-5.65
-5.76
-5.87
-5.97
-6.08
-6.03
-5.81
-5.2
-3.39
-1.73
-0.24
1.04
2.11
3.04
3.87
4.03
4
3.87
3.55
3.2
2.88
2.56
2.24
1.92
1.6
1.12
0.61
0.24
-0.16
-0.59
-1.07
-1.52
-1.81
-2.03
-2.16
-2.27
-2.32
-2.4
-2.4
-2.45
-2.56
-2.67
-2.77
-2.88
-3.12
-3.39
-3.6
-3.73
-3.95
-4.16
-4.37
-4.53
-4.64
-4.83
-4.93
-5.12
-5.23
-5.33
-5.44
-5.55
-5.65
-5.76
-5.87
-5.97
-6
-6.05
-5.89
-5.28
-4.29
-2.91
-1.36
0.69
2.24
3.2
3.76
4.19
4.24
4.27
4.05
3.68
3.33
2.85
2.32
1.92
1.55
1.2
0.64
0
-0.48
-0.91
-1.28
-1.6
-1.89
-2.05
-2.16
-2.27
-2.32
-2.4
-2.43
-2.48
-2.56
-2.59
-2.75
-2.88
-3.28
-3.55
-3.76
-4
-4.27
-4.48
-4.61
-4.77
-4.88
-5.09
-5.25
-5.36
-5.47
-5.57
-5.68
-5.79
-5.89
-6
-6.03
-6.08
-6.08
-5.73
-5.04
-4
-2.29
0.05
1.6
2.77
3.63
4.16
4.51
4.67
4.56
4.24
3.87
3.28
2.77
2.4
2
1.57
0.99
0.32
-0.19
-0.67
-1.12
-1.55
-1.97
-2.24
-2.43
-2.53
-2.64
-2.72
-2.72
-2.72
-2.8
-2.85
-3.04
-3.15
-3.25
-3.44
-3.57
-3.79
-4
-4.21
-4.43
-4.56
-4.77
-4.99
-5.12
-5.23
-5.33
-5.44
-5.63
-5.73
-5.84
-5.92
-5.97
-6.08
-6.19
-6.24
-6.32
-6.24
-5.55
-4.48
-2.99
-1.44
0.24
1.68
3.33
4.16
4.69
4.91
4.88
4.56
4.19
3.84
3.41
2.99
2.4
1.89
1.47
1.04
0.59
-0.05
-0.72
-1.12
-1.44
-1.76
-2.08
-2.35
-2.48
-2.59
-2.64
-2.72
-2.72
-2.77
-2.88
-2.99
-3.09
-3.28
-3.49
-3.65
-3.84
-3.97
-4.24
-4.48
-4.67
-4.83
-4.96
-5.09
-5.25
-5.36
-5.47
-5.57
-5.68
-5.79
-5.89
-6
-6.08
-6.13
-6.24
-6.24
-6.19
-5.84
-5.25
-4.19
-2.72
-0.37
1.39
2.64
3.52
4.48
4.8
4.83
4.67
4.4
3.87
3.39
3.04
2.61
2.19
1.6
0.99
0.51
0
-0.45
-0.93
-1.36
-1.89
-2.32
-2.56
-2.69
-2.85
-2.96
-2.96
-2.96
-3.04
-3.12
-3.17
-3.28
-3.47
-3.63
-3.84
-4.05
-4.27
-4.48
-4.61
-4.83
-5.04
-5.23
-5.33
-5.44
-5.55
-5.65
-5.76
-5.79
-5.84
-5.92
-6
-6.05
-6.08
-6.16
-6.21
-6.24
-6.08
-5.71
-4.88
-3.71
-1.84
0.48
1.76
2.83
3.76
4.24
4.61
4.64
4.48
4.16
3.76
3.15
2.67
2.24
1.84
1.47
0.8
0.19
-0.29
-0.8
-1.23
-1.71
-2.24
-2.53
-2.75
-2.88
-2.99
-3.09
-3.12
-3.15
-3.2
-3.28
-3.39
-3.49
-3.6
-3.79
-3.95
-4.24
-4.45
-4.61
-4.96
-5.31
-5.47
-5.6
-5.68
-5.73
-5.76
-5.79
-5.84
-5.92
-5.92
-5.92
-6
-6.08
-6.13
-6.16
-6.16
-6.05
-5.36
-4.4
-3.07
-1.6
-0.05
1.55
3.36
4.03
4.51
4.8
4.72
4.4
4
3.65
3.23
2.8
2.16
1.63
1.2
0.77
0.29
-0.4
-0.99
-1.41
-1.84
-2.24
-2.61
-2.96
-3.07
-3.17
-3.28
-3.31
-3.36
-3.44
-3.47
-3.57
-3.68
-3.89
-4.11
-4.24
-4.43
-4.59
-4.8
-5.01
-5.17
-5.28
-5.39
-5.55
-5.68
-5.79
-5.89
-5.92
-6.03
-6.08
-6.16
-6.16
-6.16
-6.24
-6.32
-6.32
-6.32
-6.29
-6.03
-5.04
-3.71
-2.16
-0.64
0.8
2.19
3.76
4.19
4.45
4.64
4.4
4.08
3.68
3.25
2.83
2.4
1.79
1.31
0.96
0.53
0.05
-0.64
-1.23
-1.65
-2
-2.32
-2.64
-2.88
-2.99
-3.09
-3.12
-3.23
-3.28
-3.36
-3.39
-3.49
-3.68
-3.89
-4.11
-4.24
-4.45
-4.67
-4.88
-5.09
-5.25
-5.36
-5.47
-5.57
-5.68
-5.76
-5.81
-5.92
-6
-6
-6.08
-6.11
-6.16
-6.24
-6.24
-6.24
-6.16
-5.71
-4.91
-3.12
-1.17
0.27
1.44
2.51
3.25
4.08
4.11
4.05
3.92
3.55
3.01
2.56
2.13
1.71
1.28
0.64
0.11
-0.32
-0.83
-1.31
-1.76
-2.21
-2.69
-3.04
-3.25
-3.41
-3.52
-3.6
-3.6
-3.6
-3.71
-3.76
-3.84
-3.95
-4.05
-4.24
-4.45
-4.61
-4.72
-4.91
-5.07
-5.28
-5.39
-5.49
-5.6
-5.71
-5.81
-5.92
-5.92
-5.97
-6
-6.08
-6.13
-6.24
-6.27
-6.32
-6.32
-6.4
-6.35
-6.16
-5.49
-4.53
-2.64
-0.61
0.77
1.84
2.8
3.39
3.92
3.92
3.76
3.52
3.04
2.45
1.92
1.49
1.07
0.56
-0.16
-0.75
-1.2
-1.71
-2.13
-2.64
-3.01
-3.23
-3.44
-3.55
-3.65
-3.68
-3.68
-3.68
-3.68
-3.79
-3.84
-4
-4.11
-4.21
-4.4
-4.59
-4.75
-4.88
-5.07
-5.17
-5.52
-5.87
-5.92
-6
-6.03
-6.13
-6.16
-6.16
-6.21
-6.24
-6.32
-6.32
-6.4
-6.43
-6.48
-6.48
-6.13
-5.49
-4.56
-3.15
-1.6
0.4
2.29
3.2
3.84
4.35
4.35
4.32
4.03
3.71
3.28
2.72
2.08
1.52
1.07
0.59
0.08
-0.67
-1.31
-1.76
-2.16
-2.48
-2.88
-3.17
-3.33
-3.44
-3.47
-3.52
-3.52
-3.52
-3.57
-3.6
-3.71
-3.81
-4
-4.11
-4.21
-4.4
-4.61
-4.83
-4.96
-5.07
-5.17
-5.36
-5.47
-5.57
-5.68
-5.71
-5.81
-5.84
-5.92
-5.97
-6
-6.11
-6.16
-6.24
-6.24
-6.24
-6.24
-5.68
-4.83
-3.68
-2.05
-0.4
1.52
3.23
4.03
4.56
4.88
4.77
4.64
4.32
3.95
3.52
2.93
2.24
1.68
1.23
0.75
0.24
-0.51
-1.15
-1.6
-2.03
-2.4
-2.8
-3.07
-3.17
-3.28
-3.36
-3.41
-3.44
-3.44
-3.49
-3.52
-3.65
-3.81
-3.92
-4.05
-4.21
-4.4
-4.61
-4.77
-4.88
-5.07
-5.17
-5.36
-5.47
-5.52
-5.6
-5.63
-5.73
-5.84
-5.92
-5.97
-6
-6.03
-6.08
-6.16
-6.24
-6.24
-6.16
-5.41
-4.4
-3.04
-1.41
0.19
1.92
3.52
4.21
4.64
4.88
4.77
4.56
4.16
3.73
3.28
2.77
2.08
1.6
1.15
0.67
0.16
-0.56
-1.15
-1.6
-2
-2.32
-2.72
-3.01
-3.17
-3.28
-3.31
-3.36
-3.44
-3.44
-3.49
-3.52
-3.65
-3.81
-3.92
-4.05
-4.21
-4.4
-4.61
-4.83
-4.96
-5.07
-5.17
-5.36
-5.47
-5.52
-5.6
-5.63
-5.73
-5.76
-5.84
-5.89
-5.92
-6.03
-6.08
-6.16
-6.13
-6.03
-5.68
-4.27
-2.72
-1.12
0.4
1.79
3.12
4.24
4.61
4.8
4.83
4.51
4.08
3.65
3.17
2.72
2.24
1.6
1.12
0.67
0.13
-0.4
-1.12
-1.65
-2
-2.4
-2.72
-3.04
-3.23
-3.33
-3.44
-3.44
-3.44
-3.44
-3.55
-3.65
-3.68
-3.81
-4.03
-4.16
-4.29
-4.45
-4.64
-4.85
-5.17
-5.52
-5.63
-5.73
-5.84
-5.95
-6
-6
-6.03
-6.13
-6.16
-6.16
-6.21
-6.24
-6.21
-6.05
-5.6
-4.91
-3.73
-2.24
0.03
1.79
2.96
3.71
4.24
4.48
4.59
4.43
4.16
3.81
3.28
2.64
2.21
1.79
1.36
0.77
0.08
-0.48
-0.93
-1.41
-1.84
-2.37
-2.8
-3.04
-3.23
-3.33
-3.44
-3.47
-3.52
-3.6
-3.63
-3.73
-3.84
-3.95
-4.05
-4.16
-4.37
-4.59
-4.8
-4.93
-5.09
-5.2
-5.39
-5.49
-5.6
-5.71
-5.81
-5.92
-6.03
-6.08
-6.16
-6.16
-6.21
-6.24
-6.32
-6.37
-6.4
-6.21
-5.73
-4.88
-3.68
-2.08
-0.48
1.57
3.07
3.92
4.37
4.69
4.64
4.56
4.24
3.84
3.49
2.91
2.24
1.81
1.39
0.96
0.37
-0.32
-0.88
-1.31
-1.73
-2.16
-2.67
-2.99
-3.2
-3.31
-3.41
-3.52
-3.55
-3.6
-3.6
-3.63
-3.79
-3.92
-4.11
-4.21
-4.32
-4.53
-4.75
-4.96
-5.09
-5.25
-5.36
-5.55
-5.65
-5.76
-5.84
-5.89
-6
-6.03
-6.08
-6.16
-6.19
-6.29
-6.32
-6.32
-6.27
-6.08
-5.2
-3.6
-2
-0.37
1.07
2.24
3.41
4.16
4.48
4.48
4.32
3.92
3.49
3.07
2.64
2.19
1.6
0.96
0.45
-0.03
-0.48
-0.99
-1.47
-2.08
-2.56
-2.88
-3.12
-3.41
-3.57
-3.68
-3.76
-3.81
-3.92
-3.95
-4
-4.08
-4.13
-4.35
-4.48
-4.67
-4.83
-4.96
-5.09
-5.31
-5.44
-5.55
-5.65
-5.76
-5.87
-5.97
-6
-6.08
-6.13
-6.24
-6.24
-6.24
-6.32
-6.35
-6.4
-6.4
-6.29
-5.92
-5.28
-3.84
-1.6
0
1.31
2.37
3.12
3.68
4
4
3.79
3.47
2.88
2.29
1.87
1.36
0.91
0.27
-0.48
-1.01
-1.55
-2
-2.43
-2.8
-3.2
-3.49
-3.65
-3.76
-3.87
-3.92
-3.92
-3.92
-3.97
-4.08
-4.11
-4.21
-4.32
-4.43
-4.59
-4.8
-4.91
-5.07
-5.2
-5.33
-5.49
-5.6
-5.76
-6.08
-6.16
-6.24
-6.29
-6.32
-6.32
-6.37
-6.48
-6.48
-6.48
-6.48
-6.32
-5.68
-4.64
-3.15
-1.6
0.08
1.44
3.09
3.84
4.27
4.43
4.4
4.08
3.71
3.28
2.85
2.37
1.68
1.07
0.53
0
-0.45
-1.09
-1.84
-2.27
-2.64
-2.96
-3.28
-3.55
-3.68
-3.71
-3.76
-3.76
-3.84
-3.84
-3.84
-3.95
-4.05
-4.24
-4.35
-4.45
-4.64
-4.75
-4.91
-5.12
-5.23
-5.33
-5.44
-5.55
-5.65
-5.76
-5.79
-5.84
-5.92
-6
-6.05
-6.08
-6.16
-6.16
-6.16
-6.11
-5.89
-5.36
-4.45
-2.59
-0.24
1.25
2.53
3.6
4.21
4.8
4.96
4.88
4.61
4.24
3.6
3.01
2.56
2.03
1.49
0.8
0.11
-0.43
-0.96
-1.49
-2.08
-2.64
-2.93
-3.15
-3.36
-3.55
-3.65
-3.76
-3.76
-3.76
-3.76
-3.84
-3.89
-4
-4.11
-4.21
-4.4
-4.53
-4.69
-4.88
-5.01
-5.23
-5.36
-5.47
-5.57
-5.6
-5.71
-5.76
-5.84
-5.87
-5.92
-5.92
-6
-6.05
-6.08
-6.16
-6.16
-5.84
-5.28
-4.32
-2.96
-1.36
0.51
2.64
3.52
4.21
4.72
4.8
4.8
4.56
4.21
3.79
3.36
2.64
2.05
1.6
1.07
0.53
-0.16
-0.85
-1.33
-1.84
-2.27
-2.69
-3.12
-3.31
-3.41
-3.52
-3.63
-3.68
-3.68
-3.71
-3.76
-3.84
-3.95
-4.05
-4.16
-4.35
-4.51
-4.72
-4.85
-5.01
-5.12
-5.23
-5.39
-5.52
-5.6
-5.65
-5.76
-5.79
-5.84
-5.92
-5.95
-6
-6.08
-6.16
-6.21
-6.24
-6.21
-6
-5.04
-3.79
-2.24
-0.64
0.96
2.24
3.2
4.19
4.77
4.88
4.69
4.32
3.92
3.57
3.15
2.64
1.92
1.33
0.88
0.37
-0.11
-0.64
-1.15
-1.57
-2.16
-2.64
-2.96
-3.28
-3.47
-3.57
-3.6
-3.6
-3.6
-3.68
-3.71
-3.76
-3.84
-4.03
-4.19
-4.32
-4.43
-4.59
-4.8
-4.99
-5.09
-5.2
-5.31
-5.47
-5.6
-5.68
-5.73
-5.76
-6.05
-6.16
-6.24
-6.24
-6.24
-6.24
-6.13
-5.81
-5.28
-4.08
-2.69
-0.56
1.49
2.67
3.52
4.16
4.43
4.72
4.51
4.24
4
3.52
2.88
2.32
1.89
1.47
0.96
0.21
-0.43
-0.88
-1.39
-1.81
-2.32
-2.8
-3.07
-3.28
-3.39
-3.49
-3.6
-3.6
-3.65
-3.68
-3.79
-3.84
-3.92
-4.05
-4.21
-4.32
-4.53
-4.75
-4.88
-4.99
-5.15
-5.36
-5.47
-5.52
-5.6
-5.71
-5.81
-5.84
-5.92
-5.97
-6
-6.11
-6.16
-6.24
-6.21
-6.11
-5.84
-4.64
-3.25
-1.68
-0.08
1.31
2.72
4.03
4.45
4.64
4.75
4.48
4.16
3.73
3.31
2.88
2.32
1.68
1.12
0.67
0.19
-0.32
-1.04
-1.57
-2
-2.43
-2.8
-3.12
-3.39
-3.49
-3.6
-3.68
-3.73
-3.76
-3.76
-3.81
-3.92
-4.05
-4.21
-4.4
-4.53
-4.69
-4.88
-5.07
-5.23
-5.36
-5.47
-5.57
-5.68
-5.71
-5.76
-5.84
-5.87
-5.97
-6
-6.08
-6.13
-6.16
-6.24
-6.19
-5.84
-5.17
-4.05
-2.64
-0.29
1.47
2.72
3.49
4.08
4.32
4.51
4.35
4.08
3.73
3.15
2.48
2.05
1.57
1.12
0.53
-0.16
-0.72
-1.17
-1.71
-2.16
-2.69
-3.12
-3.36
-3.57
-3.73
-3.84
-3.92
-3.92
-3.92
-3.95
-4.05
-4.08
-4.19
-4.29
-4.4
-4.61
-4.83
-4.96
-5.09
-5.25
-5.44
-5.63
-5.73
-5.76
-5.87
-5.97
-6.08
-6.11
-6.16
-6.16
-6.19
-6.29
-6.32
-6.32
-6.32
-6.24
-5.73
-4.67
-3.28
-1.79
-0.24
1.12
2.61
3.57
4
4.11
4.05
3.68
3.33
2.96
2.48
2.03
1.39
0.64
0.13
-0.35
-0.88
-1.47
-2.16
-2.64
-3.04
-3.31
-3.52
-3.81
-3.97
-4
-4
-4.05
-4.08
-4.08
-4.08
-4.16
-4.27
-4.37
-4.48
-4.67
-4.77
-4.88
-5.09
-5.25
-5.44
-5.55
-5.65
-5.76
-5.87
-5.97
-6
-6
-6.05
-6.16
-6.16
-6.16
-6.24
-6.24
-6.24
-6.24
-5.68
-4.72
-3.36
-1.76
-0.21
1.52
3.12
3.76
4.08
4.21
4.16
3.92
3.52
3.09
2.4
1.79
1.31
0.8
0.27
-0.43
-1.2
-1.73
-2.27
-2.72
-3.07
-3.49
-3.76
-3.87
-3.97
-4
-4
-4
-4
-4
-4.05
-4.08
-4.21
-4.37
-4.48
-4.59
-4.75
-4.96
-5.15
-5.25
-5.36
-5.49
-5.65
-5.76
-5.79
-5.84
-5.92
-6
-6.05
-6.08
-6.16
-6.16
-6.24
-6.27
-6.32
-6.32
-6.29
-5.97
-5.36
-4.16
-2.67
-0.96
0.64
2.08
3.44
4.64
5.01
5.12
4.91
4.59
4.24
3.73
3.25
2.56
1.87
1.33
0.8
0.27
-0.27
-0.8
-1.33
-1.97
-2.64
-2.99
-3.36
-3.6
-3.71
-3.76
-3.84
-3.84
-3.89
-3.92
-3.92
-3.97
-4.08
-4.19
-4.29
-4.48
-4.59
-4.75
-4.96
-5.07
-5.17
-5.28
-5.41
-5.57
-5.68
-5.71
-5.76
-5.84
-5.92
-5.92
-5.92
-6
-6.05
-6.16
-6.16
-6.16
-6.08
-5.89
-4.99
-3.6
-2
-0.4
1.2
2.48
3.49
4.32
4.96
5.01
4.88
4.45
4.03
3.6
3.07
2.53
1.84
1.15
0.67
0.08
-0.45
-0.93
-1.44
-1.95
-2.48
-3.04
-3.28
-3.55
-3.68
-3.79
-3.84
-3.84
-3.92
-3.92
-3.92
-4.03
-4.13
-4.16
-4.37
-4.53
-4.64
-4.77
-4.99
-5.12
-5.23
-5.33
-5.44
-5.55
-5.65
-5.76
-5.79
-5.84
-5.92
-5.95
-6.05
-6.08
-6.08
-6.13
-6.24
-6.24
-6.19
-5.92
-5.36
-3.87
-1.84
-0.24
1.25
2.64
3.52
4.27
4.64
4.93
4.83
4.56
3.95
3.41
2.96
2.53
2.05
1.36
0.67
0.19
-0.32
-0.85
-1.33
-1.84
-2.45
-2.88
-3.2
-3.41
-3.63
-3.76
-3.79
-3.84
-3.84
-3.92
-3.97
-4
-4.11
-4.21
-4.32
-4.45
-4.61
-4.8
-4.93
-5.09
-5.2
-5.39
-5.49
-5.52
-5.63
-5.73
-5.84
-5.87
-5.92
-5.92
-5.95
-6.05
-6.08
-6.16
-6.16
-6.24
-6.19
-5.97
-4.56
-2.8
-0.83
1.6
2.67
3.57
4.32
4.56
4.72
4.56
4.29
3.92
3.44
2.8
2.21
1.76
1.25
0.77
0.08
-0.61
-1.09
-1.6
-2.03
-2.4
-2.72
-3.15
-3.41
-3.52
-3.63
-3.68
-3.76
-3.76
-3.76
-3.84
-3.95
-4.05
-4.08
-4.27
-4.37
-4.48
-4.69
-4.91
-5.12
-5.23
-5.33
-5.44
-5.55
-5.65
-5.68
-5.79
-5.89
-6
-6.03
-6.08
-6.08
-6.11
-6.16
-6.24
-6.32
-6.27
-5.92
-5.25
-4.19
-2.72
-1.12
0.69
2.8
3.65
4.29
4.72
4.83
4.77
4.4
4.05
3.63
3.2
2.48
1.89
1.44
0.93
0.45
-0.24
-0.85
-1.39
-1.84
-2.27
-2.64
-2.96
-3.36
-3.57
-3.68
-3.79
-3.84
-3.92
-3.95
-4
-4.08
-4.19
-4.29
-4.4
-4.51
-4.67
-4.8
-4.93
-5.15
-5.28
-5.39
-5.55
-5.68
-5.76
-5.81
-5.92
-6
-6
-6.08
-6.11
-6.16
-6.16
-6.16
-6.21
-6.24
-6.21
-5.95
-4.96
-3.63
-2.08
-0.48
1.04
2.43
4
4.43
4.69
4.8
4.61
4.4
3.84
3.31
2.83
2.32
1.6
1.01
0.56
0.03
-0.51
-1.2
-1.81
-2.29
-2.72
-3.04
-3.31
-3.52
-3.81
-3.97
-4
-4.08
-4.08
-4.16
-4.19
-4.24
-4.32
-4.51
-4.61
-4.72
-4.83
-4.99
-5.12
-5.25
-5.41
-5.52
-5.63
-5.73
-5.84
-5.92
-5.97
-6
-6.11
-6.16
-6.16
-6.19
-6.24
-6.32
-6.32
-6.32
-6.32
-6.08
-5.55
-4
-2.24
-0.64
0.8
2.08
3.04
4.08
4.29
4.35
4.24
3.95
3.63
3.04
2.43
1.95
1.44
0.69
0.05
-0.48
-0.99
-1.47
-2
-2.48
-3.07
-3.44
-3.65
-3.81
-3.92
-4.03
-4.08
-4.08
-4.11
-4.16
-4.16
-4.19
-4.29
-4.4
-4.59
-4.69
-4.8
-4.99
-5.09
-5.2
-5.41
-5.57
-5.68
-5.71
-5.81
-5.84
-5.92
-5.97
-6
-6.08
-6.08
-6.16
-6.19
-6.24
-6.32
-6.32
-6.27
-6.08
-5.52
-3.81
-0.88
1.63
2.75
3.52
4.16
4.37
4.48
4.27
3.95
3.6
3.17
2.69
2
1.31
0.77
0.24
-0.59
-1.23
-1.68
-2.11
-2.53
-2.96
-3.33
-3.55
-3.68
-3.79
-3.84
-3.84
-3.92
-3.97
-4
-4.08
-4.13
-4.24
-4.35
-4.45
-4.56
-4.75
-4.91
-5.04
-5.15
-5.25
-5.36
-5.47
-5.52
-5.6
-5.63
-5.73
-5.76
-5.84
-5.89
-5.92
-6
-6
-6.08
-6.08
-6.03
-5.76
-5.33
-4.05
-2.16
-0.45
1.09
2.72
4.13
4.72
4.96
5.09
4.88
4.56
4.16
3.73
3.28
2.75
2.21
1.44
0.75
0.21
-0.32
-0.85
-1.33
-1.84
-2.45
-2.88
-3.2
-3.47
-3.57
-3.68
-3.76
-3.76
-3.84
-3.84
-3.89
-3.92
-4.03
-4.13
-4.32
-4.43
-4.53
-4.64
-4.85
-5.01
-5.12
-5.23
-5.33
-5.36
-5.47
-5.52
-5.52
-5.55
-5.65
-5.68
-5.76
-5.81
-5.84
-5.95
-6
-6
-5.84
-5.47
-4.64
-3.55
-1.68
0.64
1.92
2.99
3.84
4.51
4.61
4.56
4.4
3.97
3.44
2.93
2.45
2
1.47
0.93
0.24
-0.45
-0.99
-1.52
-2.03
-2.56
-3.12
-3.41
-3.63
-3.76
-3.87
-3.92
-3.92
-3.92
-3.92
-3.92
-4
-4.05
-4.16
-4.29
-4.45
-4.64
-4.77
-4.93
-5.04
-5.23
-5.33
-5.44
-5.55
-5.65
-5.68
-5.71
-5.76
-5.84
-5.84
-5.89
-5.92
-6
-6
-6
-5.92
-5.55
-4.8
-3.71
-2.21
-0.64
0.96
2.4
4
4.53
4.85
4.8
4.72
4.45
4.08
3.63
2.99
2.32
1.81
1.33
0.8
0.27
-0.27
-0.96
-1.63
-2.05
-2.48
-2.91
-3.23
-3.44
-3.52
-3.57
-3.68
-3.68
-3.68
-3.76
-3.79
-3.84
-3.92
-4.11
-4.21
-4.32
-4.53
-4.75
-4.96
-5.07
-5.17
-5.36
-5.55
-5.65
-5.76
-5.84
-5.89
-5.92
-5.95
-6
-6
-6.03
-6.08
-6.08
-6.05
-5.84
-5.52
-4.43
-2.61
-0.96
0.67
2.11
3.2
4.29
5.15
5.68
5.39
5.01
4.32
3.71
3.17
2.64
2.11
1.57
1.04
0.21
-0.43
-0.96
-1.47
-1.89
-2.4
-2.85
-3.07
-3.28
-3.39
-3.49
-3.52
-3.52
-3.57
-3.68
-3.71
-3.76
-3.84
-3.97
-4.13
-4.24
-4.45
-4.61
-4.72
-4.93
-5.09
-5.2
-5.31
-5.41
-5.52
-5.6
-5.65
-5.68
-5.76
-5.81
-5.84
-5.87
-5.92
-5.92
-5.89
-5.52
-4.8
-3.63
-2.24
-0.64
0.96
2.88
3.84
4.48
4.8
4.88
4.91
4.53
4.08
3.57
3.09
2.4
1.79
1.31
0.8
0.35
-0.19
-0.72
-1.17
-1.76
-2.4
-2.8
-3.07
-3.36
-3.55
-3.65
-3.76
-3.76
-3.76
-3.84
-3.84
-3.89
-4
-4.11
-4.21
-4.4
-4.51
-4.61
-4.8
-4.99
-5.09
-5.2
-5.33
-5.49
-5.6
-5.63
-5.68
-5.76
-5.84
-5.84
-5.84
-5.92
-5.97
-6
-5.97
-5.81
-5.36
-4.56
-2.8
-0.56
0.93
2.21
3.36
4
4.69
4.88
4.8
4.53
4.16
3.79
3.15
2.48
1.97
1.49
0.8
0.19
-0.35
-0.88
-1.33
-1.92
-2.56
-2.88
-3.15
-3.36
-3.55
-3.65
-3.76
-3.79
-3.84
-3.84
-3.92
-3.97
-4
-4.11
-4.21
-4.4
-4.61
-4.77
-4.88
-5.01
-5.17
-5.36
-5.55
-5.65
-5.76
-5.87
-5.92
-6
-6.03
-6.08
-6.16
-6.24
-6.29
-6.32
-6.32
-6.27
-6.08
-5.2
-3.55
-1.92
-0.29
1.31
3.12
3.76
4.19
4.4
4.24
3.97
3.6
3.23
2.75
2.24
1.79
1.15
0.4
-0.11
-0.59
-1.12
-1.65
-2.13
-2.72
-3.2
-3.52
-3.84
-3.95
-4.05
-4.08
-4.08
-4.13
-4.16
-4.19
-4.24
-4.32
-4.43
-4.59
-4.72
-4.83
-4.99
-5.2
-5.39
-5.49
-5.6
-5.71
-5.76
-5.84
-5.95
-6
-6
-6.11
-6.16
-6.16
-6.19
-6.24
-6.24
-6.32
-6.32
-6.24
-6
-5.41
-4.48
-2.85
-0.45
1.12
2.4
3.36
4.32
4.43
4.43
4.32
3.84
3.25
2.56
1.92
1.33
0.8
0.27
-0.43
-1.28
-1.79
-2.21
-2.8
-3.25
-3.47
-3.68
-3.79
-3.84
-3.84
-3.84
-3.84
-3.84
-3.84
-3.89
-4
-4.13
-4.29
-4.4
-4.61
-4.83
-4.96
-5.15
-5.25
-5.44
-5.55
-5.65
-5.76
-5.79
-5.89
-5.92
-6
-6.05
-6.08
-6.16
-6.16
-6.24
-6.27
-6.32
-6.24
-5.71
-4.85
-3.68
-1.97
-0.32
1.36
2.67
4.11
4.72
5.04
4.93
4.72
4.32
3.89
3.44
2.91
2.37
1.6
0.91
0.43
-0.16
-0.69
-1.23
-1.76
-2.37
-2.8
-3.2
-3.47
-3.57
-3.68
-3.71
-3.76
-3.76
-3.76
-3.81
-3.84
-3.92
-3.97
-4.16
-4.37
-4.53
-4.64
-4.85
-5.07
-5.2
-5.31
-5.41
-5.6
-5.71
-5.76
-5.84
-5.87
-5.92
-6
-6
-6
-6
-6.08
-6.08
-6.08
-5.95
-5.68
-5.04
-3.2
-1.39
0.32
1.73
2.96
4
4.51
4.99
5.04
4.88
4.4
3.76
3.25
2.77
2.24
1.65
0.91
0.32
-0.24
-0.83
-1.36
-1.81
-2.4
-2.96
-3.25
-3.47
-3.68
-3.79
-3.84
-3.84
-3.76
-3.76
-3.68
-3.76
-3.81
-3.84
-3.95
-4.05
-4.24
-4.45
-4.61
-4.8
-4.99
-5.15
-5.28
-5.39
-5.49
-5.6
-5.63
-5.68
-5.76
-5.79
-5.84
-5.92
-6
-6
-6
-6.05
-5.95
-5.68
-5.12
-4.16
-2.8
-0.35
1.52
2.88
3.73
4.37
4.88
4.85
4.75
4.48
4.13
3.55
2.88
2.35
1.81
1.36
0.77
0.03
-0.64
-1.17
-1.65
-2.16
-2.59
-3.01
-3.44
-3.63
-3.73
-3.76
-3.76
-3.76
-3.76
-3.79
-3.89
-4
-4.11
-4.21
-4.32
-4.51
-4.67
-4.88
-5.07
-5.17
-5.36
-5.55
-5.65
-5.68
-5.76
-5.81
-5.92
-5.92
-5.92
-6
-6.03
-6.08
-6.08
-6.16
-6.21
-6.24
-6.13
-5.71
-4.88
-3.79
-2.24
-0.56
1.6
3.15
4.08
4.61
4.88
4.96
4.69
4.27
3.84
3.39
2.75
2.08
1.57
1.09
0.64
-0.29
-0.99
-1.68
-2.27
-2.64
-2.96
-3.17
-3.39
-3.6
-3.68
-3.73
-3.76
-3.79
-3.84
-3.92
-3.95
-4.05
-4.16
-4.35
-4.45
-4.56
-4.75
-4.85
-5.04
-5.15
-5.25
-5.36
-5.47
-5.57
-5.6
-5.68
-5.73
-5.84
-5.87
-5.92
-5.92
-5.95
-6
-6.08
-6.05
-5.84
-5.44
-4.21
-2.19
-0.48
1.12
2.45
3.44
4.4
4.93
5.04
4.85
4.59
4.24
3.73
3.04
2.48
1.95
1.31
0.64
0.13
-0.35
-0.88
-1.39
-1.87
-2.48
-2.96
-3.23
-3.44
-3.63
-3.73
-3.76
-3.84
-3.84
-3.84
-3.87
-3.92
-4
-4.05
-4.27
-4.4
-4.59
-4.69
-4.8
-4.99
-5.09
-5.28
-5.39
-5.49
-5.6
-5.68
-5.73
-5.84
-5.92
-5.92
-6
-6.03
-6.08
-6.08
-6.11
-6.16
-6.08
-5.55
-4.69
-3.52
-1.89
-0.24
1.6
3.31
4.11
4.56
4.88
4.93
4.8
4.29
3.81
3.36
2.77
2.08
1.52
1.07
0.59
0.08
-0.64
-1.23
-1.68
-2.19
-2.56
-3.04
-3.41
-3.57
-3.68
-3.79
-3.89
-3.92
-3.92
-3.97
-4
-4.11
-4.21
-4.4
-4.51
-4.61
-4.8
-5.01
-5.23
-5.36
-5.47
-5.57
-5.68
-5.79
-5.84
-5.92
-6
-6.05
-6.08
-6.16
-6.16
-6.24
-6.27
-6.32
-6.32
-6.27
-6
-5.28
-3.36
-1.6
0.08
1.47
2.64
3.6
4.43
4.59
4.48
4.32
3.89
3.36
2.85
2.37
1.84
1.25
0.56
0
-0.45
-0.99
-1.52
-2.16
-2.69
-3.04
-3.33
-3.55
-3.76
-3.95
-4
-4.08
-4.08
-4.13
-4.16
-4.16
-4.21
-4.32
-4.45
-4.61
-4.8
-4.93
-5.09
-5.2
-5.41
-5.57
-5.68
-5.79
-5.89
-6
-6.11
-6.16
-6.24
-6.27
-6.37
-6.4
-6.48
-6.53
-6.56
-6.64
-6.64
-6.4
-5.95
-5.09
-3.84
-1.47
0.45
1.84
2.8
3.55
3.92
4.19
4.03
3.76
3.41
2.83
2.08
1.55
1.01
0.48
-0.13
-0.93
-1.52
-1.97
-2.51
-3.2
-3.73
-4.05
-4.16
-4.16
-4.16
-4.16
-4.16
-4.16
-4.16
-4.19
-4.29
-4.32
-4.43
-4.53
-4.64
-4.77
-4.99
-5.12
-5.23
-5.33
-5.44
-5.63
-5.73
-5.76
-5.84
-5.89
-6
-6
-6
-6.08
-6.08
-6.13
-6.16
-6.24
-6.19
-6.08
-5.52
-4.24
-2.72
-1.12
0.53
1.92
3.44
4.4
4.8
4.83
4.77
4.32
3.79
3.31
2.8
2.27
1.57
0.8
0.27
-0.27
-0.8
-1.33
-1.87
-2.48
-3.04
-3.36
-3.6
-3.89
-4.05
-4.08
-4.08
-4.08
-4.08
-4.08
-4.08
-4.16
-4.19
-4.29
-4.4
-4.59
-4.69
-4.8
-4.93
-5.15
-5.28
-5.39
-5.44
-5.52
-5.63
-5.68
-5.68
-5.76
-5.81
-5.84
-5.87
-5.92
-5.92
-5.92
-5.97
-6
-5.79
-5.36
-4.64
-3.09
-0.69
1.12
2.59
3.71
4.48
5.04
5.31
5.2
4.88
4.51
3.84
3.23
2.69
2.16
1.63
0.93
0.16
-0.37
-0.91
-1.44
-2
-2.59
-2.96
-3.25
-3.47
-3.6
-3.79
-3.84
-3.84
-3.84
-3.84
-3.84
-3.87
-3.92
-4
-4.11
-4.27
-4.48
-4.59
-4.75
-4.88
-5.09
-5.31
-5.44
-5.55
-5.6
-5.68
-5.79
-5.89
-5.92
-6
-6
-6.08
-6.11
-6.16
-6.16
-6.13
-5.87
-5.36
-4.29
-2.96
-1.36
0.37
2.51
3.68
4.43
4.91
5.04
4.85
4.59
4.24
3.81
3.33
2.56
1.87
1.39
0.88
0.35
-0.35
-1.12
-1.63
-2.05
-2.48
-2.91
-3.33
-3.6
-3.71
-3.76
-3.84
-3.84
-3.84
-3.84
-3.84
-3.89
-4
-4.11
-4.21
-4.32
-4.45
-4.67
-4.8
-4.99
-5.09
-5.2
-5.33
-5.49
-5.6
-5.63
-5.68
-5.76
-5.84
-5.89
-5.92
-5.92
-5.97
-6
-6
-6
-5.84
-5.41
-4.13
-2.32
-0.61
0.93
2.4
3.39
4.51
4.88
4.99
4.83
4.56
4.03
3.49
3.04
2.53
2.05
1.36
0.75
0.21
-0.32
-0.85
-1.33
-1.84
-2.45
-2.88
-3.2
-3.44
-3.76
-3.92
-3.92
-3.92
-3.92
-3.92
-3.97
-4.08
-4.19
-4.29
-4.48
-4.67
-4.77
-4.96
-5.07
-5.23
-5.44
-5.55
-5.65
-5.68
-5.79
-5.84
-5.92
-5.92
-5.92
-6
-6
-6.05
-6.08
-6.08
-6.08
-5.84
-5.39
-4.48
-3.12
-1.52
0.4
2.64
3.6
4.35
4.88
4.93
4.88
4.56
4.21
3.79
3.28
2.56
1.97
1.52
1.01
0.53
-0.24
-0.93
-1.41
-1.92
-2.32
-2.75
-3.2
-3.39
-3.55
-3.68
-3.76
-3.76
-3.76
-3.79
-3.84
-3.92
-4.03
-4.13
-4.24
-4.43
-4.53
-4.72
-4.93
-5.09
-5.2
-5.31
-5.47
-5.6
-5.68
-5.73
-5.84
-5.92
-5.92
-6
-6.03
-6.08
-6.16
-6.16
-6.16
-6.16
-6.03
-5.6
-4.16
-2.4
-0.75
0.8
2.19
3.31
4.56
4.77
4.83
4.8
4.4
3.81
3.28
2.83
2.35
1.84
1.2
0.61
0.16
-0.35
-0.83
-1.28
-1.84
-2.43
-2.8
-3.09
-3.36
-3.6
-3.68
-3.73
-3.76
-3.76
-3.76
-3.84
-3.87
-3.92
-4
-4.19
-4.35
-4.48
-4.69
-4.91
-5.12
-5.33
-5.49
-5.6
-5.71
-5.81
-5.92
-6
-6.05
-6.08
-6.16
-6.16
-6.24
-6.27
-6.32
-6.32
-6.08
-5.55
-4.8
-3.39
-1.84
0.24
2.24
3.25
3.92
4.43
4.48
4.48
4.16
3.79
3.44
2.85
2.16
1.6
1.15
0.67
0.16
-0.56
-1.15
-1.68
-2.11
-2.53
-3.04
-3.49
-3.71
-3.84
-3.95
-4.05
-4.08
-4.08
-4.13
-4.16
-4.27
-4.32
-4.4
-4.51
-4.61
-4.8
-4.99
-5.15
-5.28
-5.47
-5.57
-5.76
-5.87
-5.92
-6
-6.08
-6.13
-6.16
-6.24
-6.24
-6.24
-6.27
-6.32
-6.32
-6.29
-6.19
-5.84
-4.53
-3.04
-1.44
0.08
1.47
2.8
3.92
4.24
4.32
4.24
3.81
3.36
2.85
2.37
1.84
1.25
0.51
-0.08
-0.61
-1.15
-1.76
-2.27
-2.8
-3.36
-3.65
-3.87
-4.08
-4.16
-4.16
-4.16
-4.16
-4.16
-4.16
-4.37
-4.53
-4.64
-4.77
-4.93
-5.04
-5.17
-5.33
-5.44
-5.63
-5.73
-5.84
-5.92
-5.97
-6.08
-6.11
-6.16
-6.16
-6.19
-6.29
-6.32
-6.4
-6.4
-6.4
-6.43
-6.21
-5.68
-4.77
-3.39
-1.76
0.59
2.29
3.36
4
4.43
4.48
4.4
4.08
3.68
3.23
2.59
1.84
1.23
0.69
0.16
-0.45
-1.25
-1.84
-2.35
-2.77
-3.2
-3.6
-3.87
-4
-4.08
-4.08
-4.08
-4.08
-4.08
-4.08
-4.08
-4.13
-4.24
-4.32
-4.37
-4.48
-4.69
-4.85
-5.04
-5.15
-5.25
-5.44
-5.63
-5.73
-5.84
-5.95
-6.05
-6.16
-6.19
-6.24
-6.32
-6.32
-6.37
-6.4
-6.4
-6.4
-6.4
-6
-4.99
-3.6
-1.97
-0.27
1.28
3.01
4.19
4.72
4.93
4.93
4.56
4.21
3.79
3.28
2.83
2.19
1.44
0.93
0.45
-0.08
-0.67
-1.41
-1.92
-2.35
-2.72
-3.04
-3.36
-3.57
-3.68
-3.76
-3.76
-3.76
-3.76
-3.76
-3.76
-3.79
-3.89
-4
-4.11
-4.21
-4.32
-4.45
-4.67
-4.8
-4.91
-5.01
-5.12
-5.31
-5.41
-5.44
-5.52
-5.57
-5.68
-5.79
-5.89
-6
-6.03
-6.13
-6.16
-6.24
-6.19
-6.08
-5.39
-3.89
-2.24
-0.56
1.09
2.4
3.81
4.72
5.12
5.12
5.01
4.56
4.13
3.71
3.2
2.67
1.97
1.12
0.59
0.05
-0.48
-1.09
-1.63
-2.24
-2.8
-3.12
-3.44
-3.73
-3.89
-4
-4
-4
-4
-4.03
-4.08
-4.16
-4.19
-4.29
-4.4
-4.51
-4.67
-4.8
-5.01
-5.17
-5.28
-5.39
-5.44
-5.52
-5.63
-5.73
-5.76
-5.84
-5.89
-5.92
-5.95
-6
-6.08
-6.11
-6.21
-6.24
-6.24
-6.24
-6.24
-5.81
-4.75
-3.36
-1.81
-0.11
1.36
2.99
4.11
4.64
4.77
4.83
4.48
4.13
3.71
3.2
2.75
2.11
1.44
0.93
0.45
0
-0.59
-1.33
-1.84
-2.27
-2.69
-3.04
-3.36
-3.63
-3.76
-3.84
-3.84
-3.92
-3.92
-3.92
-4.16
-4.37
-4.59
-4.72
-4.91
-5.07
-5.2
-5.41
-5.63
-5.76
-5.87
-5.97
-6.08
-6.16
-6.21
-6.32
-6.32
-6.37
-6.48
-6.48
-6.48
-6.56
-6.59
-6.64
-6.64
-6.72
-6.72
-6.64
-6.29
-5.49
-4.32
-2.91
-1.36
-0.08
1.44
2.51
3.04
3.25
3.36
3.2
2.96
2.64
2.24
1.89
1.36
0.72
0.29
-0.13
-0.56
-1.07
-1.76
-2.24
-2.59
-2.96
-3.28
-3.6
-3.81
-3.92
-4
-4.05
-4.16
-4.19
-4.24
-4.32
-4.35
-4.51
-4.64
-4.83
-4.93
-5.04
-5.17
-5.33
-5.44
-5.55
-5.65
-5.76
-5.87
-5.97
-6
-6.08
-6.13
-6.24
-6.35
-6.4
-6.48
-6.51
-6.61
-6.64
-6.72
-6.77
-6.88
-6.85
-6.69
-6.24
-5.47
-4.29
-3.04
-1.31
-0.03
0.8
1.23
1.49
1.6
1.65
1.55
1.28
1.04
0.67
0.24
-0.05
-0.32
-0.64
-1.01
-1.49
-1.92
-2.27
-2.64
-2.96
-3.36
-3.63
-3.76
-3.95
-4.05
-4.16
-4.19
-4.24
-4.32
-4.35
-4.45
-4.48
-4.59
-4.69
-4.8
-5.01
-5.23
-5.36
-5.49
-5.65
-5.76
-5.87
-5.97
-6
-6.08
-6.08
-6.16
-6.16
-6.16
-6.24
-6.27
-6.37
-6.4
-6.48
-6.53
-6.56
-6.53
-6.43
-6
-5.25
-4.13
-2.88
-1.15
0.08
0.8
1.15
1.41
1.44
1.49
1.39
1.12
0.88
0.61
0.32
-0.19
-0.56
-0.88
-1.25
-1.79
-2.24
-2.56
-2.88
-3.2
-3.6
-3.87
-4
-4.19
-4.29
-4.4
-4.4
-4.4
-4.48
-4.51
-4.61
-4.64
-4.75
-4.85
-4.96
-5.09
-5.25
-5.36
-5.47
-5.57
-5.68
-5.87
-5.97
-6
-6.08
-6.13
-6.24
-6.27
-6.32
-6.4
-6.43
-6.53
-6.56
-6.64
-6.69
-6.72
-6.8
-6.75
-6.48
-5.95
-5.04
-3.76
-1.84
-0.45
0.4
0.93
1.25
1.28
1.31
1.15
0.88
0.64
0.21
-0.24
-0.64
-0.96
-1.28
-1.65
-2.19
-2.64
-2.96
-3.28
-3.6
-3.92
-4.13
-4.24
-4.35
-4.4
-4.48
-4.56
-4.56
-4.64
-4.67
-4.77
-4.88
-5.07
-5.23
-5.36
-5.49
-5.71
-5.84
-5.95
-6.05
-6.16
-6.27
-6.37
-6.4
-6.48
-6.53
-6.56
-6.59
-6.69
-6.8
-6.83
-6.93
-6.96
-7.04
-7.09
-7.12
-7.04
-6.72
-5.92
-4.85
-3.41
-2
-0.27
0.96
1.6
1.81
1.87
1.68
1.44
1.17
0.8
0.45
-0.03
-0.56
-0.96
-1.33
-1.68
-2.13
-2.67
-3.12
-3.44
-3.71
-4
-4.21
-4.37
-4.48
-4.56
-4.56
-4.56
-4.56
-4.56
-4.64
-4.67
-4.77
-4.88
-4.99
-5.15
-5.28
-5.41
-5.63
-5.76
-5.87
-5.97
-6.08
-6.19
-6.29
-6.4
-6.48
-6.53
-6.64
-6.67
-6.72
-6.8
-6.91
-7.01
-7.04
-7.12
-7.17
-7.2
-7.07
-6.53
-5.6
-4.4
-2.8
-1.36
0.45
1.63
2.24
2.45
2.51
2.24
2
1.68
1.28
0.93
0.4
-0.16
-0.56
-0.93
-1.28
-1.76
-2.35
-2.8
-3.12
-3.44
-3.76
-4.05
-4.21
-4.32
-4.4
-4.4
-4.4
-4.32
-4.32
-4.32
-4.35
-4.45
-4.48
-4.59
-4.75
-4.88
-5.01
-5.17
-5.36
-5.47
-5.57
-5.68
-5.79
-5.89
-6
-6.08
-6.13
-6.24
-6.35
-6.4
-6.48
-6.59
-6.64
-6.64
-6.75
-6.8
-6.8
-6.69
-6.21
-5.28
-4.03
-2.48
-1.04
0.77
1.95
2.56
2.77
2.83
2.64
2.4
2.08
1.68
1.33
0.8
0.24
-0.16
-0.53
-0.88
-1.36
-1.95
-2.4
-2.72
-3.04
-3.36
-3.68
-3.89
-4
-4.08
-4.08
-4.08
-4
-3.95
-4
-4.03
-4.13
-4.16
-4.24
-4.35
-4.48
-4.69
-4.85
-5.04
-5.15
-5.25
-5.36
-5.55
-5.65
-5.76
-5.84
-5.89
-6
-6.11
-6.16
-6.24
-6.27
-6.37
-6.4
-6.48
-6.53
-6.56
-6.21
-5.41
-4.16
-2.75
-1.2
0.16
1.68
2.69
3.2
3.33
3.39
3.12
2.8
2.48
2.16
1.81
1.33
0.88
0.48
0.11
-0.24
-0.69
-1.23
-1.68
-2
-2.32
-2.64
-2.96
-3.23
-3.36
-3.36
-3.36
-3.36
-3.36
-3.36
-3.44
-3.47
-3.63
-3.76
-3.95
-4.11
-4.24
-4.45
-4.61
-4.8
-4.91
-5.01
-5.12
-5.23
-5.33
-5.36
-5.47
-5.57
-5.68
-5.71
-5.76
-5.84
-5.87
-5.97
-6.08
-6.08
-5.92
-5.6
-4.45
-2.43
-0.8
0.72
2
2.96
3.84
4.37
4.56
4.45
4.29
3.92
3.49
3.12
2.8
2.45
1.97
1.52
1.12
0.75
0.32
-0.11
-0.53
-1.04
-1.41
-1.63
-1.84
-2.05
-2.21
-2.24
-2.24
-2.29
-2.32
-2.35
-2.45
-2.56
-2.67
-2.83
-3.04
-3.23
-3.39
-3.52
-3.73
-3.95
-4.08
-4.21
-4.37
-4.48
-4.67
-4.77
-4.88
-4.99
-5.09
-5.2
-5.31
-5.36
-5.44
-5.55
-5.6
-5.6
-5.39
-4.91
-4.08
-2.48
-0.19
1.36
2.64
3.6
4.32
4.88
5.2
5.2
4.99
4.72
4.32
3.89
3.52
3.12
2.77
2.29
1.84
1.41
0.99
0.56
0.16
-0.21
-0.72
-1.09
-1.31
-1.52
-1.71
-1.81
-1.84
-1.92
-1.97
-2.08
-2.11
-2.21
-2.4
-2.53
-2.8
-3.04
-3.25
-3.47
-3.6
-3.84
-4.16
-4.4
-4.53
-4.69
-4.8
-4.99
-5.09
-5.2
-5.28
-5.33
-5.44
-5.55
-5.6
-5.68
-5.76
-5.6
-5.28
-4.43
-3.31
-1.92
-0.29
1.73
2.88
3.73
4.27
4.56
4.59
4.53
4.32
4
3.63
3.12
2.61
2.24
1.84
1.49
0.96
0.32
-0.19
-0.61
-1.04
-1.47
-1.89
-2.16
-2.37
-2.53
-2.64
-2.75
-2.85
-2.88
-2.96
-3.01
-3.2
-3.33
-3.49
-3.68
-3.81
-3.97
-4.16
-4.37
-4.59
-4.72
-4.93
-5.09
-5.2
-5.31
-5.41
-5.52
-5.63
-5.73
-5.84
-5.92
-5.97
-6.08
-6.11
-6.16
-6.16
-6.11
-5.52
-4.56
-3.25
-1.87
-0.48
0.64
1.92
2.48
2.83
2.93
2.88
2.59
2.27
1.92
1.52
1.15
0.56
0.05
-0.32
-0.8
-1.23
-1.76
-2.32
-2.72
-3.04
-3.28
-3.49
-3.71
-3.84
-3.89
-4.05
-4.08
-4.16
-4.21
-4.24
-4.32
-4.37
-4.56
-4.69
-4.85
-4.96
-5.09
-5.31
-5.44
-5.55
-5.65
-5.68
-5.79
-5.89
-6
-6.03
-6.08
-6.16
-6.16
-6.21
-6.24
-6.32
-6.32
-6.08
-5.63
-4.72
-3.44
-2.05
-0.45
1.36
2.03
2.56
2.96
3.01
2.91
2.72
2.45
2.08
1.68
1.15
0.67
0.32
-0.11
-0.53
-1.12
-1.71
-2.13
-2.48
-2.8
-3.12
-3.36
-3.47
-3.57
-3.68
-3.68
-3.68
-3.76
-3.76
-3.76
-3.84
-3.95
-4.05
-4.16
-4.35
-4.45
-4.64
-4.77
-4.93
-5.04
-5.15
-5.31
-5.44
-5.55
-5.65
-5.68
-5.79
-5.89
-6
-6.03
-6.13
-6.24
-6.32
-6.27
-6.08
-5.52
-4.61
-2.72
-0.77
0.61
1.76
2.72
3.31
3.92
3.92
3.81
3.68
3.31
2.77
2.32
1.89
1.47
1.04
0.4
-0.19
-0.64
-1.07
-1.49
-2.08
-2.56
-2.83
-3.04
-3.23
-3.33
-3.44
-3.44
-3.49
-3.52
-3.63
-3.68
-3.76
-3.87
-3.97
-4.08
-4.29
-4.51
-4.64
-4.83
-4.99
-5.2
-5.31
-5.41
-5.52
-5.63
-5.73
-5.84
-5.95
-6.05
-6.08
-6.19
-6.29
-6.32
-6.32
-6.32
-6.16
-5.09
-3.87
-2.4
-0.8
0.64
2.16
3.57
4.16
4.4
4.53
4.32
4.08
3.68
3.31
2.96
2.48
1.84
1.36
0.91
0.43
0
-0.45
-0.93
-1.36
-1.89
-2.32
-2.64
-2.91
-3.01
-3.12
-3.15
-3.2
-3.2
-3.2
-3.25
-3.36
-3.47
-3.57
-3.76
-3.87
-3.97
-4.16
-4.37
-4.59
-4.72
-4.83
-4.99
-5.12
-5.23
-5.33
-5.44
-5.55
-5.65
-5.68
-5.76
-5.81
-5.92
-5.92
-5.87
-5.44
-4.77
-3.65
-2.16
0.11
1.87
3.12
3.89
4.53
4.8
5.01
4.91
4.64
4.29
3.76
3.2
2.77
2.35
1.92
1.33
0.64
0.08
-0.35
-0.77
-1.2
-1.73
-2.16
-2.4
-2.59
-2.69
-2.88
-2.96
-2.96
-3.04
-3.07
-3.17
-3.28
-3.39
-3.49
-3.6
-4
-4.21
-4.32
-4.53
-4.69
-4.8
-4.99
-5.09
-5.2
-5.31
-5.41
-5.52
-5.55
-5.65
-5.68
-5.71
-5.81
-5.92
-5.81
-5.55
-5.04
-3.71
-1.57
0.08
1.49
2.72
3.6
4.48
5.01
5.12
4.93
4.72
4.24
3.81
3.39
2.96
2.61
2.03
1.36
0.85
0.37
-0.08
-0.59
-1.01
-1.52
-2
-2.27
-2.48
-2.69
-2.85
-2.88
-2.96
-3.01
-3.12
-3.15
-3.25
-3.36
-3.47
-3.63
-3.84
-4.03
-4.19
-4.32
-4.53
-4.75
-4.88
-4.99
-5.09
-5.2
-5.31
-5.41
-5.52
-5.6
-5.65
-5.76
-5.79
-5.89
-6
-6
-5.95
-5.76
-5.12
-4.16
-2.88
-1.12
1.17
2.64
3.71
4.45
4.88
5.09
5.09
4.88
4.56
4.19
3.6
3.01
2.59
2.16
1.71
1.12
0.48
-0.05
-0.59
-1.04
-1.49
-2.03
-2.4
-2.61
-2.77
-2.88
-2.99
-3.09
-3.12
-3.2
-3.25
-3.36
-3.47
-3.57
-3.76
-3.89
-4.11
-4.32
-4.51
-4.61
-4.72
-4.93
-5.09
-5.2
-5.31
-5.36
-5.44
-5.52
-5.57
-5.6
-5.6
-5.65
-5.76
-5.79
-5.84
-5.84
-5.71
-5.07
-4
-2.61
-1.12
0.48
1.84
3.49
4.32
4.85
5.07
5.04
4.72
4.35
3.92
3.49
3.01
2.4
1.79
1.31
0.8
0.35
-0.29
-1.04
-1.47
-1.89
-2.24
-2.59
-3.01
-3.28
-3.39
-3.44
-3.52
-3.6
-3.65
-3.68
-3.76
-3.81
-4
-4.13
-4.29
-4.48
-4.61
-4.83
-4.96
-5.15
-5.25
-5.36
-5.47
-5.57
-5.68
-5.79
-5.84
-5.92
-6
-6.05
-6.08
-6.16
-6.16
-6.24
-6.24
-6.19
-5.84
-5.28
-3.79
-1.76
-0.27
1.07
2.24
2.99
3.79
4
4.03
3.87
3.6
2.99
2.51
2.08
1.65
1.17
0.48
-0.21
-0.69
-1.2
-1.65
-2.13
-2.56
-2.88
-3.2
-3.52
-3.71
-3.81
-3.84
-3.87
-3.92
-3.92
-4
-4.05
-4.08
-4.19
-4.29
-4.48
-4.61
-4.77
-4.88
-4.99
-5.15
-5.28
-5.68
-5.89
-5.92
-6
-6
-6.08
-6.11
-6.16
-6.16
-6.24
-6.29
-6.32
-6.32
-6.21
-5.6
-4.64
-3.36
-1.92
-0.37
1.17
2.88
3.44
3.87
4.16
4
3.73
3.36
2.99
2.51
2
1.28
0.69
0.24
-0.29
-0.83
-1.28
-1.79
-2.21
-2.72
-3.17
-3.44
-3.68
-3.79
-3.84
-3.84
-3.87
-3.92
-3.92
-3.95
-4
-4.08
-4.13
-4.29
-4.4
-4.59
-4.69
-4.88
-4.99
-5.09
-5.2
-5.31
-5.41
-5.52
-5.63
-5.73
-5.76
-5.84
-5.84
-5.92
-5.95
-6
-6.08
-6.08
-6.03
-5.92
-5.39
-4.53
-2.56
-0.51
0.99
2.24
3.31
4.05
4.88
4.88
4.77
4.56
4.08
3.49
2.96
2.51
2.03
1.52
0.67
-0.03
-0.56
-1.07
-1.49
-2.08
-2.59
-2.96
-3.2
-3.33
-3.49
-3.52
-3.6
-3.65
-3.68
-3.71
-3.76
-3.84
-3.87
-3.92
-4
-4.21
-4.37
-4.48
-4.59
-4.69
-4.88
-5.01
-5.17
-5.28
-5.39
-5.49
-5.52
-5.52
-5.57
-5.6
-5.71
-5.76
-5.84
-5.84
-5.84
-5.84
-5.41
-4.72
-3.76
-2.24
-0.64
1.28
3.09
4
4.56
4.99
4.99
4.88
4.48
4.11
3.76
3.17
2.48
1.92
1.47
0.93
0.4
-0.35
-0.99
-1.52
-1.95
-2.37
-2.8
-3.09
-3.31
-3.44
-3.44
-3.44
-3.44
-3.44
-3.49
-3.52
-3.55
-3.65
-3.76
-3.87
-3.97
-4.16
-4.37
-4.53
-4.64
-4.83
-4.93
-5.12
-5.23
-5.33
-5.44
-5.47
-5.57
-5.6
-5.68
-5.73
-5.76
-5.87
-5.92
-6
-6
-6
-5.92
-5.25
-4.24
-2.96
-1.33
0.27
2
3.6
4.29
4.72
4.96
4.8
4.56
4.24
3.87
3.44
2.88
2.24
1.76
1.31
0.83
0.32
-0.4
-0.99
-1.44
-1.84
-2.16
-2.56
-2.85
-3.01
-3.12
-3.23
-3.33
-3.36
-3.44
-3.49
-3.6
-3.73
-3.95
-4.08
-4.19
-4.29
-4.48
-4.67
-4.77
-4.88
-4.96
-5.01
-5.12
-5.23
-5.33
-5.6
-5.79
-5.84
-5.84
-5.84
-5.89
-6
-6.11
-6.16
-6.16
-6.13
-5.97
-5.44
-3.84
-2.24
-0.56
0.85
2.08
3.2
4.24
4.56
4.64
4.59
4.21
3.76
3.33
2.91
2.56
2.08
1.44
0.96
0.51
-0.03
-0.56
-0.99
-1.52
-2.08
-2.4
-2.72
-3.04
-3.31
-3.41
-3.52
-3.52
-3.57
-3.6
-3.68
-3.73
-3.84
-3.97
-4.13
-4.32
-4.45
-4.61
-4.72
-4.93
-5.09
-5.2
-5.28
-5.33
-5.44
-5.47
-5.52
-5.6
-5.63
-5.73
-5.76
-5.84
-5.89
-5.92
-6.03
-6.13
-6.24
-6.24
-6.19
-5.92
-4.72
-3.33
-1.76
-0.24
1.2
2.64
3.95
4.43
4.64
4.69
4.59
4.32
3.79
3.31
2.88
2.4
1.76
1.28
0.83
0.35
-0.16
-0.88
-1.41
-1.84
-2.24
-2.56
-2.8
-3.04
-3.31
-3.44
-3.55
-3.65
-3.68
-3.76
-3.81
-3.84
-3.97
-4.19
-4.4
-4.51
-4.61
-4.72
-4.85
-5.07
-5.2
-5.28
-5.33
-5.44
-5.55
-5.6
-5.68
-5.71
-5.81
-5.84
-5.92
-5.97
-6
-6.08
-6.13
-6.24
-6.24
-6.24
-6.16
-5.41
-4.4
-3.12
-1.52
-0.03
1.68
3.2
3.84
4.24
4.48
4.48
4.32
3.89
3.47
3.04
2.56
1.97
1.52
1.07
0.59
0.08
-0.64
-1.17
-1.6
-2.03
-2.45
-2.8
-3.12
-3.39
-3.52
-3.63
-3.73
-3.84
-3.95
-4.05
-4.08
-4.19
-4.29
-4.4
-4.53
-4.69
-4.8
-4.93
-5.15
-5.28
-5.36
-5.41
-5.52
-5.63
-5.68
-5.76
-5.87
-5.97
-6
-6.08
-6.13
-6.16
-6.24
-6.29
-6.4
-6.43
-6.48
-6.56
-6.43
-6.05
-5.44
-4.35
-3.01
-1.04
0.8
1.76
2.48
3.01
3.28
3.36
3.17
2.96
2.72
2.24
1.65
1.2
0.77
0.35
-0.08
-0.8
-1.33
-1.76
-2.19
-2.56
-2.88
-3.2
-3.52
-3.76
-3.87
-3.97
-4
-4.11
-4.21
-4.24
-4.35
-4.45
-4.56
-4.69
-4.85
-4.96
-5.07
-5.17
-5.28
-5.39
-5.6
-5.84
-5.95
-6
-6.08
-6.11
-6.16
-6.16
-6.24
-6.29
-6.32
-6.4
-6.45
-6.48
-6.51
-6.56
-6.64
-6.61
-6.35
-5.92
-4.96
-3.79
-1.84
0.11
1.17
2
2.64
3.01
3.12
3.04
2.88
2.64
2.27
1.73
1.28
0.85
0.48
0.08
-0.64
-1.23
-1.68
-2.08
-2.45
-2.8
-3.12
-3.44
-3.6
-3.71
-3.81
-3.92
-3.92
-3.97
-4
-4.11
-4.21
-4.32
-4.43
-4.53
-4.72
-4.83
-4.93
-5.04
-5.15
-5.25
-5.36
-5.47
-5.52
-5.6
-5.6
-5.65
-5.76
-5.84
-5.84
-5.84
-5.92
-5.97
-6.08
-6.11
-6.21
-6.24
-6.32
-6.21
-6
-5.44
-4.59
-2.72
-0.77
0.67
1.84
2.8
3.44
3.76
3.89
3.89
3.76
3.39
2.91
2.48
2.03
1.55
1.12
0.51
-0.03
-0.48
-0.91
-1.33
-1.76
-2.11
-2.53
-2.8
-3.01
-3.23
-3.36
-3.44
-3.49
-3.52
-3.63
-3.68
-3.76
-3.87
-3.97
-4.08
-4.19
-4.35
-4.48
-4.59
-4.69
-4.88
-4.99
-5.04
-5.12
-5.23
-5.33
-5.36
-5.44
-5.49
-5.52
-5.6
-5.65
-5.76
-5.79
-5.84
-5.92
-5.92
-5.87
-5.68
-5.01
-4
-2
0
1.33
2.4
3.25
3.84
4.16
4.29
4.29
4.08
3.71
3.23
2.8
2.37
2
1.6
0.96
0.37
-0.08
-0.51
-0.93
-1.36
-1.81
-2.29
-2.56
-2.75
-2.91
-3.04
-3.12
-3.17
-3.2
-3.31
-3.36
-3.44
-3.57
-3.73
-3.84
-3.97
-4.19
-4.32
-4.51
-4.61
-4.72
-4.83
-4.93
-5.04
-5.07
-5.17
-5.2
-5.28
-5.33
-5.36
-5.44
-5.49
-5.6
-5.71
-5.76
-5.84
-5.63
-5.2
-4.56
-3.36
-1.97
0
1.92
2.93
3.68
4.21
4.48
4.56
4.37
4.16
3.84
3.36
2.77
2.32
1.97
1.55
1.12
0.4
-0.19
-0.64
-1.07
-1.49
-1.84
-2.16
-2.48
-2.72
-2.83
-2.93
-2.96
-3.04
-3.09
-3.12
-3.25
-3.41
-3.52
-3.65
-3.81
-4
-4.27
-4.64
-4.96
-5.07
-5.17
-5.28
-5.39
-5.44
-5.52
-5.55
-5.65
-5.68
-5.76
-5.81
-5.84
-5.92
-5.97
-6
-5.84
-5.47
-4.64
-2.72
-1.07
0.4
1.49
2.45
3.2
3.76
3.81
3.76
3.6
3.33
3.04
2.51
2.03
1.6
1.15
0.61
0.08
-0.35
-0.77
-1.2
-1.63
-2.11
-2.56
-2.85
-3.07
-3.2
-3.31
-3.36
-3.44
-3.47
-3.57
-3.6
-3.71
-3.81
-3.92
-4.11
-4.27
-4.4
-4.64
-4.91
-5.04
-5.17
-5.39
-5.52
-5.63
-5.73
-5.84
-5.84
-5.84
-5.92
-6.03
-6.13
-6.24
-6.32
-6.32
-6.32
-6.11
-5.68
-4.4
-2.96
-1.63
-0.4
1.01
1.97
2.48
2.61
2.72
2.56
2.43
2.21
1.92
1.6
1.28
0.88
0.37
-0.05
-0.4
-0.8
-1.17
-1.6
-2.05
-2.59
-2.88
-3.17
-3.39
-3.52
-3.6
-3.65
-3.68
-3.68
-3.68
-3.76
-3.89
-4.11
-4.24
-4.43
-4.59
-4.72
-4.85
-5.07
-5.28
-5.47
-5.57
-5.68
-5.79
-5.89
-6
-6.11
-6.21
-6.32
-6.43
-6.48
-6.56
-6.56
-6.45
-6.24
-5.49
-4.53
-3.28
-2
-0.88
0.24
1.31
1.79
2
2.03
1.97
1.76
1.55
1.28
0.88
0.48
0.21
-0.08
-0.4
-0.72
-1.12
-1.65
-2.13
-2.48
-2.83
-3.2
-3.44
-3.55
-3.65
-3.76
-3.84
-3.89
-3.92
-3.92
-3.97
-4
-4.13
-4.29
-4.48
-4.61
-4.83
-5.04
-5.23
-5.39
-5.52
-5.73
-5.89
-6
-6.11
-6.21
-6.32
-6.43
-6.53
-6.56
-6.64
-6.69
-6.72
-6.64
-6.27
-5.52
-4.59
-3.09
-1.2
-0.24
0.51
1.12
1.36
1.52
1.44
1.36
1.09
0.8
0.4
0.08
-0.24
-0.56
-0.88
-1.36
-1.87
-2.29
-2.64
-2.96
-3.28
-3.52
-3.81
-3.97
-4
-4.08
-4.08
-4.08
-4.03
-4.08
-4.08
-4.19
-4.29
-4.32
-4.43
-4.59
-4.72
-4.85
-5.07
-5.28
-5.41
-5.63
-5.84
-5.95
-6.11
-6.24
-6.35
-6.45
-6.8
-7.07
-7.12
-7.2
-7.2
-6.99
-6.48
-5.49
-4.27
-2.48
-0.72
0.29
0.96
1.49
1.65
1.84
1.63
1.36
1.12
0.8
0.43
-0.08
-0.56
-0.88
-1.28
-1.89
-2.37
-2.8
-3.2
-3.52
-3.76
-3.97
-4.19
-4.32
-4.32
-4.32
-4.32
-4.29
-4.29
-4.32
-4.43
-4.48
-4.56
-4.59
-4.69
-4.88
-5.07
-5.17
-5.28
-5.47
-5.57
-5.68
-5.89
-6.05
-6.16
-6.27
-6.43
-6.56
-6.64
-6.69
-6.8
-6.91
-7.01
-7.04
-6.93
-6.51
-5.68
-4.51
-2.64
-0.32
0.85
1.81
2.56
3.12
3.12
2.96
2.8
2.37
1.92
1.49
1.07
0.72
0.32
-0.05
-0.64
-1.17
-1.65
-2.08
-2.43
-2.85
-3.28
-3.47
-3.57
-3.68
-3.68
-3.63
-3.6
-3.6
-3.6
-3.68
-3.79
-3.89
-3.92
-4.13
-4.29
-4.4
-4.53
-4.69
-4.88
-5.01
-5.17
-5.28
-5.47
-5.57
-5.68
-5.81
-5.97
-6.08
-6.19
-6.29
-6.4
-6.51
-6.56
-6.56
-6.29
-5.49
-4.32
-2.88
-1.23
0.24
1.6
2.61
3.76
4
4.11
3.84
3.57
3.2
2.8
2.45
1.92
1.36
0.96
0.59
0.24
-0.27
-0.69
-1.12
-1.57
-2.11
-2.48
-2.77
-2.93
-3.04
-3.04
-3.09
-3.12
-3.07
-3.12
-3.2
-3.23
-3.28
-3.36
-3.57
-3.73
-3.84
-4.08
-4.35
-4.56
-4.67
-4.77
-4.96
-5.15
-5.25
-5.36
-5.47
-5.57
-5.68
-5.79
-5.89
-6
-6.03
-6.13
-6.24
-6.13
-5.76
-5.12
-3.57
-1.23
0.4
1.79
2.91
3.68
4.24
4.45
4.64
4.43
4.11
3.6
3.09
2.67
2.24
1.89
1.36
0.8
0.29
-0.19
-0.64
-1.07
-1.49
-1.92
-2.29
-2.51
-2.64
-2.75
-2.8
-2.8
-2.88
-2.93
-3.04
-3.07
-3.17
-3.36
-3.47
-3.57
-3.76
-4.05
-4.27
-4.4
-4.61
-4.83
-4.96
-5.09
-5.25
-5.36
-5.57
-5.73
-5.84
-5.92
-5.97
-6.08
-6.19
-6.29
-6.4
-6.4
-6.24
-5.92
-5.04
-3.87
-2.4
0.4
2.21
2.96
3.63
3.73
3.6
3.44
3.01
2.56
2.13
1.71
1.2
0.69
0.32
-0.08
-0.45
-1.04
-1.68
-2.08
-2.4
-2.72
-3.01
-3.23
-3.36
-3.47
-3.52
-3.52
-3.52
-3.57
-3.6
-3.68
-3.79
-4
-4.13
-4.29
-4.48
-4.61
-4.77
-4.96
-5.17
-5.33
-5.44
-5.57
-5.73
-5.84
-5.95
-6
-6.08
-6.19
-6.29
-6.32
-6.4
-6.45
-6.56
-6.64
-6.64
-6.48
-6.05
-4.83
-3.04
-1.63
-0.29
0.88
1.65
2.51
2.8
2.93
2.83
2.64
2.4
1.97
1.44
1.12
0.8
0.32
-0.11
-0.48
-0.88
-1.23
-1.65
-2.08
-2.51
-2.88
-3.12
-3.31
-3.41
-3.44
-3.44
-3.44
-3.52
-3.52
-3.57
-3.6
-3.71
-3.87
-4.08
-4.21
-4.37
-4.56
-4.69
-4.85
-5.04
-5.25
-5.41
-5.52
-5.63
-5.73
-5.84
-5.87
-5.97
-6.08
-6.16
-6.21
-6.24
-6.32
-6.37
-6.4
-6.48
-6.43
-6.08
-5.41
-3.81
-1.68
-0.29
0.93
2
2.64
3.28
3.44
3.49
3.39
3.12
2.88
2.4
1.84
1.52
1.15
0.72
0.32
0
-0.4
-0.75
-1.17
-1.6
-2.03
-2.29
-2.4
-2.51
-2.61
-2.72
-2.83
-2.93
-2.96
-3.04
-3.09
-3.2
-3.39
-3.55
-3.84
-4.03
-4.13
-4.32
-4.43
-4.53
-4.64
-4.85
-5.07
-5.2
-5.31
-5.41
-5.52
-5.57
-5.73
-5.84
-5.95
-6.05
-6.08
-6.16
-6.16
-6.16
-6.03
-5.49
-4.56
-3.31
-1.55
0.56
1.63
2.48
3.12
3.41
3.63
3.6
3.44
3.17
2.88
2.53
2.05
1.52
1.2
0.83
0.24
-0.27
-0.69
-1.12
-1.55
-1.97
-2.4
-2.61
-2.83
-2.96
-3.04
-3.04
-3.04
-3.04
-3.04
-3.12
-3.23
-3.39
-3.52
-3.71
-3.81
-4.08
-4.29
-4.45
-4.64
-4.85
-5.01
-5.2
-5.39
-5.49
-5.52
-5.63
-5.73
-5.84
-5.87
-5.92
-6
-6.11
-6.21
-6.24
-6.32
-6.32
-6.32
-5.92
-4.96
-3.68
-2.19
-0.64
1.44
3.07
3.97
4.16
3.92
3.6
3.2
2.85
2.43
2
1.57
1.04
0.4
-0.11
-0.53
-1.12
-1.71
-2.08
-2.4
-2.61
-2.83
-3.04
-3.04
-3.04
-3.04
-3.04
-3.04
-3.12
-3.23
-3.28
-3.36
-3.57
-3.73
-3.84
-4.03
-4.19
-4.48
-4.67
-4.77
-4.96
-5.07
-5.17
-5.36
-5.47
-5.57
-5.68
-5.79
-5.89
-6
-6.11
-6.16
-6.24
-6.32
-6.32
-6.32
-5.97
-5.28
-4.32
-2.59
-0.13
1.44
2.61
3.52
4.08
4.51
4.67
4.56
4.19
3.71
3.2
2.77
2.35
1.92
1.47
0.83
0.16
-0.37
-0.91
-1.36
-1.81
-2.29
-2.56
-2.75
-2.85
-2.88
-2.96
-2.96
-2.96
-3.04
-3.04
-3.12
-3.23
-3.33
-3.52
-3.73
-3.95
-4.08
-4.19
-4.35
-4.48
-4.69
-4.91
-5.04
-5.15
-5.25
-5.36
-5.47
-5.57
-5.68
-5.79
-5.89
-6
-6
-6
-6.08
-6.16
-6
-5.6
-4.53
-3.2
-1.6
0.21
2.4
3.6
4.43
4.91
5.12
5.12
4.96
4.64
4.21
3.73
3.12
2.53
2.11
1.68
1.23
0.75
0.24
-0.51
-1.09
-1.52
-1.95
-2.37
-2.64
-2.77
-2.93
-3.04
-3.04
-3.04
-3.04
-3.12
-3.17
-3.28
-3.41
-3.57
-3.76
-3.89
-4.11
-4.24
-4.43
-4.59
-4.8
-5.01
-5.17
-5.28
-5.31
-5.36
-5.44
-5.55
-5.65
-5.68
-5.76
-5.81
-5.92
-5.92
-5.92
-5.92
-5.36
-4.51
-3.36
-1.76
-0.16
1.44
2.67
4.11
4.72
5.07
5.17
5.04
4.64
4.27
3.84
3.41
2.93
2.32
1.71
1.23
0.72
0.19
-0.45
-1.2
-1.63
-2
-2.32
-2.56
-2.83
-2.96
-2.99
-3.04
-3.04
-3.12
-3.17
-3.2
-3.28
-3.39
-3.6
-3.73
-3.89
-4.08
-4.21
-4.43
-4.64
-4.83
-4.93
-5.04
-5.17
-5.33
-5.44
-5.47
-5.57
-5.68
-5.76
-5.81
-5.84
-5.92
-5.97
-6
-5.97
-5.87
-5.44
-4.64
-2.88
-0.64
0.88
2.21
3.36
4.21
5.44
5.52
5.25
4.88
4.48
3.76
3.17
2.72
2.21
1.73
1.04
0.35
-0.13
-0.64
-1.07
-1.55
-2.08
-2.37
-2.59
-2.72
-2.83
-2.93
-3.04
-3.07
-3.12
-3.2
-3.31
-3.41
-3.52
-3.71
-3.87
-4.08
-4.29
-4.45
-4.64
-4.77
-4.99
-5.12
-5.23
-5.33
-5.44
-5.55
-5.65
-5.76
-5.79
-5.84
-5.92
-5.92
-5.97
-6
-5.97
-5.76
-4.8
-3.47
-1.97
-0.48
1.04
2.43
3.92
4.45
4.77
4.88
4.64
4.32
3.92
3.49
3.07
2.64
2
1.47
1.04
0.53
0.05
-0.64
-1.23
-1.6
-2
-2.32
-2.64
-2.88
-2.96
-3.01
-3.04
-3.07
-3.12
-3.2
-3.23
-3.28
-3.36
-3.55
-3.71
-3.84
-4.03
-4.19
-4.4
-4.61
-4.77
-4.96
-5.07
-5.23
-5.36
-5.55
-5.65
-5.68
-5.79
-5.89
-6
-6.03
-6.08
-6.16
-6.16
-6.05
-5.76
-4.91
-3.73
-2.24
-0.51
1.63
2.88
3.73
4.21
4.72
4.61
4.4
4.16
3.68
3.09
2.56
2.13
1.71
1.28
0.64
0.05
-0.4
-0.91
-1.39
-2
-2.48
-2.75
-2.96
-3.15
-3.25
-3.36
-3.36
-3.41
-3.44
-3.47
-3.52
-3.6
-3.71
-3.81
-4
-4.21
-4.43
-4.56
-4.77
-4.99
-5.2
-5.39
-5.49
-5.6
-5.71
-5.81
-5.92
-6
-6.05
-6.08
-6.19
-6.24
-6.24
-6.24
-6.19
-5.92
-4.64
-3.25
-1.76
-0.16
1.28
2.64
3.87
4.35
4.48
4.51
4.19
3.84
3.41
2.99
2.56
2.05
1.36
0.88
0.43
-0.05
-0.56
-1.28
-1.81
-2.24
-2.56
-2.88
-3.2
-3.39
-3.49
-3.52
-3.55
-3.65
-3.68
-3.76
-3.81
-3.84
-3.97
-4.19
-4.4
-4.53
-4.69
-4.88
-5.09
-5.31
-5.44
-5.55
-5.65
-5.84
-5.95
-6
-6.08
-6.11
-6.21
-6.24
-6.32
-6.32
-6.32
-6.4
-6.4
-6.24
-5.89
-5.15
-3.92
-1.65
0.16
1.52
2.48
3.23
3.68
3.97
3.87
3.6
3.33
2.75
2.08
1.36
0.77
0.24
-0.35
-1.09
-1.68
-2.11
-2.53
-2.88
-3.2
-3.41
-3.52
-3.63
-3.68
-3.68
-3.71
-3.76
-3.84
-3.87
-3.97
-4.08
-4.19
-4.29
-4.4
-4.61
-4.77
-4.96
-5.09
-5.25
-5.36
-5.55
-5.65
-5.68
-5.79
-5.89
-6
-6.11
-6.16
-6.24
-6.24
-6.29
-6.32
-6.32
-6.21
-6
-4.99
-3.17
-1.52
0.11
1.55
2.64
3.73
4.37
4.56
4.45
4.24
3.68
3.15
2.67
2.16
1.71
1.01
0.24
-0.29
-0.83
-1.36
-1.87
-2.29
-2.8
-3.25
-3.47
-3.6
-3.71
-3.76
-3.76
-3.76
-3.76
-3.76
-3.79
-3.84
-3.92
-4.03
-4.19
-4.32
-4.51
-4.67
-4.8
-5.01
-5.17
-5.28
-5.39
-5.49
-5.6
-5.68
-5.73
-5.76
-5.84
-5.89
-6
-6.03
-6.08
-6.16
-6.19
-6.19
-6.08
-5.52
-4.61
-3.36
-1.47
1.04
2.56
3.71
4.45
4.88
4.99
4.88
4.64
4.21
3.79
3.12
2.43
1.95
1.44
0.91
0.27
-0.48
-1.01
-1.55
-2
-2.43
-2.85
-3.12
-3.31
-3.41
-3.52
-3.52
-3.52
-3.52
-3.52
-3.57
-3.68
-3.79
-3.84
-4
-4.11
-4.27
-4.48
-4.67
-4.83
-4.96
-5.09
-5.31
-5.44
-5.47
-5.57
-5.68
-5.76
-5.81
-5.84
-5.92
-5.97
-6.08
-6.11
-6.16
-6.16
-6
-5.63
-4.8
-2.75
-0.88
0.8
2.16
3.76
4.48
4.88
4.93
4.8
4.4
3.97
3.52
3.01
2.53
1.84
1.23
0.75
0.24
-0.29
-0.93
-1.6
-2.03
-2.4
-2.72
-2.96
-3.23
-3.36
-3.39
-3.44
-3.44
-3.52
-3.57
-3.6
-3.68
-3.73
-3.92
-4.13
-4.29
-4.48
-4.59
-4.75
-4.88
-5.07
-5.17
-5.28
-5.39
-5.49
-5.6
-5.71
-5.76
-5.84
-5.95
-6.05
-6.08
-6.16
-6.16
-6.24
-6.21
-6.11
-5.76
-5.07
-3.36
-1.04
0.56
1.95
3.2
3.95
4.69
4.88
4.91
4.69
4.32
3.68
3.09
2.56
2.13
1.65
1.04
0.43
-0.11
-0.64
-1.25
-2.05
-2.72
-2.93
-3.15
-3.28
-3.39
-3.44
-3.44
-3.47
-3.52
-3.6
-3.71
-3.81
-3.84
-3.95
-4.11
-4.32
-4.53
-4.69
-4.8
-4.91
-5.07
-5.2
-5.31
-5.41
-5.52
-5.63
-5.68
-5.76
-5.87
-5.92
-6
-6.08
-6.13
-6.16
-6.16
-6.11
-5.52
-4.53
-3.15
-1.6
0.05
1.71
3.52
4.16
4.59
4.88
4.72
4.45
4.08
3.65
3.23
2.8
2.08
1.55
1.12
0.59
0.11
-0.56
-1.15
-1.57
-2
-2.32
-2.69
-3.12
-3.23
-3.33
-3.36
-3.44
-3.44
-3.52
-3.63
-3.68
-3.76
-3.87
-3.97
-4.08
-4.29
-4.51
-4.72
-4.83
-4.93
-5.04
-5.15
-5.31
-5.44
-5.55
-5.65
-5.68
-5.79
-5.84
-5.92
-6.03
-6.08
-6.16
-6.16
-6.16
-6.08
-5.73
-5.09
-3.36
-1.44
0.21
1.6
2.85
3.76
4.72
4.83
4.77
4.64
4.19
3.65
3.12
2.67
2.19
1.76
1.12
0.53
0.08
-0.43
-0.85
-1.28
-1.76
-2.35
-2.72
-2.93
-3.15
-3.36
-3.44
-3.49
-3.52
-3.55
-3.65
-3.76
-3.79
-3.89
-4.08
-4.29
-4.51
-4.64
-4.83
-4.99
-5.12
-5.25
-5.41
-5.52
-5.63
-5.73
-5.76
-5.76
-5.81
-5.84
-5.95
-6
-6.08
-6.11
-6.16
-6.16
-6.03
-5.6
-4.96
-3.65
-2.16
0
2.03
3.09
3.84
4.45
4.56
4.64
4.35
4.03
3.6
3.09
2.4
1.92
1.49
1.07
0.56
-0.16
-0.75
-1.2
-1.63
-2.05
-2.56
-3.01
-3.23
-3.36
-3.47
-3.57
-3.6
-3.6
-3.65
-3.68
-3.79
-3.89
-4
-4.11
-4.21
-4.4
-4.69
-4.91
-5.04
-5.23
-5.39
-5.6
-5.71
-5.81
-5.92
-5.95
-6
-6
-6.08
-6.13
-6.16
-6.27
-6.32
-6.4
-6.4
-6.35
-6.08
-4.88
-3.49
-1.92
-0.43
0.91
2.24
3.39
3.81
3.92
3.95
3.57
3.12
2.69
2.21
1.76
1.25
0.56
0
-0.45
-0.99
-1.52
-2.16
-2.69
-3.04
-3.33
-3.55
-3.84
-4
-4
-4
-3.92
-3.97
-4
-4.08
-4.13
-4.24
-4.37
-4.53
-4.72
-4.85
-5.01
-5.2
-5.39
-5.49
-5.6
-5.71
-5.81
-5.92
-5.95
-6
-6.08
-6.11
-6.16
-6.16
-6.24
-6.24
-6.24
-6.32
-6.32
-6.32
-6.13
-5.71
-4.8
-2.67
-0.8
0.8
2.08
3.15
3.92
4.56
4.61
4.48
4.21
3.68
3.12
2.61
2.13
1.6
1.01
0.27
-0.32
-0.85
-1.39
-1.84
-2.27
-2.69
-3.12
-3.31
-3.41
-3.52
-3.52
-3.52
-3.52
-3.52
-3.57
-3.6
-3.71
-3.81
-3.92
-4.13
-4.29
-4.48
-4.61
-4.77
-4.88
-5.09
-5.25
-5.36
-5.44
-5.49
-5.6
-5.63
-5.68
-5.76
-5.79
-5.89
-5.92
-6
-6.05
-6.08
-6
-5.68
-4.96
-3.89
-2.45
-0.96
1.07
2.51
3.36
3.79
4.05
4
3.84
3.52
3.12
2.77
2.24
1.6
1.09
0.61
0.16
-0.43
-1.12
-1.68
-2.11
-2.48
-2.8
-3.12
-3.33
-3.44
-3.52
-3.57
-3.68
-3.71
-3.76
-3.84
-3.87
-4.03
-4.24
-4.43
-4.59
-4.72
-4.85
-5.07
-5.28
-5.41
-5.57
-5.68
-5.79
-5.89
-6
-6.08
-6.13
-6.24
-6.35
-6.4
-6.48
-6.48
-6.48
-6.4
-5.95
-5.25
-4.32
-3.01
-1.25
-0.16
0.61
1.15
1.44
1.57
1.63
1.52
1.31
1.04
0.64
0.32
0.05
-0.24
-0.59
-1.07
-1.6
-1.92
-2.24
-2.56
-2.88
-3.2
-3.44
-3.55
-3.6
-3.68
-3.76
-3.81
-3.84
-3.92
-3.97
-4.16
-4.29
-4.45
-4.56
-4.69
-4.85
-5.04
-5.25
-5.41
-5.52
-5.71
-5.81
-5.92
-6.03
-6.08
-6.16
-6.27
-6.37
-6.4
-6.48
-6.48
-6.4
-6.21
-5.73
-4.96
-3.97
-2.69
-1.2
-0.53
0
0.4
0.51
0.61
0.48
0.35
0.19
0
-0.29
-0.51
-0.72
-1.01
-1.28
-1.68
-2.08
-2.35
-2.64
-2.85
-3.12
-3.36
-3.47
-3.57
-3.68
-3.76
-3.76
-3.76
-3.79
-3.84
-3.92
-4.11
-4.32
-4.64
-4.75
-4.85
-5.04
-5.17
-5.33
-5.52
-5.63
-5.79
-5.92
-6.11
-6.21
-6.32
-6.43
-6.53
-6.64
-6.64
-6.64
-6.4
-5.41
-4.35
-3.2
-2.21
-1.31
-0.48
0.27
0.43
0.48
0.45
0.29
0.16
-0.05
-0.27
-0.48
-0.72
-0.99
-1.2
-1.44
-1.76
-2.08
-2.59
-2.96
-3.2
-3.41
-3.57
-3.76
-3.84
-3.84
-3.92
-3.92
-3.97
-4
-4.11
-4.21
-4.32
-4.53
-4.69
-4.88
-5.01
-5.17
-5.36
-5.55
-5.71
-5.84
-5.95
-6.05
-6.24
-6.35
-6.45
-6.64
-6.75
-6.91
-7.04
-7.04
-6.83
-6.4
-5.36
-3.71
-2.48
-1.39
-0.53
0
0.43
0.64
0.64
0.45
0.29
0
-0.29
-0.45
-0.64
-0.77
-1.09
-1.52
-1.84
-2.21
-2.56
-2.88
-3.2
-3.52
-3.71
-3.81
-3.92
-3.92
-3.97
-4
-4.08
-4.13
-4.24
-4.37
-4.59
-4.8
-4.93
-5.15
-5.36
-5.55
-5.71
-5.84
-5.97
-6.13
-6.24
-6.35
-6.45
-6.56
-6.77
-6.99
-7.12
-7.23
-7.39
-7.52
-7.55
-7.33
-6.64
-5.68
-4.08
-2.08
-1.01
-0.16
0.48
0.67
0.83
0.8
0.67
0.45
0.16
-0.16
-0.43
-0.64
-0.85
-1.12
-1.52
-1.95
-2.37
-2.8
-3.12
-3.44
-3.76
-3.87
-3.97
-4.08
-4.16
-4.16
-4.24
-4.27
-4.32
-4.4
-4.61
-4.83
-4.96
-5.17
-5.39
-5.52
-5.76
-6.03
-6.16
-6.29
-6.51
-6.64
-6.83
-6.93
-6.96
-7.17
-7.33
-7.52
-7.63
-7.73
-7.92
-7.92
-7.71
-7.2
-6.21
-5.04
-3.28
-1.55
-0.69
-0.08
0.35
0.4
0.4
0.19
-0.08
-0.32
-0.64
-0.91
-1.12
-1.36
-1.63
-2
-2.61
-3.09
-3.44
-3.84
-4.16
-4.48
-4.67
-4.72
-4.72
-4.72
-4.77
-4.8
-4.88
-4.99
-5.12
-5.33
-5.55
-5.76
-5.89
-6.05
-6.24
-6.45
-6.67
-6.8
-6.91
-7.07
-7.28
-7.41
-7.57
-7.68
-7.79
-7.95
-8.16
-8.35
-8.45
-8.56
-8.67
-8.72
-8.72
-8.32
-6.99
-5.6
-3.57
-2.13
-1.28
-0.83
-0.51
-0.56
-0.69
-0.91
-1.2
-1.44
-1.81
-2.16
-2.37
-2.59
-2.8
-3.28
-3.92
-4.4
-4.72
-4.99
-5.2
-5.31
-5.36
-5.36
-5.36
-5.36
-5.36
-5.39
-5.44
-5.52
-5.63
-5.79
-6
-6.21
-6.43
-6.56
-6.69
-6.85
-6.96
-7.09
-7.25
-7.44
-7.73
-7.95
-8.08
-8.19
-8.29
-8.48
-8.59
-8.69
-8.88
-8.99
-9.15
-9.28
-9.36
-9.36
-9.28
-8.67
-7.44
-6
-4.45
-3.01
-1.84
-0.64
0.05
0.24
0.13
-0.08
-0.48
-0.88
-1.15
-1.44
-1.65
-1.92
-2.24
-2.56
-2.93
-3.28
-3.73
-4.27
-4.56
-4.77
-4.93
-4.96
-4.96
-4.96
-4.96
-4.93
-4.93
-5.04
-5.15
-5.25
-5.44
-5.57
-5.79
-6
-6.21
-6.43
-6.56
-6.77
-6.99
-7.2
-7.31
-7.41
-7.6
-7.79
-7.89
-8
-8.08
-8.13
-8.24
-8.27
-8.32
-8.4
-8.51
-8.61
-8.64
-8.64
-8.48
-8.16
-6.96
-5.04
-3.44
-2.03
-0.8
0.08
0.83
1.2
1.2
0.91
0.64
0.24
-0.08
-0.35
-0.56
-0.69
-1.01
-1.44
-1.84
-2.21
-2.64
-3.04
-3.36
-3.76
-4.03
-4.13
-4.16
-4.16
-4.16
-4.08
-4.08
-4.13
-4.24
-4.37
-4.53
-4.72
-4.85
-5.12
-5.36
-5.57
-5.79
-5.92
-6.13
-6.29
-6.4
-6.51
-6.61
-6.72
-6.91
-7.01
-7.04
-7.15
-7.25
-7.36
-7.39
-7.44
-7.52
-7.63
-7.73
-7.76
-7.84
-7.84
-7.84
-7.33
-6.27
-4.96
-3.55
-2
-0.64
0.77
1.73
2.16
2.19
2.13
1.84
1.52
1.2
0.88
0.67
0.4
0.16
-0.05
-0.37
-0.72
-1.2
-1.79
-2.16
-2.45
-2.67
-2.88
-2.99
-3.04
-3.04
-3.04
-3.04
-3.12
-3.15
-3.25
-3.36
-3.49
-3.65
-3.84
-4.13
-4.35
-4.56
-4.77
-4.99
-5.2
-5.31
-5.41
-5.6
-5.71
-5.81
-5.92
-6
-6.05
-6.24
-6.35
-6.4
-6.48
-6.51
-6.61
-6.72
-6.8
-6.85
-6.88
-7.2
-7.15
-6.64
-5.79
-4.56
-3.2
-1.15
0.4
1.36
1.89
2.21
2.24
2.19
1.97
1.76
1.55
1.28
0.96
0.77
0.61
0.4
0.03
-0.51
-0.96
-1.31
-1.68
-2
-2.29
-2.51
-2.64
-2.64
-2.64
-2.64
-2.64
-2.64
-2.72
-2.83
-2.99
-3.12
-3.31
-3.47
-3.68
-3.92
-4.24
-4.48
-4.61
-4.77
-4.96
-5.07
-5.17
-5.28
-5.39
-5.49
-5.6
-5.71
-5.81
-5.92
-5.95
-6.05
-6.16
-6.24
-6.29
-6.32
-6.43
-6.53
-6.56
-6.53
-6.43
-5.92
-4.51
-3.07
-1.6
-0.32
0.8
1.84
2.77
2.99
2.96
2.91
2.59
2.24
2.03
1.81
1.68
1.44
1.17
0.88
0.64
0.32
-0.08
-0.61
-1.04
-1.28
-1.49
-1.65
-1.84
-1.92
-1.92
-1.92
-1.95
-2.05
-2.08
-2.27
-2.43
-2.56
-2.8
-3.07
-3.28
-3.49
-3.65
-3.84
-4.05
-4.21
-4.32
-4.51
-4.61
-4.72
-4.83
-4.93
-5.04
-5.15
-5.31
-5.44
-5.55
-5.65
-5.68
-5.79
-5.84
-5.92
-6.03
-6.08
-6.08
-5.63
-4.88
-3.92
-2.53
-1.15
0.56
2.11
2.91
3.36
3.71
3.71
3.68
3.47
3.25
3.04
2.8
2.53
2.32
2.16
1.89
1.6
1.07
0.59
0.24
-0.08
-0.4
-0.72
-0.91
-1.01
-1.12
-1.12
-1.12
-1.12
-1.2
-1.25
-1.36
-1.57
-1.79
-2
-2.21
-2.43
-2.64
-2.93
-3.15
-3.36
-3.55
-3.71
-3.92
-4.03
-4.13
-4.24
-4.37
-4.59
-4.72
-4.83
-4.93
-5.04
-5.15
-5.25
-5.36
-5.47
-5.57
-5.68
-5.76
-5.65
-5.36
-4.59
-3.52
-2.24
-0.83
1.04
2.08
2.83
3.2
3.6
3.49
3.33
3.12
2.85
2.48
2.24
2.03
1.81
1.6
1.17
0.75
0.4
0
-0.37
-0.72
-1.04
-1.31
-1.44
-1.55
-1.65
-1.68
-1.76
-1.81
-1.84
-1.97
-2.19
-2.4
-2.53
-2.75
-2.96
-3.28
-3.55
-3.68
-3.89
-4.11
-4.32
-4.53
-4.69
-4.88
-4.99
-5.15
-5.28
-5.68
-5.89
-5.92
-6.03
-6.08
-6.16
-6.19
-6.24
-6.24
-6.32
-6.37
-6.4
-6.27
-5.89
-4.72
-3.36
-2.03
-0.72
0.48
1.49
2.56
2.77
2.88
2.88
2.61
2.24
1.92
1.71
1.49
1.28
0.88
0.56
0.24
-0.16
-0.53
-0.88
-1.28
-1.6
-1.92
-2.11
-2.21
-2.32
-2.32
-2.32
-2.32
-2.43
-2.48
-2.56
-2.69
-2.85
-3.04
-3.25
-3.47
-3.68
-3.87
-4.03
-4.24
-4.45
-4.61
-4.72
-4.83
-4.99
-5.12
-5.23
-5.33
-5.44
-5.55
-5.65
-5.76
-5.87
-5.92
-6
-6.11
-6.21
-6.24
-6.35
-6.45
-6.4
-6.19
-5.65
-4.72
-3.6
-2
0
0.99
1.84
2.48
2.67
2.83
2.72
2.59
2.37
2.08
1.68
1.36
1.12
0.91
0.64
0.16
-0.35
-0.77
-1.2
-1.52
-1.84
-2.16
-2.27
-2.37
-2.48
-2.56
-2.56
-2.56
-2.59
-2.64
-2.72
-2.93
-3.15
-3.28
-3.49
-3.71
-4
-4.21
-4.37
-4.56
-4.75
-4.91
-5.04
-5.15
-5.25
-5.36
-5.49
-5.65
-5.76
-5.79
-5.89
-6
-6.11
-6.21
-6.24
-6.35
-6.45
-6.56
-6.59
-6.69
-6.72
-6.64
-5.95
-4.88
-3.6
-2.27
-0.88
0.27
1.65
2.32
2.67
2.77
2.72
2.43
2.16
1.84
1.55
1.33
1.04
0.72
0.45
0.16
-0.19
-0.67
-1.2
-1.52
-1.84
-2.08
-2.29
-2.45
-2.48
-2.48
-2.48
-2.56
-2.64
-2.69
-2.8
-2.99
-3.15
-3.36
-3.57
-3.79
-4
-4.21
-4.48
-4.72
-4.83
-4.93
-5.04
-5.17
-5.39
-5.52
-5.55
-5.65
-5.76
-5.87
-5.97
-6.08
-6.19
-6.29
-6.4
-6.48
-6.48
-6.56
-6.59
-6.69
-6.72
-6.51
-6.03
-5.28
-3.92
-2
-0.64
0.45
1.31
1.84
2.27
2.43
2.4
2.19
1.97
1.6
1.31
1.09
0.88
0.75
0.43
0.08
-0.32
-0.69
-1.04
-1.44
-1.76
-2.08
-2.37
-2.53
-2.64
-2.64
-2.69
-2.72
-2.72
-2.77
-2.88
-3.01
-3.17
-3.52
-3.89
-4.05
-4.24
-4.53
-4.75
-4.88
-5.01
-5.17
-5.28
-5.39
-5.49
-5.6
-5.71
-5.81
-5.92
-6
-6.05
-6.16
-6.19
-6.29
-6.4
-6.43
-6.53
-6.56
-6.64
-6.64
-6.56
-5.95
-4.77
-3.52
-2.24
-0.96
0.08
1.36
2.16
2.48
2.59
2.59
2.32
2.08
1.81
1.6
1.39
1.12
0.8
0.59
0.27
-0.08
-0.53
-1.01
-1.36
-1.68
-1.95
-2.16
-2.35
-2.4
-2.4
-2.4
-2.45
-2.48
-2.51
-2.61
-2.72
-2.85
-3.07
-3.28
-3.49
-3.71
-3.92
-4.13
-4.35
-4.48
-4.61
-4.77
-4.96
-5.17
-5.33
-5.44
-5.52
-5.57
-5.76
-5.87
-5.97
-6.08
-6.19
-6.29
-6.32
-6.4
-6.45
-6.48
-6.59
-6.64
-6.56
-6.27
-5.68
-4.64
-2.72
-1.17
0
0.85
1.49
1.92
2.24
2.24
2.16
2.03
1.76
1.44
1.15
0.93
0.72
0.48
0.16
-0.16
-0.48
-0.8
-1.2
-1.52
-1.84
-2.16
-2.27
-2.37
-2.48
-2.51
-2.56
-2.64
-2.67
-2.77
-2.88
-3.07
-3.23
-3.44
-3.68
-3.95
-4.16
-4.29
-4.45
-4.64
-4.83
-4.99
-5.12
-5.23
-5.33
-5.44
-5.55
-5.65
-5.76
-5.79
-5.89
-6
-6.08
-6.13
-6.16
-6.27
-6.32
-6.4
-6.48
-6.48
-6.32
-5.47
-4.51
-3.36
-2.08
-0.91
0.32
1.47
1.95
2.16
2.29
2.13
2
1.71
1.49
1.28
1.04
0.77
0.56
0.43
0.21
-0.08
-0.61
-1.04
-1.36
-1.65
-1.87
-2.16
-2.35
-2.4
-2.48
-2.48
-2.53
-2.56
-2.67
-2.77
-2.88
-3.12
-3.39
-3.6
-3.81
-3.97
-4.16
-4.45
-4.67
-4.8
-4.99
-5.09
-5.28
-5.39
-5.44
-5.52
-5.63
-5.73
-5.84
-5.95
-6.05
-6.08
-6.19
-6.29
-6.4
-6.43
-6.48
-6.56
-6.64
-6.59
-6.48
-6.03
-5.28
-4.32
-2.93
-1.17
-0.08
0.67
1.09
1.6
1.52
1.41
1.28
0.96
0.64
0.32
0.11
-0.05
-0.24
-0.67
-1.04
-1.36
-1.76
-2.24
-2.8
-3.01
-3.23
-3.36
-3.44
-3.44
-3.44
-3.52
-3.57
-3.6
-3.73
-3.95
-4.16
-4.29
-4.51
-4.72
-4.93
-5.15
-5.28
-5.39
-5.55
-5.68
-5.79
-5.89
-6
-6.03
-6.13
-6.24
-6.32
-6.37
-6.4
-6.51
-6.61
-6.72
-6.75
-6.85
-6.96
-7.04
-7.09
-7.12
-7.09
-6.83
-5.84
-4.67
-3.44
-2.24
-1.15
-0.29
0.64
0.85
0.91
0.88
0.64
0.32
0
-0.24
-0.51
-0.72
-1.04
-1.36
-1.6
-1.92
-2.24
-2.64
-3.01
-3.23
-3.44
-3.55
-3.65
-3.68
-3.68
-3.68
-3.68
-3.71
-3.81
-3.92
-4.03
-4.13
-4.32
-4.61
-4.83
-4.96
-5.15
-5.31
-5.52
-5.71
-5.81
-5.92
-6.03
-6.13
-6.24
-6.32
-6.37
-6.48
-6.59
-6.64
-6.72
-6.83
-6.88
-6.96
-7.04
-7.09
-7.12
-7.2
-7.25
-7.2
-6.88
-6.24
-5.2
-4
-2.4
-0.48
0.37
1.01
1.44
1.52
1.52
1.36
1.12
0.8
0.48
0.27
0
-0.32
-0.53
-0.8
-1.28
-1.68
-2
-2.32
-2.61
-2.88
-3.12
-3.2
-3.2
-3.2
-3.28
-3.28
-3.28
-3.31
-3.36
-3.52
-3.71
-3.87
-4.08
-4.27
-4.43
-4.64
-4.85
-5.01
-5.12
-5.23
-5.33
-5.52
-5.63
-5.73
-5.84
-5.95
-6.05
-6.16
-6.27
-6.32
-6.4
-6.51
-6.61
-6.64
-6.72
-6.77
-6.8
-6.88
-6.88
-6.72
-6.37
-5.2
-3.52
-2.11
-0.77
0.48
1.33
2.24
2.56
2.59
2.43
2.24
2
1.63
1.2
0.99
0.77
0.48
0.16
-0.16
-0.56
-0.88
-1.2
-1.52
-1.95
-2.21
-2.32
-2.43
-2.53
-2.56
-2.56
-2.56
-2.64
-2.72
-2.77
-2.88
-2.99
-3.15
-3.44
-3.65
-3.81
-4
-4.21
-4.37
-4.56
-4.75
-4.91
-5.04
-5.15
-5.25
-5.36
-5.47
-5.57
-5.68
-5.79
-5.89
-5.92
-6.03
-6.13
-6.16
-6.27
-6.37
-6.48
-6.48
-6.27
-5.84
-4.88
-3.71
-2.24
-0.72
1.2
2.32
3.07
3.49
3.68
3.76
3.6
3.36
3.07
2.85
2.56
2.24
1.97
1.6
1.25
0.77
0.32
-0.08
-0.35
-0.56
-0.77
-0.93
-1.04
-1.04
-1.04
-1.04
-1.12
-1.17
-1.2
-1.39
-1.55
-1.76
-1.97
-2.19
-2.4
-2.61
-2.77
-2.96
-3.25
-3.47
-3.6
-3.73
-3.95
-4.08
-4.19
-4.29
-4.4
-4.59
-4.75
-4.88
-4.96
-5.07
-5.2
-5.31
-5.41
-5.52
-5.55
-5.6
-5.6
-5.15
-4.4
-3.36
-1.79
0.4
1.84
3.01
3.87
4.4
4.83
4.88
4.96
4.75
4.53
4.16
3.87
3.65
3.44
3.23
2.91
2.48
2.08
1.71
1.36
1.04
0.72
0.4
0.13
0.03
-0.08
-0.16
-0.16
-0.16
-0.24
-0.29
-0.48
-0.69
-0.91
-1.12
-1.33
-1.55
-1.76
-2.08
-2.35
-2.56
-2.77
-2.99
-3.2
-3.33
-3.49
-3.68
-3.87
-3.97
-4.08
-4.27
-4.37
-4.48
-4.59
-4.69
-4.8
-4.91
-5.07
-5.2
-5.28
-5.28
-5.2
-4.59
-3.36
-2
-0.61
0.83
2.08
3.25
4.16
5.12
5.25
5.31
5.12
4.88
4.61
4.4
4.19
3.92
3.6
3.31
3.04
2.72
2.32
1.95
1.52
1.07
0.59
0.24
-0.05
-0.21
-0.32
-0.4
-0.45
-0.56
-0.59
-0.69
-0.88
-1.01
-1.23
-1.44
-1.76
-2.03
-2.24
-2.48
-2.8
-3.04
-3.17
-3.33
-3.52
-3.73
-3.95
-4.08
-4.19
-4.29
-4.4
-4.53
-4.69
-4.8
-4.91
-5.07
-5.2
-5.28
-5.33
-5.44
-5.36
-4.99
-4.24
-3.2
-1.92
-0.56
0.77
2.11
3.68
4.21
4.59
4.64
4.67
4.51
4.24
4
3.63
3.28
3.07
2.8
2.56
2.16
1.79
1.2
0.61
0.24
-0.08
-0.51
-0.83
-0.96
-1.15
-1.25
-1.36
-1.39
-1.49
-1.6
-1.71
-1.81
-2
-2.32
-2.59
-2.8
-3.12
-3.44
-3.68
-3.81
-4.03
-4.16
-4.37
-4.53
-4.64
-4.83
-4.93
-4.96
-5.09
-5.25
-5.36
-5.47
-5.57
-5.68
-5.76
-5.81
-5.84
-5.95
-6
-6.16
-6.24
-5.92
-5.2
-4.16
-2.51
-0.48
0.69
1.71
2.56
3.07
3.49
3.52
3.47
3.15
2.8
2.48
2.16
1.92
1.6
1.28
0.8
0.29
-0.13
-0.56
-0.88
-1.25
-1.68
-1.87
-1.97
-2.08
-2.19
-2.24
-2.24
-2.27
-2.32
-2.48
-2.67
-2.83
-2.96
-3.2
-3.52
-3.76
-3.89
-4.05
-4.24
-4.45
-4.67
-4.8
-4.91
-5.01
-5.12
-5.25
-5.41
-5.52
-5.55
-5.65
-5.76
-5.84
-5.89
-5.92
-6.03
-6.13
-6.24
-6.27
-6.32
-6.32
-6.27
-5.79
-4.96
-3.76
-2.43
-0.56
1.2
2.16
2.88
3.49
3.65
3.84
3.63
3.36
3.12
2.8
2.48
2.16
1.79
1.31
0.88
0.27
-0.21
-0.64
-1.04
-1.36
-1.68
-1.95
-2.05
-2.16
-2.27
-2.32
-2.4
-2.48
-2.53
-2.64
-2.77
-2.99
-3.2
-3.41
-3.57
-3.76
-4.05
-4.21
-4.32
-4.51
-4.67
-4.8
-4.93
-5.09
-5.2
-5.23
-5.33
-5.44
-5.55
-5.65
-5.68
-5.79
-5.84
-5.84
-5.87
-5.92
-6
-6.03
-6.08
-6.08
-5.76
-5.17
-3.68
-2.05
-0.61
0.72
1.92
2.93
4.08
4.32
4.43
4.4
4.19
3.92
3.52
3.12
2.8
2.48
1.97
1.55
1.2
0.77
0.35
-0.08
-0.53
-1.07
-1.36
-1.49
-1.65
-1.76
-1.84
-1.89
-1.92
-2.03
-2.13
-2.24
-2.37
-2.53
-2.72
-3.01
-3.23
-3.44
-3.65
-3.87
-4
-4.21
-4.37
-4.56
-4.67
-4.83
-4.96
-5.07
-5.17
-5.2
-5.33
-5.49
-5.6
-5.63
-5.73
-5.84
-5.87
-5.97
-6
-6.08
-6.08
-5.84
-5.33
-4.53
-3.36
-1.97
-0.27
1.76
2.64
3.39
4
4.21
4.27
4.08
3.84
3.57
3.28
2.77
2.4
2.08
1.76
1.39
0.8
0.29
-0.13
-0.56
-0.96
-1.28
-1.52
-1.81
-1.97
-2
-2.11
-2.16
-2.24
-2.27
-2.32
-2.48
-2.69
-2.91
-3.04
-3.25
-3.47
-3.68
-3.92
-4.19
-4.4
-4.51
-4.67
-4.8
-4.91
-5.01
-5.04
-5.33
-5.55
-5.68
-5.71
-5.76
-5.84
-5.87
-5.97
-6
-6.08
-6.08
-5.92
-5.6
-4.91
-3.84
-2.61
-0.91
1.2
2.27
3.12
3.76
4.08
4.24
4.16
4
3.73
3.44
2.93
2.56
2.24
1.95
1.68
1.12
0.61
0.24
-0.16
-0.51
-0.88
-1.2
-1.49
-1.71
-1.84
-1.95
-2
-2.08
-2.11
-2.21
-2.32
-2.53
-2.75
-2.88
-3.09
-3.31
-3.44
-3.68
-3.95
-4.16
-4.29
-4.45
-4.64
-4.83
-4.93
-4.96
-5.07
-5.17
-5.28
-5.39
-5.44
-5.52
-5.55
-5.65
-5.68
-5.76
-5.81
-5.84
-5.84
-5.79
-5.44
-4.77
-3.28
-1.36
0.03
1.25
2.4
3.17
3.81
4.16
4.37
4.27
4
3.57
3.2
2.88
2.56
2.24
1.76
1.33
0.96
0.56
0.13
-0.29
-0.72
-1.23
-1.55
-1.76
-1.97
-2.13
-2.24
-2.27
-2.32
-2.4
-2.51
-2.61
-2.72
-2.93
-3.15
-3.28
-3.52
-3.79
-4
-4.13
-4.35
-4.56
-4.67
-4.77
-4.88
-4.99
-5.09
-5.2
-5.23
-5.33
-5.44
-5.47
-5.52
-5.6
-5.68
-5.73
-5.84
-5.87
-5.92
-6
-6
-5.73
-5.2
-4.21
-2.99
-1.52
-0.13
1.15
2.48
3.71
4.13
4.32
4.32
4.16
3.92
3.6
3.23
2.8
2.4
2.08
1.76
1.41
1.04
0.64
0.03
-0.45
-0.8
-1.23
-1.6
-1.84
-2.03
-2.13
-2.24
-2.32
-2.32
-2.32
-2.43
-2.53
-2.64
-2.77
-2.99
-3.2
-3.41
-3.68
-3.92
-4.11
-4.27
-4.4
-4.53
-4.75
-4.88
-4.99
-5.09
-5.2
-5.31
-5.41
-5.52
-5.63
-5.73
-5.84
-5.95
-6.05
-6.16
-6.24
-6.19
-6
-5.44
-4.59
-3.44
-2.03
-0.64
0.96
2.4
3.09
3.52
3.73
3.73
3.6
3.31
2.99
2.48
2.08
1.76
1.44
1.09
0.72
0.32
-0.32
-0.85
-1.28
-1.71
-2.13
-2.4
-2.53
-2.69
-2.8
-2.88
-2.93
-2.96
-3.04
-3.09
-3.2
-3.33
-3.55
-3.76
-3.89
-4.11
-4.48
-4.88
-5.15
-5.28
-5.41
-5.57
-5.68
-5.71
-5.76
-5.84
-5.95
-6
-6
-6.08
-6.13
-6.24
-6.27
-6.32
-6.4
-6.43
-6.48
-6.4
-6.08
-5.49
-4.64
-3.36
-2.08
-0.4
1.23
2.03
2.56
2.91
3.07
2.96
2.67
2.4
2.08
1.63
1.15
0.72
0.37
0
-0.4
-1.04
-1.57
-2
-2.35
-2.77
-3.04
-3.15
-3.25
-3.36
-3.44
-3.49
-3.52
-3.6
-3.65
-3.76
-3.89
-4.11
-4.32
-4.45
-4.67
-4.88
-5.07
-5.23
-5.36
-5.47
-5.57
-5.68
-5.79
-5.84
-5.92
-5.95
-6
-6
-6
-6
-6.08
-6.08
-6.08
-6.08
-6.08
-6.08
-6
-6
-5.84
-5.52
-4.77
-3.76
-1.92
0
1.33
2.4
3.47
4.11
4.32
4.24
4.08
3.68
3.25
2.83
2.4
2.05
1.68
1.28
0.67
0.19
-0.24
-0.67
-1.09
-1.52
-1.87
-2.24
-2.48
-2.67
-2.77
-2.88
-2.96
-3.01
-3.04
-3.17
-3.33
-3.52
-3.65
-3.92
-4.24
-4.43
-4.59
-4.72
-4.93
-5.09
-5.2
-5.31
-5.41
-5.52
-5.63
-5.73
-5.84
-5.84
-5.89
-6
-6.03
-6.08
-6.16
-6.19
-6.29
-6.32
-6.4
-6.45
-6.48
-6.45
-6.24
-5.44
-4.4
-3.12
-1.84
-0.03
1.31
2.16
2.61
2.93
2.96
2.91
2.69
2.4
2.05
1.68
1.28
0.85
0.48
0.16
-0.29
-0.83
-1.28
-1.6
-1.92
-2.24
-2.56
-2.83
-2.96
-3.07
-3.17
-3.2
-3.31
-3.41
-3.52
-3.57
-3.79
-4
-4.19
-4.35
-4.48
-4.72
-4.99
-5.2
-5.33
-5.49
-5.68
-5.79
-5.95
-6.08
-6.16
-6.21
-6.32
-6.32
-6.32
-6.4
-6.4
-6.45
-6.48
-6.48
-6.48
-6.48
-6.56
-6.61
-6.72
-6.69
-6.59
-6.24
-4.96
-3.73
-2.48
-1.39
-0.37
0.64
1.49
1.76
1.84
1.89
1.79
1.6
1.28
0.96
0.72
0.45
0.08
-0.24
-0.48
-0.8
-1.12
-1.44
-1.76
-2.08
-2.4
-2.67
-2.8
-3.01
-3.23
-3.36
-3.39
-3.49
-3.6
-3.79
-3.95
-4.08
-4.29
-4.51
-4.64
-4.77
-4.93
-5.12
-5.23
-5.39
-5.52
-5.63
-5.73
-5.92
-6.03
-6.08
-6.16
-6.27
-6.37
-6.48
-6.56
-6.61
-6.72
-6.8
-6.85
-6.96
-7.07
-7.12
-7.12
-6.88
-6.35
-5.6
-4.43
-3.25
-2
-0.88
0.4
1.04
1.39
1.55
1.6
1.41
1.25
1.04
0.69
0.32
0.08
-0.16
-0.43
-0.72
-1.15
-1.52
-1.84
-2.16
-2.43
-2.64
-2.85
-3.07
-3.2
-3.23
-3.33
-3.36
-3.44
-3.49
-3.52
-3.65
-3.81
-4
-4.13
-4.29
-4.48
-4.61
-4.83
-5.04
-5.15
-5.31
-5.52
-5.63
-5.73
-5.92
-6.03
-6.13
-6.24
-6.35
-6.45
-6.56
-6.64
-6.64
-6.72
-6.72
-6.72
-6.8
-6.8
-6.8
-6.8
-6.8
-6.75
-6.24
-5.49
-4.43
-3.2
-1.97
-0.85
0.08
0.96
1.55
1.84
1.81
1.71
1.52
1.31
1.09
0.8
0.48
0.21
0
-0.29
-0.56
-0.8
-1.17
-1.65
-2
-2.21
-2.43
-2.64
-2.83
-2.93
-3.04
-3.12
-3.17
-3.28
-3.31
-3.41
-3.52
-3.63
-3.79
-4
-4.19
-4.29
-4.4
-4.61
-4.77
-4.88
-4.99
-5.09
-5.2
-5.39
-5.49
-5.6
-5.71
-5.81
-6
-6.11
-6.16
-6.24
-6.35
-6.4
-6.48
-6.56
-6.56
-6.64
-6.64
-6.64
-6.56
-6.27
-5.73
-4.8
-2.99
-1.49
-0.32
0.56
1.31
1.84
2.32
2.37
2.24
2.11
1.79
1.44
1.23
0.96
0.72
0.45
0.08
-0.24
-0.48
-0.8
-1.12
-1.44
-1.81
-2.16
-2.37
-2.59
-2.72
-2.83
-2.88
-2.96
-2.99
-3.09
-3.12
-3.23
-3.39
-3.52
-3.73
-3.95
-4.16
-4.29
-4.45
-4.56
-4.77
-4.93
-5.04
-5.23
-5.33
-5.44
-5.55
-5.65
-5.76
-5.87
-5.97
-6.08
-6.16
-6.21
-6.24
-6.35
-6.45
-6.56
-6.59
-6.64
-6.64
-6.21
-5.57
-4.64
-3.36
-2.13
-0.72
0.64
1.28
1.68
1.92
1.92
1.92
1.71
1.44
1.12
0.77
0.4
0.08
-0.24
-0.56
-0.96
-1.49
-1.92
-2.16
-2.45
-2.67
-2.88
-2.99
-3.04
-3.12
-3.15
-3.25
-3.28
-3.39
-3.49
-3.6
-3.81
-4.03
-4.24
-4.37
-4.53
-4.72
-4.93
-5.09
-5.2
-5.39
-5.49
-5.68
-5.79
-5.89
-6
-6.03
-6.13
-6.24
-6.35
-6.45
-6.48
-6.59
-6.69
-6.8
-6.83
-6.88
-6.96
-6.96
-6.85
-6.64
-5.97
-5.01
-3.28
-1.55
-0.37
0.48
1.23
1.65
2.16
2.16
2.05
1.84
1.55
1.28
0.88
0.48
0.16
-0.16
-0.69
-1.17
-1.52
-1.84
-2.16
-2.56
-2.93
-3.09
-3.2
-3.31
-3.41
-3.44
-3.52
-3.52
-3.52
-3.63
-3.73
-3.92
-4.05
-4.21
-4.4
-4.61
-4.83
-4.96
-5.15
-5.31
-5.52
-5.71
-5.81
-5.92
-6.03
-6.13
-6.16
-6.24
-6.29
-6.32
-6.4
-6.4
-6.48
-6.51
-6.56
-6.56
-6.64
-6.69
-6.72
-6.69
-6.48
-5.68
-4.64
-3.36
-2
-0.61
0.61
2
2.43
2.69
2.88
2.72
2.45
2.16
1.92
1.6
1.2
0.77
0.4
0.08
-0.32
-0.69
-1.04
-1.36
-1.68
-2.08
-2.35
-2.51
-2.64
-2.64
-2.64
-2.64
-2.67
-2.72
-2.72
-2.75
-2.85
-3.04
-3.23
-3.39
-3.6
-3.79
-3.95
-4.16
-4.35
-4.45
-4.64
-4.77
-4.93
-5.04
-5.23
-5.33
-5.36
-5.49
-5.65
-5.76
-5.79
-5.84
-5.92
-6.03
-6.13
-6.24
-6.32
-6.27
-5.84
-5.17
-4.11
-2.8
-1.36
0.19
2
2.67
3.2
3.6
3.68
3.68
3.52
3.36
3.09
2.8
2.4
2.08
1.84
1.52
1.15
0.56
0.05
-0.32
-0.64
-0.96
-1.28
-1.52
-1.71
-1.81
-1.84
-1.95
-2
-2.08
-2.11
-2.16
-2.24
-2.43
-2.59
-2.72
-2.91
-3.07
-3.36
-3.57
-3.73
-3.92
-4.05
-4.27
-4.4
-4.59
-4.69
-4.8
-4.93
-5.09
-5.2
-5.23
-5.33
-5.44
-5.63
-5.73
-5.76
-5.87
-5.92
-5.52
-4.88
-3.92
-2.64
-0.93
1.52
3.76
4.21
4.59
4.8
4.75
4.59
4.4
4.16
3.89
3.6
3.2
2.88
2.56
2.24
1.87
1.28
0.72
0.4
0
-0.29
-0.56
-0.88
-1.07
-1.17
-1.28
-1.41
-1.57
-1.68
-1.79
-1.89
-2.08
-2.29
-2.51
-2.64
-2.83
-2.99
-3.28
-3.49
-3.65
-3.76
-3.87
-4.03
-4.16
-4.27
-4.37
-4.4
-4.51
-4.61
-4.72
-4.83
-4.93
-5.04
-5.15
-5.25
-5.28
-5.04
-4.51
-3.12
-1.57
-0.19
1.04
2.21
3.17
4.24
4.56
4.72
4.8
4.64
4.37
4.08
3.84
3.52
3.2
2.77
2.4
2.08
1.68
1.31
0.72
0.24
-0.08
-0.4
-0.61
-0.83
-1.04
-1.12
-1.17
-1.28
-1.39
-1.49
-1.6
-1.71
-1.81
-2
-2.29
-2.51
-2.72
-2.93
-3.15
-3.44
-3.65
-3.81
-4
-4.11
-4.27
-4.48
-4.59
-4.69
-4.8
-4.93
-5.15
-5.28
-5.31
-5.41
-5.52
-5.63
-5.68
-5.6
-5.15
-4.4
-2.72
-0.93
0.45
1.68
2.85
3.76
4.72
4.93
5.04
5.04
4.77
4.4
4.08
3.76
3.49
3.2
2.67
2.19
1.84
1.41
0.99
0.56
0.11
-0.37
-0.72
-0.93
-1.2
-1.44
-1.55
-1.65
-1.76
-1.87
-1.97
-2.08
-2.21
-2.43
-2.64
-2.93
-3.15
-3.36
-3.57
-3.79
-4
-4.21
-4.37
-4.56
-4.67
-4.83
-4.96
-5.07
-5.17
-5.2
-5.33
-5.49
-5.6
-5.71
-5.81
-5.92
-6
-5.89
-5.68
-4.91
-3.84
-2
-0.11
1.12
2.16
3.09
3.68
4
4.13
4.19
4.08
3.73
3.36
3.04
2.72
2.4
2
1.47
0.99
0.56
0.13
-0.29
-0.72
-1.17
-1.65
-2
-2.21
-2.43
-2.56
-2.67
-2.77
-2.8
-2.91
-3.01
-3.2
-3.33
-3.49
-3.68
-3.97
-4.19
-4.4
-4.61
-4.83
-5.04
-5.23
-5.33
-5.44
-5.55
-5.71
-5.84
-5.95
-6.05
-6.08
-6.19
-6.24
-6.24
-6.27
-6.32
-6.4
-6.37
-6.11
-5.68
-4.72
-3.6
-0.8
1.87
2.67
3.2
3.55
3.6
3.6
3.31
3.04
2.72
2.27
1.73
1.36
1.01
0.59
0.16
-0.48
-1.01
-1.44
-1.76
-2.08
-2.48
-2.77
-2.93
-3.04
-3.07
-3.17
-3.2
-3.28
-3.33
-3.36
-3.49
-3.65
-3.84
-3.97
-4.13
-4.32
-4.53
-4.75
-4.88
-5.07
-5.17
-5.36
-5.47
-5.57
-5.68
-5.71
-5.81
-5.84
-5.84
-5.89
-5.92
-6.03
-6.08
-6.16
-6.19
-6.29
-6.32
-6
-5.41
-4.48
-3.09
-1.71
0.08
1.73
2.59
3.12
3.55
3.6
3.68
3.47
3.2
2.88
2.43
1.89
1.44
1.09
0.67
0.24
-0.4
-0.93
-1.36
-1.68
-2
-2.32
-2.51
-2.61
-2.72
-2.83
-2.93
-3.04
-3.12
-3.17
-3.28
-3.41
-3.63
-3.76
-3.89
-4.11
-4.32
-4.61
-4.83
-4.96
-5.15
-5.25
-5.36
-5.47
-5.52
-5.6
-5.68
-5.73
-5.84
-5.92
-5.97
-6
-6.11
-6.16
-6.24
-6.35
-6.4
-6.32
-5.87
-5.12
-4.08
-2.59
-1.15
0.72
2.45
3.31
3.92
4.35
4.4
4.48
4.19
3.92
3.6
3.12
2.53
2.08
1.73
1.31
0.8
0.08
-0.51
-0.96
-1.36
-1.68
-2.08
-2.45
-2.61
-2.72
-2.83
-2.93
-2.96
-3.04
-3.09
-3.2
-3.33
-3.49
-3.6
-3.73
-3.89
-4
-4.21
-4.43
-4.56
-4.67
-4.77
-4.88
-5.01
-5.17
-5.28
-5.39
-5.49
-5.6
-5.71
-5.81
-5.84
-5.95
-6.05
-6.16
-6.16
-6.16
-6.08
-5.52
-4.67
-3.52
-2.03
-0.59
1.2
2.85
3.71
4.24
4.59
4.59
4.56
4.24
3.87
3.52
3.04
2.4
1.92
1.57
1.15
0.64
-0.08
-0.61
-1.04
-1.44
-1.76
-2.16
-2.51
-2.61
-2.72
-2.83
-2.93
-2.96
-3.07
-3.17
-3.2
-3.41
-3.63
-3.76
-3.89
-4.05
-4.24
-4.43
-4.53
-4.64
-4.83
-4.93
-5.04
-5.15
-5.2
-5.28
-5.39
-5.49
-5.6
-5.68
-5.73
-5.84
-5.95
-6.05
-6.16
-6.19
-6.24
-6.24
-6
-4.88
-2.88
-1.39
0.05
1.76
3.28
3.92
4.32
4.56
4.45
4.32
3.92
3.55
3.2
2.72
2.13
1.68
1.25
0.88
0.48
-0.24
-0.77
-1.12
-1.52
-1.84
-2.16
-2.45
-2.61
-2.72
-2.83
-2.93
-3.04
-3.15
-3.25
-3.36
-3.49
-3.71
-3.84
-3.97
-4.13
-4.24
-4.43
-4.53
-4.64
-4.75
-4.85
-4.96
-5.07
-5.17
-5.28
-5.31
-5.47
-5.6
-5.71
-5.81
-5.92
-6.03
-6.13
-6.24
-6.24
-6.24
-6.16
-5.39
-4.37
-3.12
-1.63
-0.19
1.44
2.96
3.65
4.08
4.32
4.27
4.16
3.87
3.6
3.28
2.83
2.29
1.92
1.57
1.15
0.72
0
-0.53
-0.96
-1.36
-1.68
-2.08
-2.37
-2.53
-2.64
-2.75
-2.85
-2.96
-3.04
-3.09
-3.2
-3.41
-3.57
-3.76
-3.89
-4.05
-4.24
-4.45
-4.61
-4.72
-4.91
-5.01
-5.2
-5.31
-5.36
-5.44
-5.55
-5.65
-5.68
-5.79
-5.89
-5.92
-6.03
-6.08
-6.16
-6.16
-6.11
-5.92
-4.93
-3.76
-2.4
-0.91
0.48
2
3.33
3.92
4.24
4.48
4.37
4.24
3.84
3.47
3.12
2.67
2.13
1.68
1.33
0.91
0.48
-0.24
-0.77
-1.12
-1.52
-1.84
-2.24
-2.51
-2.61
-2.72
-2.83
-2.93
-2.96
-3.04
-3.09
-3.2
-3.41
-3.63
-3.84
-4.05
-4.21
-4.4
-4.69
-4.85
-4.96
-5.07
-5.17
-5.36
-5.47
-5.52
-5.6
-5.63
-5.73
-5.76
-5.84
-5.89
-5.92
-6.03
-6.08
-6.08
-6.08
-6.03
-5.68
-4.51
-3.23
-1.76
-0.35
0.99
2.32
3.55
3.97
4.16
4.27
4
3.68
3.28
2.91
2.56
2.11
1.57
1.12
0.77
0.35
-0.08
-0.72
-1.25
-1.6
-2
-2.32
-2.64
-2.93
-3.09
-3.2
-3.31
-3.41
-3.52
-3.71
-3.87
-4
-4.24
-4.51
-4.72
-4.85
-5.07
-5.28
-5.57
-5.79
-5.92
-6.03
-6.19
-6.4
-6.51
-6.61
-6.72
-6.83
-6.93
-6.96
-7.07
-7.12
-7.12
-7.23
-7.28
-7.28
-7.25
-7.15
-6.48
-4.64
-2.93
-1.44
-0.24
0.83
1.84
2.69
2.96
2.96
2.91
2.59
2.24
1.92
1.55
1.2
0.72
0.13
-0.32
-0.77
-1.25
-1.68
-2.03
-2.51
-2.96
-3.17
-3.33
-3.52
-3.63
-3.68
-3.68
-3.68
-3.73
-3.76
-3.87
-3.97
-4.08
-4.21
-4.37
-4.56
-4.69
-4.85
-4.96
-5.17
-5.33
-5.44
-5.55
-5.65
-5.76
-5.79
-5.89
-6
-6.03
-6.13
-6.16
-6.16
-6.21
-6.24
-6.35
-6.4
-6.4
-6.27
-6
-5.36
-3.65
-2.05
-0.56
0.75
1.92
2.96
3.89
4.16
4.16
4.11
3.73
3.28
2.85
2.43
2
1.44
0.8
0.24
-0.21
-0.69
-1.2
-1.63
-2.11
-2.56
-2.77
-2.99
-3.12
-3.23
-3.28
-3.28
-3.31
-3.41
-3.52
-3.6
-3.71
-3.84
-3.97
-4.19
-4.32
-4.45
-4.61
-4.72
-4.93
-5.09
-5.2
-5.28
-5.33
-5.52
-5.63
-5.68
-5.76
-5.79
-5.89
-6
-6.08
-6.13
-6.16
-6.19
-6.24
-6.24
-6.19
-5.97
-5.44
-3.84
-2.29
-0.72
0.67
1.89
3.12
4.16
4.53
4.64
4.59
4.27
3.92
3.52
3.15
2.72
2.21
1.52
0.96
0.51
0.03
-0.48
-0.93
-1.52
-2.08
-2.37
-2.59
-2.8
-2.99
-3.09
-3.12
-3.15
-3.25
-3.28
-3.36
-3.41
-3.52
-3.73
-3.95
-4.16
-4.29
-4.45
-4.56
-4.77
-4.99
-5.12
-5.23
-5.33
-5.44
-5.55
-5.6
-5.68
-5.71
-5.81
-5.92
-6
-6
-6
-6.11
-6.16
-6.16
-6.11
-5.89
-5.28
-3.57
-1.97
-0.4
0.99
2.21
3.28
3.92
4.61
4.8
4.75
4.43
4
3.57
3.15
2.72
2.16
1.52
0.96
0.43
-0.05
-0.56
-0.99
-1.52
-2.08
-2.37
-2.59
-2.88
-3.07
-3.12
-3.2
-3.23
-3.33
-3.36
-3.47
-3.57
-3.68
-3.81
-4.03
-4.16
-4.29
-4.45
-4.64
-4.83
-4.93
-5.04
-5.15
-5.25
-5.36
-5.47
-5.52
-5.6
-5.63
-5.73
-5.76
-5.84
-5.84
-5.84
-6.11
-6.21
-6.08
-5.65
-4.85
-3.68
-1.44
0.32
1.68
2.67
3.52
4.16
4.64
4.64
4.48
4.24
3.81
3.28
2.85
2.43
2
1.49
0.8
0.24
-0.21
-0.75
-1.2
-1.81
-2.24
-2.56
-2.75
-2.91
-3.04
-3.15
-3.2
-3.28
-3.31
-3.41
-3.44
-3.55
-3.65
-3.76
-3.97
-4.19
-4.4
-4.53
-4.69
-4.8
-5.01
-5.17
-5.2
-5.31
-5.41
-5.52
-5.63
-5.68
-5.76
-5.79
-5.89
-5.92
-5.92
-5.97
-6
-6.05
-5.95
-5.6
-4.93
-3.87
-2.48
-0.32
1.33
2.48
3.25
3.89
4.24
4.53
4.43
4.16
3.84
3.36
2.8
2.4
2.03
1.6
1.09
0.4
-0.16
-0.59
-1.01
-1.44
-1.97
-2.4
-2.64
-2.83
-2.93
-3.04
-3.12
-3.12
-3.2
-3.23
-3.33
-3.44
-3.63
-3.73
-3.84
-4.05
-4.27
-4.48
-4.61
-4.77
-4.96
-5.15
-5.25
-5.36
-5.47
-5.57
-5.68
-5.71
-5.76
-5.76
-5.79
-5.89
-5.92
-6
-6.05
-6.08
-5.89
-5.41
-4.48
-3.33
-1.89
-0.4
1.52
2.91
3.76
4.21
4.53
4.56
4.48
4.21
3.84
3.49
2.96
2.4
1.97
1.55
1.12
0.61
-0.13
-0.64
-1.07
-1.49
-1.92
-2.35
-2.67
-2.88
-2.99
-3.09
-3.2
-3.23
-3.28
-3.36
-3.47
-3.63
-3.76
-3.95
-4.11
-4.24
-4.45
-4.67
-4.88
-5.01
-5.17
-5.28
-5.47
-5.57
-5.6
-5.68
-5.73
-5.76
-5.79
-5.84
-5.92
-5.95
-6.05
-6.08
-6.16
-6.11
-6
-5.25
-3.87
-2.4
-0.93
0.51
1.76
3.07
3.92
4.32
4.43
4.37
4
3.65
3.28
2.88
2.45
1.92
1.28
0.85
0.37
-0.08
-0.67
-1.36
-1.84
-2.16
-2.48
-2.8
-3.09
-3.25
-3.36
-3.44
-3.49
-3.6
-3.63
-3.68
-3.76
-3.87
-4.03
-4.24
-4.43
-4.59
-4.72
-4.93
-5.15
-5.28
-5.39
-5.49
-5.6
-5.79
-5.89
-5.92
-6
-6.05
-6.08
-6.11
-6.16
-6.24
-6.27
-6.32
-6.32
-6.08
-5.44
-4.48
-2.91
-0.72
0.72
1.87
2.67
3.2
3.63
3.79
3.68
3.36
2.99
2.4
1.89
1.47
0.96
0.53
-0.05
-0.72
-1.25
-1.73
-2.16
-2.59
-3.01
-3.28
-3.39
-3.49
-3.6
-3.68
-3.68
-3.68
-3.76
-3.81
-3.92
-4.03
-4.13
-4.32
-4.43
-4.59
-4.8
-4.99
-5.15
-5.28
-5.41
-5.57
-5.68
-5.71
-5.81
-5.92
-6
-6.05
-6.08
-6.16
-6.16
-6.24
-6.24
-6.24
-6.32
-6.29
-5.92
-5.28
-4.19
-2.85
-1.36
0.13
2
3.04
3.68
4.05
4.16
4.05
3.84
3.52
3.09
2.61
1.92
1.31
0.83
0.32
-0.21
-0.69
-1.2
-1.65
-2.19
-2.72
-3.04
-3.31
-3.44
-3.55
-3.6
-3.6
-3.6
-3.65
-3.68
-3.76
-3.81
-4
-4.13
-4.29
-4.48
-4.59
-4.75
-4.96
-5.15
-5.25
-5.36
-5.47
-5.57
-5.68
-5.79
-5.84
-5.84
-5.92
-5.97
-6
-6.08
-6.13
-6.24
-6.24
-6.24
-6.08
-5.68
-4.51
-2.8
-1.2
0.29
1.68
2.77
4
4.56
4.8
4.8
4.56
4.05
3.63
3.2
2.69
2.21
1.52
0.91
0.37
-0.16
-0.69
-1.23
-1.68
-2.32
-2.8
-3.04
-3.25
-3.41
-3.52
-3.55
-3.6
-3.6
-3.6
-3.65
-3.68
-3.79
-3.89
-4.08
-4.21
-4.37
-4.56
-4.69
-4.91
-5.12
-5.23
-5.33
-5.44
-5.55
-5.65
-5.76
-5.79
-5.84
-5.92
-5.92
-5.97
-6
-6
-6.05
-6.08
-6
-5.68
-5.04
-4.05
-2.19
0.16
1.47
2.64
3.68
4.21
4.75
4.8
4.72
4.45
4.08
3.47
2.93
2.48
1.95
1.41
0.72
0.03
-0.51
-1.04
-1.47
-2
-2.56
-2.85
-3.07
-3.2
-3.31
-3.41
-3.52
-3.52
-3.52
-3.6
-3.71
-3.81
-3.92
-4.03
-4.19
-4.32
-4.45
-4.67
-4.88
-4.99
-5.15
-5.28
-5.39
-5.49
-5.52
-5.63
-5.73
-5.84
-5.87
-5.92
-6
-6.08
-6.13
-6.16
-6.24
-6.24
-6.16
-5.95
-5.41
-3.36
-1.07
0.69
2.72
3.49
4.13
4.56
4.61
4.51
4.24
3.89
3.47
3.04
2.4
1.81
1.36
0.85
0.37
-0.32
-0.91
-1.33
-1.76
-2.16
-2.53
-2.96
-3.15
-3.25
-3.36
-3.44
-3.44
-3.52
-3.55
-3.6
-3.68
-3.87
-3.97
-4.08
-4.27
-4.43
-4.64
-4.83
-4.93
-5.12
-5.23
-5.39
-5.52
-5.6
-5.65
-5.68
-5.79
-5.84
-5.92
-5.95
-6
-6.08
-6.08
-6.13
-6.16
-6.16
-6
-5.2
-4.05
-2.67
-1.2
0.32
1.76
3.44
4
4.43
4.64
4.51
4.29
3.92
3.57
3.15
2.72
2
1.47
1.04
0.53
0.05
-0.64
-1.25
-1.73
-2.16
-2.48
-2.8
-3.12
-3.23
-3.33
-3.44
-3.47
-3.52
-3.6
-3.63
-3.68
-3.76
-3.95
-4.11
-4.24
-4.43
-4.59
-4.8
-4.99
-5.09
-5.2
-5.31
-5.41
-5.52
-5.63
-5.73
-5.76
-5.87
-5.92
-5.92
-5.95
-6
-6.08
-6.16
-6.11
-6
-5.57
-4.88
-3.12
-1.23
0.27
1.52
2.69
3.55
4.48
4.61
4.61
4.48
4.11
3.57
3.12
2.67
2.19
1.76
1.12
0.53
0.08
-0.43
-0.91
-1.36
-1.84
-2.43
-2.8
-3.01
-3.23
-3.36
-3.44
-3.49
-3.52
-3.63
-3.68
-3.76
-3.81
-3.97
-4.08
-4.29
-4.51
-4.64
-4.83
-4.99
-5.2
-5.31
-5.41
-5.52
-5.63
-5.73
-5.76
-5.84
-5.89
-5.92
-6
-6
-6.08
-6.08
-6.08
-6.08
-5.84
-5.31
-4.56
-3.28
-1.89
0.08
2
3.01
3.76
4.29
4.45
4.56
4.27
3.95
3.6
3.09
2.4
1.92
1.49
1.07
0.56
-0.16
-0.75
-1.2
-1.71
-2.13
-2.64
-3.01
-3.23
-3.44
-3.55
-3.65
-3.68
-3.76
-3.76
-3.76
-3.87
-3.97
-4.08
-4.21
-4.37
-4.56
-4.85
-5.07
-5.2
-5.31
-5.47
-5.68
-5.79
-5.84
-5.92
-5.95
-6.05
-6.08
-6.16
-6.16
-6.16
-6.27
-6.32
-6.32
-6.32
-6.27
-5.92
-4.64
-3.25
-1.76
-0.27
1.55
3.2
4.4
4.45
4.32
4.05
3.52
2.96
2.45
1.97
1.52
0.93
0.19
-0.4
-0.93
-1.41
-1.92
-2.35
-2.77
-3.2
-3.41
-3.57
-3.68
-3.79
-3.84
-3.84
-3.87
-3.92
-4
-4.08
-4.13
-4.24
-4.45
-4.67
-4.8
-4.93
-5.09
-5.28
-5.47
-5.57
-5.68
-5.76
-5.81
-5.92
-5.95
-6
-6.08
-6.08
-6.13
-6.16
-6.24
-6.24
-6.24
-6.11
-5.57
-4.72
-3.57
-2.13
-0.72
1.2
2.53
3.36
3.79
4.05
4
3.81
3.44
3.04
2.61
2.03
1.28
0.77
0.29
-0.24
-0.77
-1.31
-1.84
-2.32
-2.91
-3.28
-3.57
-3.73
-3.76
-3.84
-3.84
-3.84
-3.79
-3.84
-3.84
-3.87
-3.97
-4.08
-4.27
-4.37
-4.48
-4.69
-4.91
-5.04
-5.17
-5.33
-5.44
-5.63
-5.73
-5.76
-5.84
-5.89
-6
-6.03
-6.08
-6.16
-6.16
-6.16
-6.16
-5.92
-5.39
-4.64
-3.12
-0.88
0.72
2
3.01
3.76
4.29
4.51
4.48
4.19
3.87
3.28
2.67
2.19
1.68
1.15
0.51
-0.24
-0.77
-1.31
-1.76
-2.24
-2.83
-3.2
-3.41
-3.57
-3.68
-3.76
-3.76
-3.76
-3.84
-3.89
-4
-4.03
-4.08
-4.16
-4.27
-4.43
-4.64
-4.75
-4.91
-5.04
-5.17
-5.39
-5.52
-5.63
-5.68
-5.76
-5.87
-5.97
-6
-6
-6.05
-6.08
-6.11
-6.16
-6
-5.68
-4.61
-3.04
-1.52
-0.03
1.44
2.56
3.89
4.48
4.72
4.72
4.56
4.05
3.63
3.2
2.69
2.21
1.52
0.91
0.43
-0.08
-0.61
-1.15
-1.6
-2.24
-2.72
-2.96
-3.17
-3.39
-3.52
-3.55
-3.6
-3.68
-3.68
-3.73
-3.76
-3.87
-3.97
-4.16
-4.27
-4.37
-4.56
-4.69
-4.91
-5.04
-5.23
-5.33
-5.44
-5.55
-5.65
-5.76
-5.79
-5.84
-5.84
-5.92
-5.97
-6
-6
-5.95
-5.44
-4.69
-3.57
-2.16
-0.59
1.12
3.12
3.89
4.48
4.88
4.83
4.61
4.24
3.89
3.47
2.96
2.03
1.33
0.8
0.27
-0.27
-0.8
-1.31
-1.73
-2.24
-2.69
-2.96
-3.28
-3.36
-3.41
-3.44
-3.52
-3.57
-3.68
-3.71
-3.81
-3.92
-4.11
-4.21
-4.32
-4.51
-4.61
-4.8
-4.99
-5.09
-5.2
-5.31
-5.47
-5.6
-5.68
-5.73
-5.76
-5.87
-5.92
-6
-6
-6
-5.92
-5.39
-4.59
-3.52
-2
-0.45
1.36
3.09
3.95
4.4
4.72
4.67
4.56
4.16
3.79
3.36
2.77
2.08
1.52
1.07
0.59
0.08
-0.67
-1.31
-1.76
-2.16
-2.53
-2.96
-3.25
-3.41
-3.52
-3.55
-3.65
-3.68
-3.68
-3.73
-3.76
-3.87
-3.97
-4.08
-4.21
-4.37
-4.56
-4.77
-4.93
-5.04
-5.23
-5.33
-5.52
-5.63
-5.68
-5.76
-5.79
-5.89
-6
-6.08
-6.13
-6.16
-6.21
-6.11
-5.76
-5.09
-3.97
-2.56
-0.21
1.55
2.72
3.57
4.21
4.64
4.59
4.43
4.16
3.79
3.15
2.48
1.97
1.49
1.04
0.45
-0.24
-0.8
-1.33
-1.81
-2.24
-2.64
-3.01
-3.36
-3.55
-3.65
-3.76
-3.76
-3.76
-3.84
-3.87
-3.97
-4.08
-4.19
-4.29
-4.4
-4.59
-4.69
-4.88
-5.09
-5.25
-5.44
-5.63
-5.73
-5.84
-5.92
-5.97
-6.08
-6.16
-6.16
-6.24
-6.27
-6.32
-6.32
-6.21
-5.89
-5.28
-3.84
-1.6
0.08
1.49
2.67
3.52
4.27
4.64
4.64
4.43
4.11
3.76
3.25
2.56
2
1.55
0.91
0.24
-0.27
-0.75
-1.2
-1.76
-2.35
-2.72
-3.04
-3.31
-3.52
-3.63
-3.73
-3.84
-3.84
-3.89
-4
-4.03
-4.13
-4.24
-4.37
-4.59
-4.72
-4.91
-5.07
-5.2
-5.39
-5.49
-5.68
-5.79
-5.84
-5.92
-6.03
-6.13
-6.16
-6.24
-6.24
-6.32
-6.35
-6.4
-6.32
-6
-5.36
-4.32
-2.08
-0.27
1.2
2.32
3.6
4.08
4.32
4.32
4.08
3.55
3.01
2.56
2.05
1.57
1.12
0.53
-0.16
-0.72
-1.25
-1.73
-2.24
-2.77
-3.2
-3.52
-3.73
-3.89
-4
-4.03
-4.13
-4.24
-4.27
-4.37
-4.4
-4.51
-4.61
-4.8
-4.93
-5.09
-5.2
-5.31
-5.47
-5.6
-5.71
-5.81
-5.92
-6
-6.05
-6.16
-6.19
-6.24
-6.24
-6.32
-6.32
-6.32
-6.21
-5.89
-4.64
-3.15
-1.6
-0.16
1.15
2.27
3.04
3.68
3.95
3.92
3.55
3.07
2.56
2.11
1.63
1.12
0.29
-0.35
-0.88
-1.41
-1.95
-2.4
-2.85
-3.33
-3.6
-3.79
-3.89
-4
-4
-4
-4
-4.08
-4.08
-4.16
-4.19
-4.29
-4.4
-4.51
-4.67
-4.88
-4.99
-5.09
-5.28
-5.39
-5.49
-5.6
-5.71
-5.81
-5.92
-6
-6.05
-6.08
-6.16
-6.16
-6.24
-6.24
-6.24
-6.08
-5.31
-4.24
-2.88
-1.28
0.21
1.92
3.44
4.08
4.4
4.53
4.48
4.24
3.63
3.09
2.64
2.03
1.23
0.64
0.11
-0.43
-0.96
-1.79
-2.37
-2.8
-3.12
-3.39
-3.6
-3.73
-3.89
-3.92
-3.92
-3.92
-3.92
-4
-4.05
-4.16
-4.27
-4.37
-4.56
-4.67
-4.77
-4.88
-5.01
-5.17
-5.28
-5.47
-5.57
-5.68
-5.79
-5.89
-6
-6.03
-6.08
-6.08
-6.16
-6.21
-6.24
-6.21
-6
-5.04
-3.79
-2.29
-0.72
1.44
2.99
3.92
4.45
4.77
4.72
4.53
4.16
3.76
3.31
2.77
2.24
1.41
0.77
0.24
-0.37
-1.17
-1.76
-2.19
-2.61
-2.96
-3.36
-3.57
-3.68
-3.76
-3.76
-3.76
-3.79
-3.84
-3.92
-3.95
-4.05
-4.16
-4.27
-4.43
-4.56
-4.77
-4.93
-5.12
-5.23
-5.33
-5.52
-5.63
-5.73
-5.84
-5.92
-5.97
-6.08
-6.08
-6.08
-6.16
-6.19
-6.19
-6
-5.47
-4.61
-3.36
-1.76
-0.21
1.6
3.31
4.11
4.56
4.69
4.69
4.48
4.05
3.57
2.88
2.27
1.73
1.2
0.67
0.13
-0.4
-1.23
-1.87
-2.32
-2.77
-3.25
-3.52
-3.71
-3.81
-3.92
-3.92
-3.92
-3.92
-3.92
-3.97
-4
-4.11
-4.21
-4.32
-4.43
-4.59
-4.8
-4.91
-5.07
-5.2
-5.6
-5.87
-6
-6.03
-6.08
-6.16
-6.16
-6.21
-6.24
-6.24
-6.24
-6.16
-5.84
-5.15
-4
-2.64
-0.67
1.68
2.77
3.68
4.4
4.64
4.8
4.56
4.29
3.87
3.36
2.61
1.97
1.52
0.99
0.45
-0.08
-0.67
-1.41
-2
-2.43
-2.8
-3.12
-3.52
-3.73
-3.84
-3.92
-3.92
-3.92
-3.92
-3.92
-4
-4.11
-4.21
-4.32
-4.43
-4.53
-4.64
-4.77
-4.99
-5.12
-5.25
-5.47
-5.6
-5.68
-5.73
-5.76
-5.87
-5.92
-6
-6.03
-6.08
-6.16
-6.16
-6.16
-6.08
-5.63
-4.88
-3.12
-1.12
0.48
1.76
2.93
3.79
4.72
4.75
4.69
4.48
4.16
3.73
3.04
2.43
1.89
1.36
0.64
0.05
-0.48
-1.01
-1.55
-2
-2.45
-2.99
-3.28
-3.49
-3.65
-3.76
-3.84
-3.84
-3.84
-3.92
-3.97
-4
-4.11
-4.21
-4.32
-4.51
-4.67
-4.8
-4.99
-5.09
-5.2
-5.41
-5.57
-5.68
-5.79
-5.89
-5.92
-6
-6.05
-6.08
-6.16
-6.16
-6.24
-6.24
-6.24
-6.24
-6.05
-5.25
-4.08
-2.56
-0.96
1.04
2.88
3.84
4.4
4.83
4.83
4.72
4.4
3.97
3.52
3.01
2.53
1.84
1.15
0.67
0.16
-0.59
-1.23
-1.68
-2.19
-2.56
-3.04
-3.41
-3.57
-3.68
-3.79
-3.84
-3.92
-3.92
-3.97
-4
-4.11
-4.21
-4.32
-4.45
-4.61
-4.72
-4.93
-5.09
-5.2
-5.39
-5.49
-5.52
-5.63
-5.73
-5.84
-5.87
-5.92
-5.92
-5.92
-5.92
-5.92
-5.95
-6
-6
-5.87
-5.6
-4.88
-3.79
-1.92
0.4
1.71
2.88
3.84
4.59
4.75
4.64
4.48
4
3.36
2.85
2.37
1.92
1.39
0.85
0.16
-0.53
-1.07
-1.6
-2.03
-2.56
-3.12
-3.41
-3.63
-3.84
-4.03
-4.08
-4.08
-4.11
-4.16
-4.16
-4.24
-4.29
-4.4
-4.53
-4.75
-4.96
-5.09
-5.25
-5.36
-5.57
-5.73
-5.84
-5.92
-5.97
-6.08
-6.16
-6.16
-6.24
-6.24
-6.4
-6.64
-6.64
-6.64
-6.64
-6.37
-5.63
-4.56
-3.28
-1.68
-0.24
1.15
2.32
3.6
3.92
4.08
3.84
3.57
3.2
2.72
2.27
1.63
0.88
0.35
-0.19
-0.72
-1.23
-1.71
-2.24
-2.72
-3.31
-3.6
-3.89
-4.05
-4.16
-4.16
-4.16
-4.16
-4.16
-4.16
-4.24
-4.27
-4.32
-4.4
-4.59
-4.75
-4.88
-5.01
-5.23
-5.36
-5.47
-5.57
-5.68
-5.79
-5.89
-5.92
-5.92
-5.97
-6
-6.08
-6.08
-6.16
-6.19
-6.29
-6.32
-6.32
-6.16
-5.84
-4.75
-2.88
-1.2
0.35
1.73
2.8
3.65
4.13
4.56
4.37
4.16
3.6
2.99
2.51
2
1.47
0.93
0.4
-0.45
-1.15
-1.68
-2.19
-2.61
-2.96
-3.31
-3.68
-3.84
-3.95
-4
-4
-4
-4
-4.08
-4.11
-4.16
-4.24
-4.27
-4.37
-4.56
-4.75
-4.91
-5.04
-5.25
-5.41
-5.52
-5.63
-5.73
-5.84
-5.92
-5.92
-5.92
-6
-6.05
-6.08
-6.11
-6.16
-6.16
-6.16
-6.05
-5.84
-5.09
-4.03
-2.64
-0.88
1.41
2.8
3.76
4.45
4.8
4.93
4.72
4.48
4.05
3.57
2.88
2.16
1.57
1.04
0.51
-0.19
-0.96
-1.49
-2.03
-2.48
-2.88
-3.2
-3.52
-3.71
-3.76
-3.84
-3.84
-3.84
-3.84
-3.84
-3.89
-4
-4.03
-4.13
-4.24
-4.35
-4.45
-4.64
-4.83
-4.99
-5.12
-5.23
-5.33
-5.44
-5.55
-5.6
-5.68
-5.68
-5.73
-5.76
-5.84
-5.84
-5.84
-5.92
-5.92
-5.68
-5.23
-3.89
-2
-0.37
1.17
2.56
3.52
4.53
4.96
5.07
4.91
4.64
4.35
3.71
3.04
2.53
2.05
1.28
0.56
-0.03
-0.56
-1.09
-1.63
-2.16
-2.69
-3.12
-3.44
-3.63
-3.73
-3.84
-3.92
-3.92
-3.92
-3.92
-3.97
-4
-4.11
-4.21
-4.4
-4.53
-4.69
-4.8
-4.93
-5.09
-5.2
-5.39
-5.49
-5.52
-5.63
-5.68
-5.76
-5.79
-5.84
-5.84
-5.92
-5.92
-5.92
-6
-6
-5.92
-5.17
-2.77
-0.96
0.59
2.08
3.76
4.29
4.67
4.88
4.69
4.32
3.92
3.49
3.07
2.56
2.03
1.39
0.64
0.11
-0.43
-0.88
-1.41
-1.89
-2.48
-2.96
-3.28
-3.52
-3.63
-3.73
-3.76
-3.76
-3.81
-3.92
-3.92
-3.92
-4
-4.11
-4.21
-4.32
-4.51
-4.61
-4.8
-4.99
-5.09
-5.28
-5.39
-5.49
-5.6
-5.71
-5.81
-5.84
-5.95
-6
-6.08
-6.11
-6.16
-6.16
-6.24
-6.24
-6.16
-5.81
-5.17
-4.24
-2.53
-0.13
1.44
2.72
3.68
4.64
4.77
4.83
4.72
4.32
3.73
3.2
2.75
2.27
1.76
1.31
0.67
-0.08
-0.61
-1.15
-1.6
-2.08
-2.67
-3.04
-3.25
-3.47
-3.6
-3.68
-3.73
-3.76
-3.76
-3.81
-3.92
-3.95
-4.05
-4.16
-4.35
-4.51
-4.64
-4.75
-4.91
-5.12
-5.23
-5.33
-5.44
-5.55
-5.65
-5.76
-5.84
-5.89
-5.92
-5.95
-6
-6.08
-6.08
-6.08
-6.08
-5.95
-5.52
-4.88
-3.6
-2.16
-0.56
0.93
2.8
3.84
4.48
4.69
4.88
4.59
4.27
3.92
3.49
3.01
2.56
1.97
1.23
0.64
0.19
-0.45
-1.2
-1.71
-2.13
-2.64
-3.01
-3.23
-3.36
-3.47
-3.57
-3.68
-3.68
-3.73
-3.76
-3.84
-3.89
-4.08
-4.21
-4.37
-4.48
-4.69
-4.85
-4.96
-5.15
-5.25
-5.36
-5.47
-5.57
-5.68
-5.71
-5.76
-5.84
-5.92
-5.92
-5.92
-6.03
-6.08
-6.08
-6.05
-5.95
-5.6
-4.21
-2.77
-1.2
0.32
1.71
2.96
3.73
4.59
4.8
4.83
4.45
4
3.49
3.01
2.56
1.97
1.28
0.72
0.27
-0.21
-0.72
-1.25
-1.84
-2.4
-2.8
-3.07
-3.36
-3.55
-3.65
-3.76
-3.79
-3.84
-3.84
-3.92
-3.97
-4.08
-4.19
-4.29
-4.48
-4.69
-4.85
-4.96
-5.17
-5.33
-5.44
-5.55
-5.65
-5.76
-5.87
-5.92
-6
-6.03
-6.08
-6.16
-6.16
-6.21
-6.24
-6.32
-6.27
-6
-5.55
-4.69
-3.44
-1.2
0.56
1.84
3.55
4.45
4.64
4.37
4
3.6
3.15
2.51
1.76
1.25
0.77
0.24
-0.35
-1.09
-1.68
-2.19
-2.56
-2.96
-3.25
-3.52
-3.76
-3.87
-3.97
-4
-4
-4
-4.08
-4.11
-4.21
-4.32
-4.43
-4.53
-4.64
-4.83
-4.93
-5.12
-5.31
-5.41
-5.52
-5.71
-5.81
-5.92
-5.92
-5.97
-6.08
-6.08
-6.08
-6.16
-6.16
-6.16
-6.24
-6.24
-6.13
-5.84
-4.85
-3.15
-1.6
-0.19
1.04
2
2.99
3.57
3.76
3.68
3.52
3.28
2.8
2.16
1.6
1.15
0.51
-0.24
-0.77
-1.31
-1.84
-2.35
-2.77
-3.2
-3.57
-3.79
-3.92
-4.03
-4.08
-4.08
-4.08
-4.08
-4.08
-4.11
-4.16
-4.24
-4.35
-4.51
-4.64
-4.75
-4.85
-4.96
-5.15
-5.25
-5.44
-5.55
-5.6
-5.68
-5.79
-5.89
-5.92
-6
-6
-6
-6.11
-6.16
-6.16
-6.16
-6.11
-5.84
-4.64
-3.31
-1.84
-0.35
0.99
2.32
3.47
3.89
4.08
3.97
3.76
3.44
3.04
2.61
2.16
1.57
0.83
0.24
-0.29
-0.83
-1.36
-2.08
-2.61
-2.96
-3.28
-3.55
-3.76
-3.92
-3.92
-4
-4
-4
-4
-4.08
-4.13
-4.16
-4.29
-4.45
-4.56
-4.69
-4.85
-5.04
-5.23
-5.39
-5.52
-5.63
-5.73
-5.84
-5.95
-6
-6.08
-6.16
-6.21
-6.24
-6.24
-6.29
-6.32
-6.37
-6.21
-5.68
-4.88
-3.6
-2.16
0
1.6
2.64
3.31
3.79
3.92
4.03
3.81
3.44
3.09
2.67
2.24
1.52
0.93
0.48
-0.11
-0.8
-1.36
-1.79
-2.21
-2.64
-3.07
-3.39
-3.6
-3.71
-3.81
-3.92
-3.95
-4
-4
-4.03
-4.13
-4.24
-4.35
-4.45
-4.56
-4.69
-4.91
-5.12
-5.23
-5.33
-5.52
-5.71
-5.81
-5.92
-6
-6.05
-6.16
-6.27
-6.32
-6.4
-6.43
-6.48
-6.48
-6.45
-6.19
-5.68
-4.4
-2.43
-0.96
0.32
1.33
2.08
2.72
3.04
3.12
2.93
2.72
2.24
1.81
1.44
1.04
0.53
-0.27
-1.04
-1.55
-1.97
-2.32
-2.77
-3.25
-3.52
-3.73
-3.89
-4
-4.11
-4.16
-4.16
-4.24
-4.29
-4.4
-4.43
-4.53
-4.64
-4.75
-4.91
-5.04
-5.23
-5.33
-5.44
-5.65
-5.81
-5.92
-6.03
-6.08
-6.16
-6.35
-6.45
-6.48
-6.56
-6.56
-6.64
-6.64
-6.64
-6.4
-5.97
-4.75
-2.96
-1.57
-0.35
0.8
1.55
2.35
2.64
2.77
2.67
2.48
2.05
1.68
1.36
0.96
0.59
0.08
-0.43
-0.85
-1.28
-1.63
-2.05
-2.48
-2.99
-3.31
-3.52
-3.73
-3.89
-4
-4
-4
-4
-4.08
-4.13
-4.16
-4.24
-4.29
-4.48
-4.59
-4.69
-4.88
-4.99
-5.15
-5.36
-5.47
-5.57
-5.68
-5.79
-5.89
-6
-6.11
-6.16
-6.24
-6.32
-6.32
-6.32
-6.4
-6.29
-5.6
-4.64
-3.31
-1.92
-0.51
0.77
2.24
2.77
3.09
3.28
3.23
3.01
2.72
2.45
2.08
1.68
1.15
0.67
0.32
-0.08
-0.51
-1.12
-1.71
-2.08
-2.4
-2.69
-2.96
-3.28
-3.39
-3.49
-3.52
-3.6
-3.6
-3.6
-3.63
-3.73
-3.84
-3.95
-4.05
-4.16
-4.35
-4.45
-4.64
-4.83
-4.93
-5.12
-5.23
-5.39
-5.52
-5.63
-5.73
-5.76
-5.87
-5.97
-6.08
-6.11
-6.16
-6.16
-6.05
-5.73
-5.2
-4
-2.61
-1.12
0.35
2.05
2.96
3.52
3.73
3.92
3.73
3.52
3.28
2.91
2.37
1.92
1.57
1.2
0.8
0.16
-0.37
-0.8
-1.23
-1.6
-2.08
-2.48
-2.75
-2.88
-2.99
-3.09
-3.2
-3.2
-3.25
-3.28
-3.39
-3.49
-3.6
-3.73
-3.95
-4.16
-4.37
-4.59
-4.72
-4.91
-5.07
-5.28
-5.39
-5.49
-5.6
-5.71
-5.81
-5.92
-6
-6.05
-6.08
-6.19
-6.24
-6.24
-6.08
-5.76
-4.96
-3.01
-1.25
0.24
1.44
2.45
3.28
3.95
4.11
4
3.84
3.41
2.96
2.56
2.19
1.76
1.28
0.64
0.16
-0.29
-0.77
-1.2
-1.63
-2.11
-2.56
-2.77
-2.99
-3.28
-3.52
-3.52
-3.6
-3.63
-3.73
-3.84
-3.95
-4.05
-4.16
-4.29
-4.51
-4.72
-4.85
-5.01
-5.2
-5.39
-5.49
-5.6
-5.71
-5.81
-6
-6.11
-6.16
-6.24
-6.35
-6.45
-6.48
-6.48
-6.53
-6.56
-6.21
-5.41
-4.24
-2.85
-1.41
-0.16
1.33
2.29
2.8
2.91
2.91
2.64
2.4
2.08
1.68
1.25
0.72
0.08
-0.35
-0.83
-1.28
-1.84
-2.48
-2.96
-3.28
-3.55
-3.84
-4.05
-4.21
-4.24
-4.24
-4.24
-4.32
-4.32
-4.32
-4.4
-4.43
-4.59
-4.72
-4.83
-4.99
-5.12
-5.33
-5.49
-5.68
-5.79
-5.89
-6
-6.19
-6.29
-6.32
-6.4
-6.45
-6.56
-6.59
-6.64
-6.72
-6.75
-6.8
-6.8
-6.69
-6.43
-5.92
-4.53
-2.45
-0.88
0.4
1.36
2.08
2.61
2.88
2.88
2.67
2.4
1.92
1.41
0.99
0.56
0.13
-0.4
-1.04
-1.55
-1.97
-2.4
-2.85
-3.33
-3.6
-3.81
-3.97
-4.08
-4.16
-4.21
-4.24
-4.24
-4.24
-4.32
-4.35
-4.45
-4.56
-4.67
-4.83
-4.96
-5.15
-5.31
-5.44
-5.57
-5.73
-5.92
-6.03
-6.13
-6.24
-6.32
-6.37
-6.48
-6.56
-6.61
-6.72
-6.75
-6.8
-6.88
-6.88
-6.83
-6.72
-6.19
-5.33
-4.16
-2.51
-0.37
0.8
1.65
2.19
2.48
2.48
2.37
2.16
1.84
1.47
0.96
0.45
0.08
-0.32
-0.75
-1.28
-1.84
-2.27
-2.69
-3.04
-3.39
-3.76
-4
-4.11
-4.21
-4.24
-4.24
-4.24
-4.24
-4.32
-4.37
-4.48
-4.51
-4.61
-4.72
-4.83
-4.99
-5.2
-5.31
-5.41
-5.52
-5.65
-5.81
-5.92
-6.03
-6.08
-6.16
-6.24
-6.29
-6.32
-6.32
-6.37
-6.48
-6.51
-6.56
-6.64
-6.64
-6.59
-6.24
-4.93
-3.49
-2
-0.56
1.04
1.84
2.29
2.51
2.48
2.27
2
1.68
1.28
0.91
0.4
-0.03
-0.4
-0.8
-1.15
-1.68
-2.24
-2.64
-2.96
-3.28
-3.52
-3.84
-4
-4.08
-4.08
-4.16
-4.13
-4.19
-4.32
-4.4
-4.45
-4.56
-4.67
-4.77
-4.96
-5.07
-5.23
-5.36
-5.47
-5.63
-5.76
-5.87
-5.92
-6
-6.03
-6.08
-6.16
-6.24
-6.29
-6.32
-6.4
-6.45
-6.56
-6.56
-6.56
-6.4
-6.05
-4.77
-2.96
-1.47
-0.19
0.96
1.68
2.37
2.56
2.59
2.43
2.16
1.65
1.23
0.88
0.48
0.11
-0.4
-0.88
-1.2
-1.6
-2.03
-2.4
-2.72
-3.15
-3.47
-3.68
-3.79
-3.89
-3.92
-3.92
-3.92
-3.92
-3.92
-3.97
-4.08
-4.16
-4.27
-4.48
-4.61
-4.77
-4.88
-4.99
-5.15
-5.36
-5.47
-5.57
-5.68
-5.79
-5.89
-6
-6.03
-6.08
-6.16
-6.27
-6.37
-6.4
-6.48
-6.53
-6.64
-6.64
-6.59
-6.24
-5.57
-4.03
-2
-0.61
0.56
1.52
2.03
2.51
2.56
2.43
2.21
1.92
1.39
0.91
0.56
0.24
-0.13
-0.64
-1.07
-1.44
-1.84
-2.19
-2.61
-3.04
-3.33
-3.55
-3.68
-3.79
-3.89
-3.92
-3.92
-3.92
-3.92
-3.92
-3.97
-4
-4.11
-4.27
-4.48
-4.61
-4.77
-4.96
-5.07
-5.23
-5.36
-5.47
-5.57
-5.68
-5.79
-5.89
-6
-6.03
-6.08
-6.16
-6.27
-6.37
-6.4
-6.4
-6.45
-6.48
-6.43
-6.21
-5.6
-4.64
-2.93
-0.8
0.37
1.28
2
2.29
2.51
2.4
2.24
1.92
1.6
1.07
0.64
0.32
0
-0.32
-0.8
-1.23
-1.6
-2
-2.32
-2.69
-3.12
-3.33
-3.49
-3.6
-3.71
-3.76
-3.76
-3.68
-3.68
-3.76
-3.84
-3.89
-3.92
-4.11
-4.21
-4.32
-4.53
-4.75
-4.88
-5.01
-5.23
-5.36
-5.47
-5.57
-5.68
-5.79
-5.89
-6
-6.03
-6.08
-6.16
-6.27
-6.37
-6.4
-6.48
-6.48
-6.32
-5.87
-5.01
-3.84
-2.45
-0.85
0.96
1.63
2.16
2.48
2.43
2.27
2
1.65
1.28
0.96
0.43
0
-0.32
-0.64
-0.96
-1.44
-1.95
-2.32
-2.72
-3.01
-3.28
-3.6
-3.79
-3.89
-3.92
-3.92
-3.92
-3.92
-3.89
-4.05
-4.16
-4.35
-4.51
-4.64
-4.83
-4.99
-5.2
-5.41
-5.57
-5.68
-5.79
-5.89
-6
-6.08
-6.13
-6.16
-6.27
-6.32
-6.4
-6.51
-6.56
-6.64
-6.75
-6.85
-6.88
-6.77
-6.45
-5.28
-3.81
-2.37
-1.12
0.05
0.91
1.76
1.87
1.87
1.76
1.39
0.91
0.48
0.13
-0.29
-0.64
-1.17
-1.65
-2
-2.43
-2.85
-3.2
-3.55
-3.92
-4.16
-4.27
-4.37
-4.4
-4.37
-4.32
-4.24
-4.24
-4.24
-4.32
-4.35
-4.4
-4.48
-4.69
-4.91
-5.04
-5.15
-5.31
-5.52
-5.71
-5.81
-5.92
-6.03
-6.13
-6.24
-6.35
-6.45
-6.48
-6.59
-6.64
-6.72
-6.83
-6.88
-6.96
-7.04
-7.04
-6.96
-6.53
-5.79
-4.08
-2.21
-0.77
0.4
1.36
1.95
2.48
2.4
2.29
2.08
1.71
1.17
0.72
0.29
-0.08
-0.48
-1.01
-1.49
-1.84
-2.27
-2.64
-2.96
-3.31
-3.68
-3.84
-3.95
-4
-4
-3.97
-3.92
-3.92
-3.92
-3.92
-4
-4.03
-4.13
-4.24
-4.45
-4.61
-4.72
-4.91
-5.01
-5.2
-5.39
-5.49
-5.6
-5.63
-5.79
-5.92
-6
-6.05
-6.08
-6.19
-6.29
-6.4
-6.51
-6.56
-6.64
-6.51
-6.08
-5.44
-4.13
-2.64
-0.56
1.39
2.45
3.12
3.65
3.81
3.92
3.63
3.36
3.04
2.59
2.05
1.6
1.25
0.88
0.48
-0.13
-0.61
-0.96
-1.36
-1.68
-2.08
-2.37
-2.53
-2.64
-2.72
-2.72
-2.72
-2.72
-2.77
-2.8
-2.91
-3.01
-3.12
-3.23
-3.33
-3.52
-3.73
-3.95
-4.08
-4.27
-4.37
-4.56
-4.75
-4.85
-4.96
-5.07
-5.23
-5.36
-5.47
-5.57
-5.6
-5.71
-5.81
-5.92
-6
-6
-5.76
-4.69
-3.47
-2
-0.4
1.04
2.64
4.05
4.64
4.96
5.09
4.88
4.64
4.32
3.95
3.6
3.15
2.61
2.16
1.81
1.39
0.88
0.27
-0.21
-0.64
-0.96
-1.28
-1.6
-1.79
-1.84
-1.92
-1.95
-2
-2
-2.08
-2.13
-2.16
-2.48
-2.75
-2.96
-3.09
-3.31
-3.52
-3.73
-3.95
-4.08
-4.27
-4.37
-4.56
-4.75
-4.85
-4.96
-5.07
-5.17
-5.28
-5.39
-5.49
-5.52
-5.63
-5.68
-5.44
-4.88
-3.92
-2.56
-0.29
1.52
2.8
3.76
4.51
5.04
5.44
5.44
5.2
4.96
4.53
4
3.6
3.23
2.88
2.4
1.81
1.28
0.85
0.43
0
-0.53
-0.96
-1.2
-1.39
-1.49
-1.6
-1.71
-1.76
-1.76
-1.79
-1.89
-2
-2.11
-2.21
-2.32
-2.56
-2.83
-3.04
-3.17
-3.39
-3.6
-3.81
-4.03
-4.16
-4.27
-4.37
-4.56
-4.67
-4.77
-4.88
-4.99
-5.09
-5.2
-5.31
-5.41
-5.44
-5.36
-5.04
-4.32
-3.25
-1.87
-0.4
1.65
3.15
4.08
4.64
5.07
5.12
5.07
4.85
4.56
4.21
3.73
3.2
2.77
2.35
2
1.49
0.8
0.32
-0.11
-0.53
-0.96
-1.39
-1.71
-1.92
-2.03
-2.13
-2.24
-2.35
-2.4
-2.48
-2.59
-2.75
-2.88
-3.07
-3.23
-3.36
-3.6
-3.87
-4.08
-4.29
-4.45
-4.64
-4.83
-4.99
-5.12
-5.2
-5.25
-5.44
-5.55
-5.6
-5.68
-5.79
-5.89
-6
-6.08
-6.13
-6.16
-6.11
-5.84
-5.12
-4.13
-2.75
-1.28
0.77
2.32
3.28
3.84
4.27
4.4
4.43
4.21
3.92
3.57
3.04
2.48
2.08
1.71
1.36
0.88
0.24
-0.24
-0.69
-1.17
-1.52
-1.95
-2.27
-2.48
-2.67
-2.77
-2.88
-2.99
-3.04
-3.12
-3.15
-3.31
-3.44
-3.63
-3.79
-3.92
-4.13
-4.35
-4.56
-4.69
-4.85
-5.04
-5.23
-5.33
-5.44
-5.55
-5.65
-5.76
-5.87
-5.92
-6
-6.03
-6.13
-6.24
-6.32
-6.37
-6.4
-6.19
-5.6
-4.64
-3.41
-2.03
-0.72
0.91
2.08
2.72
2.96
3.12
3.2
2.93
2.56
2.24
1.89
1.41
0.88
0.48
0.11
-0.24
-0.72
-1.31
-1.76
-2.16
-2.48
-2.8
-3.2
-3.47
-3.6
-3.71
-3.81
-3.84
-3.87
-3.92
-4
-4.11
-4.27
-4.4
-4.8
-5.07
-5.2
-5.33
-5.55
-5.68
-5.79
-5.89
-6
-6.11
-6.16
-6.16
-6.27
-6.37
-6.48
-6.51
-6.56
-6.64
-6.64
-6.69
-6.72
-6.8
-6.75
-6.56
-5.81
-4.43
-3.12
-1.89
-0.77
0.08
0.93
1.47
1.68
1.6
1.49
1.12
0.8
0.48
0.08
-0.24
-0.67
-1.12
-1.52
-1.89
-2.24
-2.69
-3.17
-3.52
-3.73
-3.89
-4.08
-4.19
-4.24
-4.24
-4.24
-4.29
-4.4
-4.43
-4.48
-4.56
-4.67
-4.83
-4.96
-5.07
-5.17
-5.28
-5.41
-5.57
-5.68
-5.79
-5.89
-6
-6.11
-6.21
-6.24
-6.35
-6.45
-6.56
-6.59
-6.64
-6.72
-6.75
-6.85
-6.88
-6.88
-6.88
-6.8
-6.16
-4.88
-3.6
-2.35
-1.17
-0.24
0.64
1.23
1.44
1.36
1.25
0.88
0.56
0.24
-0.08
-0.43
-0.91
-1.36
-1.76
-2.13
-2.48
-2.88
-3.2
-3.6
-3.97
-4.13
-4.32
-4.43
-4.48
-4.48
-4.48
-4.48
-4.48
-4.51
-4.56
-4.64
-4.67
-4.83
-5.04
-5.15
-5.25
-5.36
-5.49
-5.71
-5.84
-5.95
-6
-6.08
-6.19
-6.29
-6.32
-6.4
-6.45
-6.56
-6.59
-6.64
-6.72
-6.8
-6.85
-6.88
-6.96
-6.96
-6.96
-6.45
-5.39
-4.16
-2.77
-1.39
-0.24
1.04
1.84
2.16
2.19
2.13
1.76
1.41
1.04
0.64
0.29
-0.19
-0.64
-1.04
-1.41
-1.76
-2.21
-2.75
-3.12
-3.41
-3.63
-3.84
-4.03
-4.13
-4.16
-4.16
-4.16
-4.16
-4.19
-4.24
-4.32
-4.35
-4.51
-4.64
-4.75
-4.85
-4.96
-5.09
-5.31
-5.44
-5.55
-5.65
-5.76
-5.87
-5.97
-6
-6.11
-6.21
-6.32
-6.35
-6.4
-6.48
-6.51
-6.61
-6.72
-6.72
-6.72
-6.72
-6.19
-5.01
-3.68
-2.21
-0.83
0.32
1.6
2.35
2.64
2.67
2.61
2.24
1.81
1.44
1.04
0.72
0.29
-0.24
-0.64
-1.01
-1.36
-1.81
-2.35
-2.72
-3.04
-3.31
-3.52
-3.71
-3.81
-3.84
-3.84
-3.84
-3.84
-3.79
-3.84
-4
-4.19
-4.35
-4.48
-4.67
-4.77
-4.88
-5.09
-5.25
-5.36
-5.39
-5.49
-5.6
-5.71
-5.81
-5.84
-5.92
-5.97
-6.08
-6.11
-6.21
-6.32
-6.35
-6.4
-6.4
-5.97
-5.28
-4.32
-2.77
-0.69
0.64
1.6
2.29
2.64
2.77
2.77
2.56
2.24
1.92
1.44
0.93
0.56
0.16
-0.16
-0.59
-1.12
-1.44
-1.81
-2.16
-2.51
-2.88
-3.12
-3.31
-3.36
-3.44
-3.44
-3.44
-3.44
-3.44
-3.49
-3.6
-3.63
-3.68
-3.76
-3.89
-4.11
-4.32
-4.43
-4.59
-4.72
-4.91
-5.01
-5.12
-5.23
-5.33
-5.44
-5.55
-5.65
-5.68
-5.76
-5.81
-5.92
-6.03
-6.08
-6.16
-6.13
-5.76
-5.04
-3.84
-2.45
-0.96
0.37
1.92
2.72
3.15
3.31
3.28
2.99
2.72
2.48
2.08
1.71
1.2
0.8
0.48
0.16
-0.19
-0.67
-1.2
-1.6
-1.92
-2.16
-2.45
-2.67
-2.8
-2.91
-2.96
-2.96
-2.93
-2.93
-2.96
-3.04
-3.09
-3.2
-3.33
-3.49
-3.68
-3.79
-3.95
-4.16
-4.35
-4.51
-4.64
-4.77
-4.93
-5.04
-5.15
-5.25
-5.36
-5.47
-5.57
-5.6
-5.68
-5.73
-5.84
-5.92
-5.92
-5.68
-5.12
-3.68
-1.68
-0.19
1.15
2.32
3.09
3.95
4.24
4.29
4.19
3.92
3.41
3.04
2.72
2.32
2
1.52
1.12
0.8
0.4
-0.03
-0.4
-0.72
-1.23
-1.55
-1.76
-1.95
-2.05
-2.16
-2.19
-2.24
-2.24
-2.32
-2.37
-2.4
-2.51
-2.67
-2.88
-3.09
-3.25
-3.44
-3.63
-3.84
-4.08
-4.19
-4.35
-4.48
-4.61
-4.77
-4.88
-4.91
-4.96
-5.04
-5.15
-5.25
-5.36
-5.44
-5.44
-5.12
-4.45
-3.39
-2
-0.53
1.12
3.04
3.81
4.45
4.88
4.93
4.83
4.56
4.29
3.92
3.52
2.99
2.56
2.24
1.84
1.47
0.96
0.45
0.03
-0.4
-0.72
-1.09
-1.52
-1.71
-1.81
-1.92
-2.03
-2.08
-2.08
-2.11
-2.16
-2.24
-2.43
-2.59
-2.72
-2.93
-3.25
-3.6
-3.81
-4.03
-4.24
-4.37
-4.59
-4.72
-4.83
-4.93
-5.04
-5.15
-5.25
-5.36
-5.47
-5.52
-5.6
-5.6
-5.39
-4.96
-4
-2.83
-0.96
0.91
1.97
2.8
3.44
3.76
4.08
3.89
3.68
3.44
2.99
2.45
2
1.65
1.28
0.88
0.24
-0.29
-0.72
-1.15
-1.52
-1.92
-2.29
-2.45
-2.56
-2.67
-2.72
-2.72
-2.72
-2.77
-2.8
-2.91
-3.01
-3.12
-3.25
-3.41
-3.6
-3.81
-4.03
-4.16
-4.35
-4.51
-4.72
-4.85
-5.01
-5.12
-5.23
-5.33
-5.44
-5.55
-5.65
-5.76
-5.84
-5.89
-6
-6.08
-6.03
-5.68
-4.48
-3.15
-1.68
-0.27
1.01
2.24
3.36
3.73
3.92
3.95
3.63
3.28
2.88
2.51
2.08
1.6
1.01
0.56
0.11
-0.37
-0.8
-1.41
-1.84
-2.16
-2.45
-2.67
-2.8
-2.91
-2.96
-2.96
-2.99
-3.04
-3.04
-3.12
-3.17
-3.28
-3.41
-3.63
-3.84
-3.95
-4.05
-4.24
-4.53
-4.75
-4.88
-4.99
-5.09
-5.28
-5.39
-5.49
-5.6
-5.71
-5.81
-5.92
-6
-6.05
-6.16
-6.24
-6.19
-5.84
-5.28
-4.27
-2.88
-0.64
1.07
2.32
3.17
3.81
4.16
4.35
4.19
3.92
3.57
3.04
2.48
2.08
1.71
1.28
0.77
0.08
-0.4
-0.83
-1.25
-1.68
-2.19
-2.51
-2.72
-2.83
-2.93
-3.04
-3.04
-3.04
-3.12
-3.15
-3.25
-3.28
-3.39
-3.55
-3.68
-3.89
-4.11
-4.32
-4.45
-4.61
-4.8
-4.99
-5.09
-5.2
-5.31
-5.41
-5.52
-5.63
-5.73
-5.84
-5.87
-5.97
-6
-6.11
-6.16
-6.16
-5.95
-5.36
-4.32
-2.99
-1.49
-0.08
1.76
3.09
3.84
4.16
4.32
4.16
4
3.68
3.28
2.93
2.4
1.76
1.36
0.99
0.56
0
-0.64
-1.2
-1.63
-2
-2.32
-2.64
-2.91
-3.04
-3.12
-3.17
-3.28
-3.28
-3.28
-3.36
-3.47
-3.63
-3.76
-3.87
-4.03
-4.16
-4.37
-4.59
-4.8
-4.93
-5.09
-5.2
-5.63
-5.89
-6
-6.08
-6.13
-6.24
-6.24
-6.24
-6.32
-6.35
-6.45
-6.48
-6.45
-6.19
-5.68
-4.48
-2.51
-0.96
0.43
1.55
2.4
3.15
3.57
3.68
3.49
3.28
2.8
2.37
2
1.6
1.28
0.8
0.24
-0.16
-0.53
-0.96
-1.39
-1.81
-2.24
-2.61
-2.83
-3.04
-3.23
-3.28
-3.28
-3.28
-3.33
-3.44
-3.47
-3.57
-3.68
-3.79
-3.89
-4.08
-4.29
-4.51
-4.64
-4.85
-5.01
-5.2
-5.31
-5.41
-5.52
-5.63
-5.73
-5.84
-5.92
-5.97
-6.08
-6.19
-6.24
-6.32
-6.43
-6.53
-6.56
-6.56
-6.45
-6.24
-5.36
-3.71
-2.16
-0.72
0.56
1.52
2.59
3.17
3.36
3.28
3.17
2.8
2.45
2.08
1.76
1.41
0.93
0.48
0.08
-0.29
-0.72
-1.12
-1.49
-1.92
-2.32
-2.59
-2.8
-3.01
-3.17
-3.2
-3.2
-3.2
-3.28
-3.31
-3.36
-3.44
-3.55
-3.71
-3.92
-4.03
-4.19
-4.32
-4.45
-4.67
-4.8
-4.91
-5.01
-5.12
-5.31
-5.41
-5.44
-5.52
-5.57
-5.68
-5.79
-5.84
-5.92
-6.03
-6.13
-6.16
-6.24
-6.24
-6.24
-5.73
-4.67
-3.36
-1.97
-0.53
0.72
2.11
3.01
3.44
3.55
3.55
3.28
3.04
2.72
2.32
1.97
1.49
1.04
0.64
0.27
-0.08
-0.56
-1.15
-1.6
-1.92
-2.19
-2.48
-2.77
-2.93
-2.96
-3.04
-3.04
-3.12
-3.15
-3.2
-3.28
-3.33
-3.55
-3.68
-3.87
-4.03
-4.16
-4.37
-4.59
-4.72
-4.83
-4.93
-5.04
-5.25
-5.41
-5.44
-5.55
-5.65
-5.76
-5.79
-5.89
-6
-6.03
-6.08
-6.08
-6.16
-6.16
-6.16
-5.89
-5.15
-4.08
-2.75
-1.25
0
1.6
2.67
3.28
3.6
3.71
3.52
3.36
3.04
2.64
2.32
1.89
1.36
0.96
0.59
0.24
-0.21
-0.75
-1.2
-1.6
-1.92
-2.24
-2.56
-2.77
-2.88
-2.99
-3.04
-3.12
-3.15
-3.2
-3.28
-3.31
-3.47
-3.6
-3.71
-3.87
-4
-4.21
-4.43
-4.64
-4.83
-5.2
-5.36
-5.47
-5.57
-5.6
-5.68
-5.73
-5.84
-5.87
-5.92
-6
-6.03
-6.13
-6.16
-6.24
-6.19
-6.08
-5.44
-4.16
-2.8
-1.44
-0.16
0.88
1.97
2.67
2.96
2.96
2.85
2.64
2.27
1.79
1.44
1.09
0.61
0.08
-0.32
-0.69
-1.12
-1.52
-1.89
-2.4
-2.8
-3.07
-3.28
-3.47
-3.57
-3.6
-3.6
-3.65
-3.68
-3.71
-3.81
-3.92
-3.97
-4.19
-4.32
-4.51
-4.67
-4.8
-4.93
-5.15
-5.36
-5.47
-5.52
-5.6
-5.79
-5.89
-5.92
-6
-6.05
-6.16
-6.19
-6.24
-6.32
-6.35
-6.45
-6.48
-6.56
-6.51
-6.4
-5.68
-4.4
-3.12
-1.87
-0.69
0.16
1.04
1.57
1.76
1.68
1.57
1.2
0.88
0.56
0.24
-0.11
-0.48
-0.8
-1.33
-1.81
-2.16
-2.61
-3.09
-3.44
-3.65
-3.81
-3.92
-4.11
-4.16
-4.16
-4.13
-4.08
-4.08
-4.19
-4.24
-4.32
-4.43
-4.59
-4.72
-4.91
-5.01
-5.12
-5.33
-5.49
-5.6
-5.71
-5.81
-5.92
-6
-6.05
-6.16
-6.24
-6.29
-6.4
-6.43
-6.48
-6.56
-6.59
-6.69
-6.72
-6.8
-6.75
-6.56
-6.03
-5.23
-3.44
-1.63
-0.4
0.56
1.44
2.03
2.24
2.16
2.05
1.68
1.28
0.96
0.56
0.24
-0.08
-0.4
-0.93
-1.41
-1.76
-2.16
-2.48
-2.88
-3.25
-3.47
-3.68
-3.79
-3.84
-3.84
-3.84
-3.84
-3.84
-3.87
-3.92
-4
-4.03
-4.19
-4.4
-4.51
-4.67
-4.8
-4.93
-5.09
-5.2
-5.31
-5.41
-5.52
-5.63
-5.73
-5.84
-5.92
-5.97
-6.08
-6.11
-6.21
-6.32
-6.35
-6.45
-6.48
-6.56
-6.51
-6.4
-5.95
-5.15
-3.36
-1.44
-0.11
0.96
2.05
2.75
2.96
2.88
2.77
2.4
2
1.68
1.28
0.93
0.56
0.24
-0.29
-0.77
-1.12
-1.57
-2.11
-2.48
-2.72
-2.99
-3.2
-3.31
-3.41
-3.44
-3.44
-3.44
-3.44
-3.47
-3.52
-3.6
-3.63
-3.79
-4
-4.11
-4.27
-4.4
-4.8
-5.07
-5.2
-5.31
-5.41
-5.52
-5.63
-5.73
-5.76
-5.87
-5.97
-6.08
-6.11
-6.16
-6.24
-6.27
-6.37
-6.4
-6.27
-5.89
-5.28
-4
-2.67
-0.8
1.01
1.92
2.56
3.01
3.23
3.12
2.91
2.64
2.16
1.68
1.36
0.96
0.64
0.32
-0.08
-0.61
-1.09
-1.44
-1.81
-2.29
-2.56
-2.77
-2.93
-3.04
-3.12
-3.12
-3.12
-3.12
-3.17
-3.2
-3.31
-3.41
-3.52
-3.63
-3.79
-4
-4.19
-4.35
-4.48
-4.61
-4.83
-4.96
-5.07
-5.17
-5.28
-5.31
-5.41
-5.52
-5.63
-5.73
-5.84
-5.95
-6
-6.08
-6.11
-6.21
-6.24
-6
-5.47
-4.72
-3.41
-2.03
-0.24
1.47
2.27
2.8
3.12
3.23
3.12
2.83
2.56
2.08
1.65
1.28
0.96
0.64
0.32
0
-0.53
-1.01
-1.36
-1.79
-2.16
-2.48
-2.67
-2.77
-2.88
-2.96
-2.96
-2.96
-2.96
-3.01
-3.04
-3.15
-3.25
-3.36
-3.49
-3.71
-3.92
-4.11
-4.27
-4.4
-4.61
-4.77
-4.88
-4.99
-5.09
-5.2
-5.31
-5.41
-5.52
-5.6
-5.65
-5.76
-5.87
-5.92
-6
-6.08
-5.97
-5.76
-5.01
-4
-2.72
-1.31
0.03
1.36
2.59
3.07
3.28
3.28
3.17
2.96
2.64
2.32
1.84
1.44
1.12
0.8
0.48
0.16
-0.24
-0.77
-1.2
-1.52
-1.87
-2.24
-2.48
-2.59
-2.64
-2.72
-2.72
-2.72
-2.72
-2.8
-2.85
-2.88
-3.01
-3.17
-3.36
-3.57
-3.79
-4
-4.19
-4.35
-4.48
-4.61
-4.83
-4.96
-5.01
-5.17
-5.28
-5.31
-5.41
-5.52
-5.6
-5.65
-5.76
-5.87
-5.92
-5.92
-5.84
-5.2
-4.16
-2.77
-1.39
0.08
1.25
2.21
2.96
3.63
3.79
3.76
3.44
3.12
2.88
2.56
2.24
1.76
1.36
1.04
0.72
0.37
0
-0.4
-0.72
-1.15
-1.6
-1.84
-2.11
-2.24
-2.27
-2.32
-2.32
-2.4
-2.45
-2.48
-2.56
-2.67
-2.8
-2.93
-3.15
-3.36
-3.57
-3.95
-4.4
-4.59
-4.69
-4.8
-4.93
-5.09
-5.2
-5.31
-5.36
-5.44
-5.55
-5.65
-5.68
-5.76
-5.81
-5.84
-5.76
-5.44
-4.72
-3.68
-2.03
0.08
1.15
2.05
2.8
3.23
3.49
3.44
3.36
3.09
2.8
2.29
1.92
1.6
1.28
0.91
0.4
-0.11
-0.53
-0.96
-1.28
-1.6
-1.92
-2.21
-2.37
-2.48
-2.56
-2.56
-2.64
-2.64
-2.64
-2.72
-2.83
-2.93
-3.04
-3.15
-3.31
-3.52
-3.73
-3.95
-4.16
-4.29
-4.51
-4.64
-4.83
-4.93
-5.04
-5.15
-5.25
-5.36
-5.47
-5.52
-5.6
-5.71
-5.87
-6
-6
-5.89
-5.28
-4.32
-3.04
-1.68
-0.24
1.15
2.64
3.17
3.55
3.76
3.68
3.57
3.2
2.77
2.4
2.08
1.55
1.07
0.72
0.29
-0.13
-0.56
-0.96
-1.33
-1.76
-2.13
-2.35
-2.48
-2.56
-2.61
-2.64
-2.64
-2.64
-2.72
-2.75
-2.8
-2.88
-3.09
-3.31
-3.44
-3.63
-3.79
-3.92
-4.13
-4.35
-4.56
-4.69
-4.91
-5.04
-5.15
-5.25
-5.28
-5.39
-5.49
-5.6
-5.71
-5.81
-5.92
-5.92
-5.81
-5.52
-4.64
-3.47
-1.52
0.48
1.81
2.8
3.65
4.13
4.64
4.56
4.4
4.16
3.84
3.47
2.96
2.45
2.08
1.68
1.04
0.45
0
-0.43
-0.85
-1.28
-1.65
-1.87
-2
-2.11
-2.16
-2.24
-2.24
-2.24
-2.24
-2.35
-2.45
-2.64
-2.77
-2.93
-3.12
-3.41
-3.63
-3.76
-3.95
-4.11
-4.24
-4.45
-4.67
-4.8
-4.91
-5.07
-5.2
-5.31
-5.41
-5.52
-5.63
-5.73
-5.84
-5.92
-5.87
-5.6
-5.01
-3.52
-1.52
0
1.39
2.8
4.03
4.51
4.72
4.75
4.48
4.16
3.76
3.39
2.96
2.56
2.19
1.68
1.15
0.67
0.16
-0.27
-0.69
-1.12
-1.63
-1.95
-2.24
-2.43
-2.48
-2.56
-2.56
-2.56
-2.64
-2.72
-2.77
-2.88
-3.09
-3.31
-3.52
-3.65
-3.81
-4
-4.29
-4.51
-4.64
-4.83
-4.93
-5.04
-5.23
-5.65
-5.84
-5.87
-5.97
-6
-6.11
-6.21
-6.24
-6.13
-5.65
-4.8
-3.73
-2.29
-0.8
0.61
1.95
3.44
3.89
4.21
4.24
4.16
3.89
3.52
3.17
2.69
2.24
1.84
1.47
1.12
0.69
0.27
-0.32
-0.91
-1.28
-1.6
-2
-2.27
-2.48
-2.56
-2.61
-2.72
-2.75
-2.8
-2.88
-2.91
-3.01
-3.12
-3.33
-3.55
-3.68
-3.89
-4.11
-4.32
-4.53
-4.69
-4.8
-5.01
-5.17
-5.28
-5.39
-5.49
-5.6
-5.71
-5.81
-5.92
-5.95
-6.05
-6.08
-6.05
-5.79
-5.36
-4.16
-2.19
-0.64
0.67
1.79
2.64
3.39
3.76
4.08
3.89
3.68
3.28
2.85
2.48
2.08
1.73
1.25
0.72
0.29
-0.13
-0.56
-0.99
-1.36
-1.84
-2.21
-2.43
-2.56
-2.75
-2.8
-2.8
-2.88
-2.93
-3.04
-3.07
-3.12
-3.28
-3.41
-3.57
-3.68
-3.97
-4.19
-4.32
-4.53
-4.75
-4.96
-5.07
-5.17
-5.28
-5.39
-5.49
-5.6
-5.68
-5.73
-5.76
-5.87
-5.97
-6.08
-6.08
-5.81
-5.28
-4.21
-2.99
-1.6
-0.11
1.71
2.72
3.39
3.81
3.92
3.97
3.76
3.44
3.04
2.67
2.16
1.68
1.36
0.96
0.61
0.08
-0.56
-0.99
-1.41
-1.76
-2.05
-2.27
-2.56
-2.75
-2.8
-2.88
-2.88
-2.93
-2.96
-3.07
-3.17
-3.36
-3.49
-3.65
-3.84
-3.97
-4.19
-4.4
-4.61
-4.83
-4.96
-5.17
-5.33
-5.44
-5.55
-5.65
-5.76
-5.87
-5.97
-6
-6.08
-6.13
-6.16
-6.24
-6.24
-5.92
-5.36
-3.92
-2
-0.61
0.67
1.84
2.61
3.47
3.76
3.79
3.63
3.36
3.12
2.69
2.16
1.84
1.52
1.04
0.53
0.16
-0.24
-0.67
-1.09
-1.52
-2.03
-2.4
-2.64
-2.83
-2.99
-3.12
-3.23
-3.28
-3.36
-3.47
-3.57
-3.68
-3.87
-4.03
-4.24
-4.45
-4.67
-4.88
-5.09
-5.25
-5.44
-5.63
-5.79
-5.92
-6.03
-6.13
-6.24
-6.35
-6.4
-6.48
-6.56
-6.61
-6.64
-6.96
-6.96
-6.56
-5.6
-3.95
-2.64
-1.44
-0.37
0.8
1.15
1.41
1.52
1.36
1.04
0.72
0.48
0.16
-0.16
-0.4
-0.83
-1.28
-1.68
-2
-2.32
-2.72
-3.04
-3.44
-3.73
-3.95
-4.08
-4.19
-4.24
-4.24
-4.24
-4.29
-4.32
-4.35
-4.45
-4.56
-4.75
-4.91
-5.04
-5.23
-5.39
-5.6
-5.79
-5.89
-6
-6.13
-6.29
-6.4
-6.51
-6.61
-6.64
-6.75
-6.8
-6.88
-6.91
-6.96
-7.04
-7.04
-7.04
-7.04
-6.91
-6.53
-5.92
-4.67
-2.8
-1.52
-0.56
0.13
0.96
0.99
0.99
0.96
0.61
0.24
-0.08
-0.32
-0.64
-0.96
-1.28
-1.71
-2.16
-2.56
-2.88
-3.2
-3.49
-3.71
-3.92
-4.03
-4.08
-4.08
-4.08
-4.08
-4.08
-4.08
-4.13
-4.24
-4.27
-4.37
-4.48
-4.69
-4.91
-5.04
-5.15
-5.31
-5.52
-5.71
-5.81
-5.92
-6.03
-6.13
-6.24
-6.32
-6.37
-6.48
-6.59
-6.64
-6.64
-6.67
-6.77
-6.88
-6.96
-6.91
-6.72
-6.16
-5.25
-4.08
-2.64
-0.72
0.32
1.07
1.44
1.84
1.76
1.6
1.36
0.99
0.51
0.16
-0.16
-0.48
-0.8
-1.15
-1.63
-2.16
-2.48
-2.8
-3.2
-3.57
-3.73
-3.84
-3.84
-3.84
-3.84
-3.84
-3.84
-3.84
-3.92
-3.97
-4
-4.13
-4.29
-4.48
-4.69
-4.91
-5.04
-5.23
-5.33
-5.52
-5.65
-5.81
-5.92
-5.95
-6.05
-6.16
-6.24
-6.29
-6.32
-6.43
-6.53
-6.64
-6.67
-6.72
-6.72
-6.59
-6.11
-5.36
-4.08
-2.75
-1.28
-0.03
1.47
2.16
2.51
2.51
2.48
2.19
1.92
1.6
1.15
0.67
0.32
0
-0.32
-0.72
-1.07
-1.55
-2.08
-2.4
-2.72
-3.04
-3.23
-3.33
-3.44
-3.44
-3.44
-3.44
-3.44
-3.49
-3.52
-3.63
-3.73
-3.92
-4.05
-4.21
-4.4
-4.61
-4.83
-4.96
-5.15
-5.25
-5.44
-5.57
-5.73
-5.84
-5.87
-5.97
-6.08
-6.19
-6.29
-6.32
-6.43
-6.53
-6.64
-6.64
-6.64
-6.48
-5.84
-3.65
-1.12
0.08
1.15
2
2.4
2.77
2.8
2.64
2.27
1.84
1.52
1.15
0.8
0.43
-0.05
-0.4
-0.75
-1.12
-1.52
-1.84
-2.16
-2.48
-2.8
-3.01
-3.12
-3.2
-3.2
-3.2
-3.2
-3.25
-3.28
-3.36
-3.41
-3.52
-3.71
-3.81
-4.08
-4.29
-4.45
-4.64
-4.85
-5.07
-5.2
-5.31
-5.41
-5.52
-5.63
-5.73
-5.84
-5.87
-5.97
-6.08
-6.16
-6.21
-6.24
-6.32
-6.32
-6.08
-5.63
-4.72
-3.44
-1.2
0.51
1.68
2.45
3.09
3.52
3.49
3.39
3.12
2.88
2.61
2.24
1.73
1.36
1.12
0.75
0.21
-0.24
-0.59
-0.96
-1.36
-1.68
-2
-2.32
-2.43
-2.53
-2.64
-2.64
-2.64
-2.72
-2.72
-2.77
-2.88
-2.96
-3.07
-3.2
-3.39
-3.55
-3.76
-3.97
-4.19
-4.4
-4.61
-4.83
-4.96
-5.15
-5.25
-5.36
-5.47
-5.52
-5.6
-5.71
-5.76
-5.84
-5.92
-5.97
-6
-5.76
-5.07
-4
-2.75
-1.25
0.08
1.79
2.96
3.6
3.92
4.08
4.16
3.92
3.6
3.28
3.04
2.72
2.32
1.81
1.44
1.12
0.69
0.27
-0.32
-0.8
-1.12
-1.36
-1.57
-1.79
-1.92
-2
-2
-2
-2.11
-2.16
-2.24
-2.29
-2.45
-2.64
-2.85
-3.07
-3.28
-3.49
-3.71
-4
-4.19
-4.29
-4.48
-4.59
-4.75
-4.88
-4.99
-5.09
-5.2
-5.31
-5.41
-5.52
-5.63
-5.73
-5.84
-5.92
-5.87
-5.76
-5.12
-4.21
-2.32
-0.37
1.01
2.16
3.15
3.89
4.64
4.67
4.61
4.48
4.13
3.76
3.44
3.12
2.8
2.48
1.97
1.55
1.2
0.77
0.35
0
-0.43
-0.85
-1.12
-1.31
-1.41
-1.52
-1.6
-1.65
-1.68
-1.79
-1.89
-2.08
-2.21
-2.37
-2.56
-2.88
-3.15
-3.36
-3.57
-3.79
-4
-4.21
-4.37
-4.48
-4.59
-4.75
-4.88
-4.96
-5.01
-5.12
-5.23
-5.28
-5.36
-5.47
-5.52
-5.52
-5.28
-4.75
-3.92
-2.53
-1.15
1.52
3.97
4.51
4.72
4.85
4.64
4.4
4.08
3.71
3.36
2.91
2.43
2
1.65
1.23
0.72
0.08
-0.45
-0.8
-1.12
-1.44
-1.76
-2.03
-2.13
-2.24
-2.35
-2.45
-2.48
-2.59
-2.69
-2.8
-3.01
-3.23
-3.44
-3.57
-3.79
-4
-4.21
-4.43
-4.56
-4.75
-4.85
-5.04
-5.23
-5.33
-5.44
-5.55
-5.65
-5.76
-5.84
-5.89
-6
-6.11
-6.16
-6.24
-6.24
-6.24
-6.08
-5.2
-4.08
-2.8
-1.39
-0.05
1.36
2.61
3.15
3.44
3.57
3.41
3.2
2.88
2.51
2.16
1.71
1.17
0.72
0.27
-0.21
-0.64
-1.28
-1.81
-2.16
-2.45
-2.67
-2.88
-2.99
-3.04
-3.04
-3.07
-3.12
-3.12
-3.2
-3.25
-3.36
-3.49
-3.71
-3.92
-4.05
-4.21
-4.4
-4.69
-4.85
-4.96
-5.07
-5.23
-5.36
-5.47
-5.57
-5.68
-5.71
-5.81
-5.92
-6
-6
-6
-6.11
-6.21
-6.32
-6.32
-6.32
-6.32
-5.79
-5.04
-4
-2.51
-1.01
0.8
2.45
3.31
3.84
4.27
4.27
4.16
3.87
3.55
3.2
2.72
2.08
1.6
1.17
0.75
0.24
-0.4
-0.93
-1.36
-1.76
-2.08
-2.4
-2.59
-2.69
-2.8
-2.8
-2.85
-2.88
-2.88
-2.93
-3.04
-3.17
-3.33
-3.52
-3.65
-3.81
-4
-4.21
-4.43
-4.56
-4.67
-4.77
-4.96
-5.15
-5.2
-5.28
-5.39
-5.49
-5.6
-5.68
-5.73
-5.76
-5.87
-5.92
-6
-6.11
-6.16
-6.16
-6.05
-5.68
-5.04
-3.87
-2.53
-0.96
0.53
2.4
3.44
4.16
4.48
4.8
4.61
4.4
4.08
3.63
3.09
2.64
2.21
1.79
1.36
0.64
0.05
-0.4
-0.83
-1.25
-1.68
-2.05
-2.27
-2.4
-2.51
-2.61
-2.64
-2.64
-2.69
-2.72
-2.85
-3.01
-3.12
-3.25
-3.41
-3.6
-3.89
-4.11
-4.24
-4.43
-4.53
-4.72
-4.91
-5.01
-5.12
-5.15
-5.25
-5.36
-5.44
-5.49
-5.6
-5.71
-5.76
-5.84
-5.87
-5.92
-6
-6
-5.63
-4.88
-3.6
-2.21
-0.24
1.63
2.69
3.44
4
4.27
4.48
4.27
4
3.76
3.28
2.69
2.24
1.89
1.47
1.04
0.32
-0.21
-0.64
-1.07
-1.44
-1.84
-2.21
-2.43
-2.56
-2.67
-2.72
-2.72
-2.8
-2.85
-2.88
-3.01
-3.17
-3.36
-3.49
-3.65
-3.84
-4.13
-4.35
-4.48
-4.67
-4.83
-5.04
-5.15
-5.25
-5.36
-5.39
-5.49
-5.6
-5.68
-5.73
-5.76
-5.87
-5.97
-6.08
-6.11
-6.16
-6.24
-6.21
-6
-5.68
-4.8
-3.63
-1.68
0.21
1.39
2.32
3.09
3.57
4
3.92
3.81
3.6
3.23
2.75
2.32
1.97
1.6
1.2
0.59
0.05
-0.4
-0.8
-1.17
-1.68
-2.13
-2.35
-2.56
-2.75
-2.85
-2.96
-2.96
-3.01
-3.04
-3.15
-3.25
-3.44
-3.57
-3.73
-3.92
-4.13
-4.35
-4.48
-4.67
-4.83
-5.04
-5.15
-5.25
-5.36
-5.47
-5.57
-5.6
-5.68
-5.73
-5.76
-5.87
-5.97
-6.08
-6.11
-6.16
-6.24
-6.21
-5.95
-5.52
-4.64
-3.52
-1.76
0.03
1.09
1.92
2.59
2.96
3.36
3.25
3.09
2.96
2.59
2.11
1.76
1.41
1.04
0.64
0.11
-0.37
-0.8
-1.23
-1.65
-2.08
-2.48
-2.75
-2.96
-3.07
-3.17
-3.2
-3.28
-3.33
-3.36
-3.47
-3.57
-3.76
-3.89
-4.05
-4.24
-4.45
-4.67
-4.8
-4.99
-5.09
-5.28
-5.47
-5.57
-5.68
-5.71
-5.81
-5.92
-6
-6.05
-6.08
-6.19
-6.24
-6.32
-6.35
-6.4
-6.48
-6.45
-6.29
-6
-5.23
-4.21
-2.4
-0.61
0.51
1.44
2.19
2.61
3.12
3.12
3.01
2.88
2.53
2.11
1.76
1.44
1.12
0.8
0.29
-0.13
-0.48
-0.88
-1.25
-1.76
-2.13
-2.35
-2.56
-2.67
-2.83
-2.96
-3.04
-3.09
-3.12
-3.23
-3.33
-3.44
-3.57
-3.73
-3.92
-4.13
-4.35
-4.48
-4.67
-4.83
-5.04
-5.15
-5.25
-5.36
-5.47
-5.57
-5.68
-5.76
-5.81
-5.84
-5.95
-6
-6.08
-6.16
-6.48
-6.4
-5.73
-4.83
-3.68
-2.37
-1.09
0.32
1.65
2.24
2.56
2.8
2.75
2.72
2.51
2.24
1.92
1.55
1.07
0.72
0.4
0.08
-0.32
-0.93
-1.41
-1.76
-2.08
-2.4
-2.72
-2.99
-3.09
-3.2
-3.23
-3.33
-3.36
-3.36
-3.41
-3.52
-3.65
-3.81
-3.92
-4.05
-4.27
-4.48
-4.69
-4.91
-5.04
-5.15
-5.31
-5.44
-5.55
-5.65
-5.76
-5.87
-5.97
-6
-6.08
-6.13
-6.16
-6.27
-6.32
-6.4
-6.43
-6.48
-6.48
-6.35
-5.92
-5.28
-4.08
-2.75
-0.96
0.69
1.55
2.16
2.69
2.85
2.96
2.77
2.56
2.24
1.87
1.33
0.88
0.53
0.11
-0.32
-0.93
-1.41
-1.84
-2.16
-2.48
-2.8
-3.07
-3.17
-3.28
-3.31
-3.36
-3.36
-3.36
-3.41
-3.44
-3.57
-3.73
-3.92
-4.05
-4.21
-4.4
-4.59
-4.75
-4.88
-5.07
-5.17
-5.36
-5.47
-5.57
-5.68
-5.71
-5.81
-5.92
-6
-6.05
-6.08
-6.19
-6.29
-6.4
-6.43
-6.48
-6.56
-6.53
-6.32
-6
-5.15
-4.03
-2.08
-0.11
1.07
2
2.75
3.17
3.6
3.49
3.33
3.12
2.75
2.21
1.76
1.33
0.96
0.56
-0.08
-0.61
-1.04
-1.47
-1.84
-2.32
-2.69
-2.91
-3.04
-3.15
-3.25
-3.28
-3.28
-3.28
-3.28
-3.39
-3.49
-3.6
-3.73
-3.89
-4.08
-4.29
-4.45
-4.56
-4.75
-4.85
-5.04
-5.15
-5.25
-5.36
-5.47
-5.57
-5.68
-5.76
-5.81
-5.84
-5.95
-6.05
-6.16
-6.19
-6.24
-6.32
-6.21
-5.95
-5.44
-4.45
-3.23
-1.28
0.59
1.71
2.48
3.12
3.39
3.68
3.57
3.36
3.12
2.67
2.13
1.68
1.33
0.96
0.56
-0.08
-0.61
-1.04
-1.47
-1.89
-2.24
-2.56
-2.83
-3.04
-3.12
-3.12
-3.12
-3.2
-3.2
-3.2
-3.31
-3.36
-3.44
-3.55
-3.65
-3.84
-4.03
-4.19
-4.32
-4.51
-4.67
-4.88
-4.99
-5.09
-5.2
-5.31
-5.41
-5.52
-5.6
-5.65
-5.68
-5.84
-6.16
-6.32
-6.29
-6.19
-5.84
-4.67
-3.44
-2.08
-0.69
0.53
1.76
2.83
3.25
3.44
3.49
3.33
3.12
2.8
2.48
2.16
1.79
1.31
0.88
0.53
0.16
-0.24
-0.88
-1.36
-1.68
-2
-2.27
-2.48
-2.67
-2.72
-2.8
-2.8
-2.8
-2.8
-2.88
-2.99
-3.12
-3.25
-3.47
-3.68
-3.81
-3.97
-4.16
-4.45
-4.67
-4.8
-4.99
-5.09
-5.2
-5.31
-5.41
-5.52
-5.55
-5.65
-5.76
-5.76
-5.81
-5.84
-5.92
-5.92
-5.84
-5.52
-4.88
-3.84
-1.79
-0.08
1.2
2.16
2.91
3.52
4
4
3.84
3.71
3.39
2.96
2.56
2.24
1.92
1.47
0.93
0.48
0.13
-0.29
-0.72
-1.04
-1.47
-1.92
-2.11
-2.27
-2.48
-2.59
-2.64
-2.72
-2.83
-2.93
-3.04
-3.15
-3.25
-3.36
-3.57
-3.79
-4
-4.13
-4.35
-4.48
-4.69
-4.85
-4.96
-5.07
-5.17
-5.28
-5.39
-5.49
-5.6
-5.63
-5.73
-5.76
-5.87
-5.97
-6
-5.76
-5.07
-4.08
-2.85
-1.41
-0.08
1.52
2.64
3.28
3.6
3.76
3.68
3.6
3.33
3.04
2.8
2.37
1.92
1.6
1.23
0.88
0.4
-0.24
-0.72
-1.07
-1.44
-1.76
-2.19
-2.45
-2.56
-2.67
-2.77
-2.88
-2.91
-3.01
-3.12
-3.15
-3.31
-3.52
-3.71
-3.87
-4
-4.21
-4.43
-4.64
-4.75
-4.85
-4.96
-5.15
-5.25
-5.36
-5.44
-5.49
-5.6
-5.71
-5.76
-5.84
-5.95
-6
-6
-5.79
-5.36
-4.64
-3.17
-1.15
0.32
1.52
2.48
3.12
3.68
4
4.08
3.89
3.68
3.28
2.96
2.64
2.32
2
1.57
1.04
0.61
0.19
-0.24
-0.67
-1.04
-1.52
-1.89
-2.11
-2.32
-2.51
-2.61
-2.64
-2.72
-2.77
-2.96
-3.07
-3.17
-3.36
-3.49
-3.71
-3.92
-4.13
-4.35
-4.48
-4.69
-4.91
-5.04
-5.15
-5.25
-5.36
-5.47
-5.57
-5.6
-5.71
-5.81
-5.92
-6.03
-6.08
-6.08
-5.89
-5.09
-3.92
-1.15
0.77
1.92
2.67
3.47
3.76
3.87
3.71
3.52
3.09
2.72
2.4
2.08
1.76
1.2
0.69
0.27
-0.16
-0.59
-1.01
-1.44
-1.76
-2.08
-2.4
-2.72
-2.99
-3.12
-3.15
-3.25
-3.36
-3.47
-3.57
-3.6
-3.79
-3.89
-4.08
-4.29
-4.45
-4.64
-4.77
-4.99
-5.12
-5.23
-5.33
-5.44
-5.57
-5.73
-5.84
-5.87
-5.97
-6.08
-6.16
-6.21
-6.32
-6.32
-6.32
-6.08
-5.55
-4.64
-3.44
-2.05
-0.45
1.36
2.11
2.69
3.12
3.17
3.12
2.96
2.72
2.4
2.08
1.55
1.07
0.64
0.21
-0.21
-0.8
-1.39
-1.81
-2.16
-2.48
-2.8
-3.12
-3.23
-3.33
-3.36
-3.47
-3.57
-3.68
-3.71
-3.76
-3.84
-4.03
-4.13
-4.24
-4.43
-4.53
-4.72
-4.93
-5.09
-5.2
-5.31
-5.47
-5.6
-5.71
-5.81
-5.84
-5.95
-6.05
-6.16
-6.19
-6.29
-6.4
-6.48
-6.53
-6.56
-6.64
-6.64
-6.32
-5.65
-4.59
-3.2
-1.71
0
2
2.77
3.41
3.84
3.89
3.84
3.6
3.36
3.04
2.64
2.03
1.55
1.12
0.69
0.21
-0.48
-1.07
-1.44
-1.84
-2.16
-2.48
-2.8
-2.91
-3.01
-3.12
-3.23
-3.28
-3.36
-3.39
-3.49
-3.6
-3.79
-3.95
-4.08
-4.27
-4.43
-4.64
-4.83
-4.93
-5.04
-5.15
-5.31
-5.44
-5.52
-5.57
-5.6
-5.71
-5.76
-5.84
-5.95
-6
-6.08
-6.19
-6.29
-6.32
-6.4
-6.45
-6.56
-6.59
-6.64
-6.64
-6.48
-5.73
-4.48
-2.96
-1.41
0.16
1.49
3.04
3.76
4.19
4.35
4.32
4
3.63
3.28
2.88
2.51
1.92
1.39
0.91
0.48
0.03
-0.56
-1.2
-1.6
-1.92
-2.24
-2.48
-2.75
-2.88
-2.99
-3.09
-3.2
-3.28
-3.33
-3.44
-3.55
-3.71
-3.92
-4.05
-4.21
-4.4
-4.53
-4.75
-4.88
-4.99
-5.09
-5.2
-5.31
-5.41
-5.52
-5.55
-5.6
-5.68
-5.79
-5.89
-5.92
-6.03
-6.13
-6.16
-6.27
-6.37
-6.64
-6.88
-6.77
-6.48
-5.73
-4.72
-3.44
-1.95
-0.08
0.96
1.71
2.19
2.48
2.51
2.45
2.32
2.03
1.76
1.28
0.8
0.48
0.08
-0.27
-0.75
-1.28
-1.68
-2
-2.32
-2.67
-3.04
-3.28
-3.39
-3.49
-3.6
-3.71
-3.81
-3.84
-3.92
-3.97
-4.16
-4.29
-4.45
-4.56
-4.69
-4.91
-5.04
-5.15
-5.25
-5.36
-5.47
-5.57
-5.68
-5.71
-5.76
-5.84
-5.92
-5.97
-6
-6.08
-6.13
-6.24
-6.35
-6.4
-6.48
-6.51
-6.61
-6.64
-6.51
-6.19
-5.68
-4.53
-2.77
-1.44
-0.37
0.43
1.04
1.49
1.76
1.76
1.57
1.41
1.04
0.72
0.45
0.16
-0.08
-0.45
-0.88
-1.2
-1.52
-1.84
-2.16
-2.48
-2.8
-3.09
-3.25
-3.36
-3.47
-3.52
-3.52
-3.6
-3.65
-3.76
-3.79
-3.89
-4
-4.13
-4.35
-4.56
-4.75
-4.85
-4.96
-5.17
-5.33
-5.44
-5.47
-5.57
-5.6
-5.71
-5.76
-5.76
-5.84
-5.89
-6
-6.03
-6.08
-6.16
-6.19
-6.29
-6.32
-6.4
-6.4
-6.4
-6.16
-5.47
-4.48
-3.28
-1.95
-0.8
0.51
1.41
1.92
2.05
2.11
1.92
1.76
1.49
1.2
0.96
0.59
0.16
-0.13
-0.4
-0.72
-1.09
-1.63
-2
-2.32
-2.59
-2.8
-3.01
-3.17
-3.28
-3.28
-3.33
-3.36
-3.36
-3.36
-3.44
-3.55
-3.71
-3.84
-4.03
-4.19
-4.32
-4.53
-4.69
-4.88
-4.99
-5.09
-5.2
-5.31
-5.41
-5.44
-5.55
-5.65
-5.76
-5.79
-5.84
-5.92
-5.95
-6.05
-6.08
-6.16
-6.21
-6.32
-6.37
-6.27
-6
-5.44
-4.43
-3.12
-1.2
0.24
1.28
1.84
2.27
2.48
2.59
2.43
2.16
1.92
1.55
1.12
0.8
0.48
0.24
-0.11
-0.53
-0.96
-1.28
-1.6
-1.92
-2.21
-2.48
-2.8
-2.99
-3.09
-3.2
-3.23
-3.28
-3.36
-3.39
-3.49
-3.52
-3.63
-3.79
-3.92
-4.13
-4.29
-4.48
-4.61
-4.77
-4.88
-5.07
-5.17
-5.28
-5.39
-5.6
-5.84
-6.03
-6.08
-6.16
-6.19
-6.29
-6.32
-6.4
-6.45
-6.48
-6.53
-6.43
-6.08
-5.44
-4.48
-3.2
-1.25
0.19
1.12
1.68
2.11
2.24
2.35
2.19
1.92
1.68
1.25
0.8
0.48
0.16
-0.16
-0.53
-1.07
-1.52
-1.84
-2.16
-2.48
-2.91
-3.23
-3.36
-3.47
-3.57
-3.6
-3.63
-3.68
-3.68
-3.71
-3.81
-3.92
-4.03
-4.13
-4.24
-4.45
-4.61
-4.8
-4.93
-5.09
-5.2
-5.39
-5.49
-5.6
-5.68
-5.73
-5.84
-5.95
-6.05
-6.16
-6.19
-6.29
-6.32
-6.43
-6.53
-6.56
-6.67
-6.72
-6.8
-6.8
-6.75
-6.56
-5.57
-4.4
-3.04
-1.73
-0.51
0.64
1.6
1.92
2
2.03
1.71
1.36
1.04
0.72
0.4
-0.05
-0.59
-0.96
-1.31
-1.68
-2.08
-2.61
-3.04
-3.28
-3.57
-3.73
-3.84
-3.95
-4
-4
-4
-4
-4
-4.08
-4.13
-4.16
-4.29
-4.45
-4.56
-4.69
-4.85
-4.96
-5.15
-5.31
-5.44
-5.55
-5.65
-5.76
-5.87
-5.97
-6.08
-6.11
-6.21
-6.24
-6.35
-6.45
-6.48
-6.59
-6.64
-6.72
-6.75
-6.8
-6.88
-6.77
-6.4
-5.76
-4.59
-3.25
-1.36
0.37
1.28
1.92
2.35
2.4
2.48
2.27
2
1.68
1.23
0.69
0.32
-0.03
-0.4
-0.8
-1.41
-1.89
-2.24
-2.64
-2.96
-3.28
-3.57
-3.73
-3.84
-3.87
-3.92
-3.92
-3.92
-3.92
-3.92
-4.03
-4.08
-4.16
-4.27
-4.37
-4.48
-4.67
-4.83
-4.96
-5.07
-5.17
-5.36
-5.47
-5.57
-5.68
-5.79
-5.89
-6
-6.08
-6.13
-6.16
-6.27
-6.37
-6.48
-6.51
-6.56
-6.64
-6.72
-6.72
-6.64
-6.19
-5.39
-3.6
-1.73
-0.29
0.88
1.84
2.48
3.12
3.12
3.01
2.8
2.43
1.95
1.6
1.25
0.88
0.56
0.03
-0.45
-0.8
-1.23
-1.65
-2
-2.35
-2.77
-3.04
-3.15
-3.25
-3.36
-3.36
-3.36
-3.36
-3.36
-3.36
-3.44
-3.47
-3.57
-3.68
-4.11
-4.37
-4.48
-4.67
-4.83
-4.96
-5.07
-5.17
-5.28
-5.39
-5.49
-5.6
-5.68
-5.73
-5.84
-5.95
-6
-6.08
-6.11
-6.21
-6.32
-6.4
-6.35
-6.16
-5.52
-4.61
-3.36
-1.73
0.29
1.52
2.37
2.85
3.36
3.36
3.25
3.12
2.75
2.27
1.92
1.57
1.2
0.88
0.37
-0.05
-0.48
-0.88
-1.2
-1.52
-1.87
-2.29
-2.56
-2.67
-2.77
-2.8
-2.8
-2.85
-2.88
-2.91
-2.96
-3.04
-3.07
-3.17
-3.36
-3.55
-3.71
-3.84
-4.03
-4.19
-4.4
-4.51
-4.61
-4.72
-4.83
-4.99
-5.12
-5.23
-5.33
-5.36
-5.49
-5.65
-5.76
-5.79
-5.89
-6
-6.08
-6.13
-6.16
-6.03
-5.6
-4.24
-2.69
-1.25
0.08
1.36
2.37
3.44
3.68
3.84
3.92
3.68
3.36
3.04
2.72
2.4
2.08
1.57
1.2
0.88
0.45
0.03
-0.32
-0.72
-1.04
-1.44
-1.81
-2.03
-2.24
-2.24
-2.24
-2.24
-2.24
-2.24
-2.24
-2.27
-2.37
-2.48
-2.67
-2.83
-2.96
-3.15
-3.31
-3.52
-3.73
-3.89
-4.08
-4.19
-4.35
-4.48
-4.59
-4.69
-4.8
-4.93
-5.09
-5.2
-5.31
-5.36
-5.44
-5.55
-5.65
-5.68
-5.68
-5.52
-4.64
-3.49
-2.11
-0.72
0.69
2.08
3.68
4.21
4.59
4.8
4.75
4.59
4.32
4.08
3.76
3.44
2.93
2.56
2.24
1.84
1.47
0.88
0.29
-0.08
-0.4
-0.72
-1.04
-1.36
-1.47
-1.57
-1.6
-1.68
-1.68
-1.76
-1.79
-1.84
-2
-2.19
-2.35
-2.48
-2.69
-2.91
-3.2
-3.41
-3.57
-3.76
-3.89
-4.11
-4.32
-4.43
-4.53
-4.64
-4.75
-4.85
-4.96
-5.07
-5.17
-5.28
-5.39
-5.49
-5.52
-5.41
-5.15
-4.16
-2.85
-1.41
0
1.41
2.75
4.24
4.77
5.15
5.36
5.23
5.07
4.8
4.48
4.16
3.76
3.25
2.83
2.4
2
1.63
1.2
0.77
0.35
-0.16
-0.64
-0.96
-1.28
-1.39
-1.49
-1.6
-1.71
-1.76
-1.84
-1.92
-2.19
-2.4
-2.69
-2.91
-3.12
-3.33
-3.55
-3.84
-4.03
-4.13
-4.32
-4.45
-4.67
-4.8
-4.99
-5.09
-5.12
-5.25
-5.41
-5.52
-5.55
-5.65
-5.76
-5.84
-5.84
-5.76
-5.33
-4.64
-3.04
-1.28
0.05
1.28
2.35
3.15
4.08
4.21
4.27
4.24
3.97
3.55
3.2
2.85
2.48
2.08
1.47
0.99
0.56
0.13
-0.29
-0.72
-1.17
-1.65
-1.92
-2.13
-2.35
-2.48
-2.56
-2.61
-2.64
-2.75
-2.8
-2.88
-2.99
-3.09
-3.2
-3.41
-3.63
-3.84
-3.95
-4.11
-4.32
-4.53
-4.69
-4.8
-4.93
-5.15
-5.28
-5.36
-5.41
-5.52
-5.63
-5.73
-5.84
-5.87
-5.92
-6
-6.11
-6.16
-6.16
-6.05
-5.73
-4.56
-3.17
-1.79
-0.48
0.8
1.92
3.2
3.52
3.68
3.76
3.6
3.28
2.88
2.53
2.16
1.76
1.15
0.67
0.24
-0.27
-0.75
-1.2
-1.6
-1.92
-2.32
-2.69
-2.91
-3.04
-3.12
-3.12
-3.12
-3.15
-3.2
-3.28
-3.31
-3.41
-3.52
-3.73
-3.95
-4.08
-4.27
-4.37
-4.56
-4.77
-4.93
-5.04
-5.15
-5.31
-5.44
-5.52
-5.57
-5.68
-5.79
-5.84
-5.92
-5.95
-6.05
-6.16
-6.24
-6.19
-6.08
-5.65
-4.96
-3.28
-1.49
-0.05
1.2
2.29
3.15
4
4.13
4.19
4.08
3.73
3.31
2.88
2.53
2.11
1.68
0.96
0.43
0
-0.51
-0.99
-1.44
-1.87
-2.29
-2.56
-2.77
-2.93
-3.04
-3.12
-3.12
-3.12
-3.23
-3.28
-3.36
-3.47
-3.57
-3.68
-3.89
-4.11
-4.24
-4.43
-4.59
-4.8
-4.93
-5.09
-5.2
-5.23
-5.39
-5.52
-5.6
-5.65
-5.68
-5.79
-5.89
-6
-6.03
-6.08
-6.16
-6.16
-6.05
-5.84
-5.17
-4.16
-2.24
-0.29
1.09
2.16
3.12
3.76
4.48
4.48
4.37
4.16
3.79
3.25
2.8
2.45
2.03
1.6
0.88
0.29
-0.16
-0.67
-1.09
-1.68
-2.16
-2.43
-2.64
-2.83
-2.93
-3.04
-3.12
-3.12
-3.12
-3.33
-3.49
-3.6
-3.73
-3.89
-4.08
-4.29
-4.51
-4.64
-4.83
-4.93
-5.12
-5.23
-5.33
-5.44
-5.55
-5.65
-5.68
-5.76
-5.81
-5.84
-5.95
-6
-6.08
-6.11
-6.16
-6.16
-5.73
-5.09
-4.16
-2.77
-1.39
0.48
2.21
3.07
3.68
4.11
4.16
4.24
4.03
3.71
3.36
2.88
2.29
1.84
1.49
1.07
0.64
-0.08
-0.67
-1.12
-1.52
-1.89
-2.24
-2.48
-2.8
-2.96
-3.07
-3.12
-3.12
-3.2
-3.25
-3.28
-3.39
-3.49
-3.68
-3.79
-3.89
-4.08
-4.29
-4.51
-4.64
-4.75
-4.91
-5.12
-5.23
-5.33
-5.44
-5.47
-5.57
-5.6
-5.68
-5.73
-5.76
-5.87
-5.92
-6
-6
-6
-5.76
-4.8
-3.68
-2.4
-0.91
0.48
1.92
3.25
3.84
4.16
4.32
4.32
4.16
3.73
3.31
2.96
2.48
1.89
1.44
0.99
0.51
0.08
-0.64
-1.17
-1.52
-1.92
-2.24
-2.48
-2.69
-2.91
-3.04
-3.07
-3.17
-3.2
-3.2
-3.25
-3.36
-3.49
-3.65
-3.76
-3.89
-4.05
-4.24
-4.37
-4.59
-4.72
-4.83
-4.93
-5.12
-5.23
-5.28
-5.36
-5.47
-5.57
-5.68
-5.76
-5.81
-5.84
-5.95
-6
-6
-5.92
-5.6
-4.88
-3.15
-1.49
0
1.28
2.4
3.36
4.21
4.48
4.48
4.43
4.21
3.92
3.39
2.91
2.56
2.08
1.44
0.96
0.51
0.03
-0.48
-0.91
-1.39
-1.92
-2.21
-2.43
-2.64
-2.77
-2.93
-2.96
-2.99
-3.09
-3.12
-3.2
-3.31
-3.44
-3.57
-3.79
-4
-4.13
-4.29
-4.48
-4.61
-4.83
-5.04
-5.15
-5.25
-5.36
-5.47
-5.52
-5.6
-5.71
-5.81
-5.84
-5.92
-5.97
-6
-6.08
-6.03
-5.6
-4.93
-3.87
-2.56
-0.32
1.39
2.56
3.33
3.97
4.4
4.69
4.59
4.32
4.05
3.68
3.28
2.67
2.19
1.84
1.28
0.64
0.08
-0.37
-0.85
-1.28
-1.81
-2.24
-2.48
-2.67
-2.77
-2.88
-2.99
-3.04
-3.12
-3.15
-3.36
-3.6
-3.79
-3.95
-4.08
-4.29
-4.51
-4.72
-4.83
-4.93
-5.12
-5.23
-5.39
-5.52
-5.6
-5.65
-5.76
-5.87
-5.92
-6
-6.03
-6.13
-6.16
-6.13
-5.92
-5.6
-4.75
-3.68
-1.76
0.13
1.36
2.24
3.2
3.73
3.92
3.84
3.68
3.28
2.85
2.43
2
1.57
1.2
0.72
0.08
-0.51
-0.96
-1.39
-1.81
-2.32
-2.72
-2.99
-3.2
-3.31
-3.41
-3.44
-3.52
-3.57
-3.6
-3.63
-3.73
-3.84
-3.95
-4.11
-4.32
-4.51
-4.67
-4.8
-4.93
-5.09
-5.28
-5.39
-5.49
-5.6
-5.63
-5.73
-5.84
-5.92
-5.97
-6.08
-6.19
-6.24
-6.32
-6.35
-6.4
-6.4
-6.27
-5.89
-5.28
-4.11
-2.77
-0.88
0.96
1.97
2.72
3.36
3.68
3.76
3.55
3.28
2.8
2.29
1.87
1.36
0.93
0.51
0
-0.45
-1.09
-1.76
-2.21
-2.75
-3.04
-3.25
-3.41
-3.52
-3.6
-3.65
-3.68
-3.68
-3.68
-3.68
-3.79
-3.89
-4
-4.11
-4.27
-4.48
-4.59
-4.75
-4.88
-5.01
-5.23
-5.36
-5.47
-5.52
-5.6
-5.71
-5.81
-5.84
-5.92
-5.97
-6.08
-6.11
-6.16
-6.16
-6.19
-6.29
-6.32
-6.19
-5.87
-5.36
-4.27
-2.93
-0.8
1.25
2.43
3.28
4.05
4.53
4.64
4.45
4.24
3.68
3.17
2.75
2.24
1.79
1.31
0.8
0.08
-0.51
-1.04
-1.47
-1.89
-2.4
-2.77
-2.93
-3.12
-3.23
-3.33
-3.36
-3.36
-3.41
-3.44
-3.55
-3.6
-3.68
-3.81
-4.03
-4.16
-4.35
-4.51
-4.64
-4.77
-4.99
-5.12
-5.15
-5.25
-5.36
-5.39
-5.49
-5.6
-5.68
-5.73
-5.84
-5.87
-5.92
-6
-6.03
-6.08
-6.08
-6.16
-6.21
-6.24
-6.24
-6.13
-5.44
-4.48
-3.15
-1.6
0.67
2.37
3.52
4.19
4.67
4.8
4.91
4.69
4.32
3.97
3.55
3.12
2.4
1.81
1.36
0.85
0.11
-0.48
-0.91
-1.33
-1.76
-2.19
-2.51
-2.72
-2.91
-3.01
-3.04
-3.15
-3.2
-3.28
-3.39
-3.49
-3.6
-3.79
-3.89
-4
-4.13
-4.35
-4.48
-4.59
-4.69
-4.8
-4.91
-5.01
-5.12
-5.23
-5.33
-5.44
-5.47
-5.57
-5.68
-5.71
-5.76
-5.76
-5.84
-5.89
-5.92
-5.92
-5.81
-5.12
-4.16
-2.88
-1.44
0.61
2.16
3.2
3.76
4.24
4.4
4.51
4.29
4
3.68
3.36
2.88
2.24
1.71
1.28
0.72
0.08
-0.48
-0.91
-1.33
-1.76
-2.27
-2.59
-2.8
-2.91
-3.01
-3.04
-3.15
-3.2
-3.28
-3.31
-3.41
-3.44
-3.55
-3.71
-3.84
-3.97
-4.19
-4.4
-4.51
-4.61
-4.72
-4.83
-4.99
-5.12
-5.23
-5.33
-5.36
-5.47
-5.52
-5.6
-5.63
-5.73
-5.76
-5.84
-5.89
-5.92
-5.92
-5.92
-5.68
-5.15
-4.29
-3.12
-1.73
-0.08
1.92
2.77
3.47
3.92
4.29
4.24
4.08
3.81
3.44
3.04
2.43
1.95
1.52
1.04
0.4
-0.08
-0.53
-1.01
-1.44
-2.05
-2.43
-2.64
-2.85
-3.01
-3.04
-3.12
-3.12
-3.2
-3.23
-3.33
-3.44
-3.55
-3.71
-3.84
-4.05
-4.21
-4.4
-4.51
-4.61
-4.72
-4.85
-5.07
-5.2
-5.28
-5.33
-5.44
-5.55
-5.6
-5.68
-5.71
-5.81
-5.92
-6
-6.05
-6.08
-6.16
-6.21
-6.24
-6.03
-5.49
-4.64
-2.8
-1.2
0.16
1.25
2.21
2.96
3.63
3.79
3.76
3.6
3.33
3.04
2.51
2.03
1.68
1.23
0.69
0.24
-0.21
-0.69
-1.12
-1.47
-1.95
-2.4
-2.69
-2.91
-3.04
-3.15
-3.25
-3.36
-3.39
-3.49
-3.6
-3.71
-3.81
-3.92
-4.05
-4.21
-4.4
-4.53
-4.69
-4.88
-4.99
-5.15
-5.28
-5.39
-5.49
-5.6
-5.71
-5.76
-5.84
-5.87
-5.97
-6
-6.11
-6.21
-6.24
-6.32
-6.37
-6.32
-6.16
-5.79
-5.04
-3.31
-1.76
-0.48
0.59
1.49
2.32
2.99
3.15
3.12
3.07
2.91
2.64
2.13
1.76
1.44
0.99
0.51
0.08
-0.35
-0.72
-1.12
-1.52
-1.95
-2.4
-2.83
-3.09
-3.2
-3.31
-3.36
-3.44
-3.47
-3.57
-3.6
-3.79
-3.89
-4
-4.21
-4.43
-4.56
-4.69
-4.85
-4.96
-5.07
-5.23
-5.36
-5.47
-5.57
-5.68
-5.79
-5.84
-5.92
-5.95
-6.05
-6.08
-6.19
-6.29
-6.32
-6.32
-6.32
-6.16
-5.73
-4.93
-3.84
-2
-0.51
0.56
1.31
1.89
2.24
2.53
2.48
2.32
2.08
1.81
1.52
1.01
0.64
0.32
-0.13
-0.67
-1.12
-1.47
-1.84
-2.24
-2.56
-2.88
-3.2
-3.31
-3.41
-3.44
-3.52
-3.52
-3.52
-3.55
-3.65
-3.76
-3.87
-4.03
-4.16
-4.29
-4.51
-4.72
-4.85
-5.01
-5.12
-5.23
-5.39
-5.52
-5.63
-5.73
-5.84
-5.87
-5.92
-6
-6.03
-6.13
-6.24
-6.32
-6.37
-6.4
-6.48
-6.53
-6.48
-6.29
-5.87
-5.04
-3.23
-1.68
-0.4
0.56
1.36
2
2.48
2.53
2.4
2.27
2.05
1.76
1.23
0.8
0.48
0
-0.59
-1.04
-1.47
-1.84
-2.24
-2.56
-2.93
-3.28
-3.49
-3.65
-3.68
-3.76
-3.76
-3.76
-3.79
-3.84
-3.92
-3.95
-4.11
-4.24
-4.45
-4.67
-4.88
-5.09
-5.25
-5.36
-5.47
-5.57
-5.68
-5.79
-5.89
-6
-6.11
-6.21
-6.24
-6.27
-6.37
-6.4
-6.48
-6.53
-6.64
-6.72
-6.77
-6.72
-6.53
-6.05
-5.12
-3.28
-1.68
-0.4
0.48
1.23
1.76
2.13
2.08
1.92
1.76
1.49
1.2
0.69
0.27
-0.08
-0.45
-0.99
-1.44
-1.79
-2.16
-2.56
-2.99
-3.36
-3.6
-3.71
-3.81
-3.92
-4
-4
-4
-4.03
-4.13
-4.16
-4.24
-4.35
-4.48
-4.61
-4.83
-4.96
-5.07
-5.17
-5.36
-5.47
-5.57
-5.68
-5.79
-5.89
-6
-6.11
-6.16
-6.24
-6.35
-6.4
-6.4
-6.48
-6.53
-6.56
-6.67
-6.72
-6.56
-6.21
-5.47
-4.32
-2.27
-0.67
0.48
1.23
1.76
2.08
2.29
2.19
1.92
1.68
1.41
1.12
0.61
0.24
0
-0.37
-0.85
-1.28
-1.63
-2.05
-2.4
-2.75
-3.12
-3.44
-3.52
-3.57
-3.6
-3.63
-3.68
-3.68
-3.71
-3.87
-4
-4.11
-4.21
-4.32
-4.53
-4.69
-4.88
-4.99
-5.09
-5.2
-5.31
-5.47
-5.6
-5.71
-5.81
-5.92
-6.03
-6.13
-6.24
-6.27
-6.37
-6.48
-6.56
-6.61
-6.64
-6.64
-6.53
-5.92
-4.96
-3.68
-2.24
-0.32
1.01
1.84
2.27
2.53
2.56
2.48
2.21
1.92
1.68
1.36
0.96
0.53
0.16
-0.16
-0.61
-1.15
-1.6
-1.95
-2.32
-2.64
-2.96
-3.23
-3.36
-3.47
-3.52
-3.52
-3.52
-3.52
-3.6
-3.63
-3.73
-3.76
-3.95
-4.05
-4.16
-4.37
-4.59
-4.72
-4.85
-5.01
-5.12
-5.23
-5.39
-5.52
-5.63
-5.73
-5.84
-5.95
-6
-6.08
-6.19
-6.29
-6.32
-6.43
-6.53
-6.56
-6.64
-6.64
-6.4
-5.87
-4.96
-3.68
-1.52
0.13
1.28
1.95
2.48
2.8
2.77
2.67
2.48
2.21
1.84
1.52
1.01
0.64
0.32
-0.05
-0.59
-1.04
-1.39
-1.76
-2.08
-2.51
-2.83
-3.04
-3.15
-3.25
-3.36
-3.36
-3.36
-3.36
-3.39
-3.49
-3.52
-3.63
-3.79
-3.92
-4.05
-4.27
-4.48
-4.61
-4.77
-4.96
-5.07
-5.23
-5.36
-5.44
-5.49
-5.6
-5.71
-5.81
-5.92
-5.95
-6.05
-6.16
-6.24
-6.29
-6.4
-6.48
-6.53
-6.48
-6.29
