595
598
598
595
584
574
552
531
505
485
472
461
456
448
437
427
416
401
385
367
345
318
294
269
246
219
205
202
231
285
349
405
449
469
483
489
493
496
497
501
504
509
508
503
493
481
463
449
440
435
429
423
415
405
395
384
373
363
352
341
326
313
297
286
286
309
361
431
493
544
582
606
622
632
642
643
646
646
646
643
638
627
614
594
578
567
562
555
544
534
523
509
489
473
457
441
425
409
393
373
355
333
317
306
305
349
405
469
528
571
594
607
612
618
622
622
622
622
622
618
607
596
582
564
548
538
536
534
530
528
523
518
508
500
481
464
445
429
413
400
389
375
361
341
318
291
265
255
269
313
384
461
522
566
592
606
612
618
622
622
622
622
616
611
602
584
563
542
520
504
497
492
487
481
475
464
453
441
428
413
401
385
365
344
322
301
275
254
233
210
186
168
158
168
221
290
371
445
497
532
554
564
575
582
586
588
590
590
584
570
556
535
518
504
499
497
493
491
485
475
467
457
445
432
421
407
396
385
379
368
357
345
331
317
310
323
377
455
540
618
676
720
746
762
776
786
796
804
814
818
821
822
817
809
794
780
766
758
753
745
734
722
709
690
670
651
630
608
587
566
548
530
514
501
485
465
445
429
429
456
520
598
672
734
782
812
830
842
856
864
871
876
881
887
888
885
875
863
846
838
828
814
802
790
777
766
745
724
702
680
659
638
616
595
574
554
535
514
492
468
445
419
395
377
397
451
530
612
685
742
780
798
814
825
833
842
848
853
859
859
853
842
829
808
786
769
753
738
718
700
678
656
632
606
579
550
518
491
461
433
401
369
345
319
295
273
245
215
189
167
148
156
202
290
385
472
536
586
606
619
630
640
651
662
671
676
682
684
675
666
646
632
622
608
600
594
590
587
578
572
564
558
547
536
530
519
511
501
485
469
453
433
415
401
400
432
493
570
642
706
744
773
790
801
812
818
824
829
830
834
834
830
820
806
790
776
765
750
736
725
710
697
675
658
636
612
590
568
544
522
500
479
461
445
427
405
385
369
365
388
444
522
596
660
702
732
753
766
780
785
794
801
806
810
810
810
802
788
774
758
744
733
718
708
694
678
658
639
618
596
575
554
532
514
497
481
465
453
437
421
401
384
368
357
387
440
514
591
658
706
740
758
770
777
782
786
788
790
794
793
788
774
757
736
714
693
671
654
634
618
598
576
555
534
507
485
465
445
427
409
389
373
353
331
310
289
262
235
209
183
164
185
237
317
401
464
509
538
556
567
574
583
588
594
598
600
602
600
595
590
580
572
570
564
559
558
558
558
554
548
543
534
524
519
509
503
492
481
483
501
546
612
688
750
805
848
883
904
923
939
951
964
975
984
989
991
993
985
975
968
960
955
953
945
939
927
911
891
873
852
826
800
770
742
712
682
654
626
596
570
547
523
501
479
452
425
400
381
385
444
527
618
700
764
810
844
863
883
899
915
931
937
948
955
964
967
963
956
948
939
933
928
923
917
909
895
880
867
846
829
808
786
765
744
722
701
679
662
640
619
598
571
547
522
496
477
485
527
596
662
720
762
794
806
817
822
833
844
850
856
861
863
867
864
859
846
833
826
818
816
814
808
797
786
776
765
754
744
730
718
702
684
662
644
631
626
652
701
754
805
848
879
900
916
931
937
948
955
960
965
967
965
960
951
939
928
923
917
912
903
892
876
855
833
812
790
768
741
714
688
658
630
598
566
534
500
468
437
404
369
337
301
271
265
311
408
534
643
732
794
833
857
871
881
889
891
897
903
903
901
899
895
880
867
855
844
833
822
816
805
790
774
756
738
721
700
678
652
631
610
588
567
546
524
503
481
460
441
425
445
493
566
646
710
758
792
813
830
842
853
863
872
875
879
883
880
871
860
849
834
824
813
802
786
768
746
725
704
682
654
624
598
567
538
505
475
445
413
387
357
325
293
261
229
209
195
221
283
375
465
534
582
618
638
651
662
671
679
690
694
697
702
697
689
682
671
660
650
639
631
630
619
611
606
596
588
578
567
556
546
528
509
489
472
451
429
408
387
377
381
427
497
578
644
698
734
761
782
797
808
818
824
829
834
836
838
834
824
810
798
788
774
762
746
730
714
693
671
650
624
600
578
551
524
497
476
455
433
412
391
369
344
327
317
343
399
473
546
604
646
679
698
714
725
736
746
752
757
762
762
760
754
744
730
718
706
696
690
678
659
646
630
614
594
576
555
534
514
495
473
453
437
417
396
375
353
326
302
281
267
273
317
389
469
538
592
630
662
678
692
702
713
724
730
734
737
738
732
721
710
696
685
674
662
662
662
650
631
610
598
579
562
542
523
505
488
469
449
432
419
409
393
375
357
334
310
289
274
277
309
393
471
542
596
636
662
682
698
710
721
729
734
737
748
754
753
745
730
713
694
678
667
659
650
638
622
610
592
574
554
532
511
489
468
447
425
400
379
357
331
307
277
250
226
213
230
289
369
452
522
582
619
646
662
672
680
686
696
701
702
706
698
682
662
648
642
632
632
638
643
648
650
654
651
642
631
615
598
578
559
538
512
491
469
472
499
554
622
686
738
777
804
826
842
853
863
872
877
883
887
887
879
861
842
822
812
801
786
773
752
730
709
688
662
634
604
578
551
522
489
459
432
409
383
353
321
289
254
221
205
215
281
372
471
554
612
658
690
710
726
738
752
757
766
770
773
766
754
736
714
700
689
678
667
659
658
646
632
622
600
579
558
536
515
493
468
447
421
399
375
349
331
331
373
439
519
590
647
690
722
742
756
766
776
784
786
790
793
790
785
777
762
742
724
710
693
676
666
650
634
614
592
566
538
516
495
473
452
428
405
379
355
333
318
331
385
456
526
586
623
652
670
680
689
694
698
701
702
701
696
686
674
655
638
618
602
594
586
586
582
566
552
534
512
491
469
448
424
401
380
361
345
333
330
357
419
493
566
628
682
718
740
753
762
768
770
770
778
778
770
758
740
718
697
675
654
634
618
606
584
560
538
515
491
465
443
413
385
360
335
313
286
259
233
242
285
357
449
530
586
624
648
670
680
689
694
696
698
702
697
692
682
664
646
626
610
596
586
583
570
558
548
540
530
508
487
465
444
423
397
367
339
317
302
307
341
412
487
550
595
630
646
659
664
670
675
678
682
682
682
674
663
652
638
622
606
590
584
579
574
568
563
554
542
523
501
475
451
425
395
365
333
298
271
261
286
351
433
503
562
602
620
631
634
638
638
638
631
623
614
603
587
566
543
516
493
479
468
457
452
449
441
429
413
393
367
337
301
258
215
168
126
83
40
11
11
64
173
295
417
485
536
566
584
595
598
598
595
586
574
558
538
505
471
437
403
376
361
351
339
325
313
294
273
250
223
201
175
151
128
96
67
36
12
4
12
64
177
297
399
473
534
559
580
594
603
611
614
618
618
614
598
579
554
523
496
469
452
444
437
427
416
401
385
367
345
325
306
285
263
242
221
198
174
148
130
124
164
245
357
465
546
599
638
654
667
674
675
675
674
668
663
654
638
619
594
572
556
546
532
524
514
503
489
473
456
435
413
392
368
341
314
285
253
219
185
152
119
82
48
23
23
68
166
286
409
488
550
590
608
619
622
622
616
606
594
578
558
534
501
469
439
415
401
392
387
377
371
360
345
333
317
301
283
265
245
229
213
197
177
160
144
126
115
104
106
146
217
334
447
538
607
655
674
688
693
694
689
684
674
662
643
622
596
578
558
547
539
534
527
519
514
501
485
473
456
437
417
401
385
365
344
322
297
275
251
229
210
213
241
327
429
534
612
668
702
725
736
742
746
746
746
741
736
726
710
692
670
648
635
626
620
618
614
607
596
582
560
539
518
491
467
445
423
399
377
352
327
305
287
274
281
347
429
526
606
667
702
728
744
754
760
762
766
766
766
762
753
745
730
716
702
686
679
668
662
655
642
630
619
606
586
570
556
542
526
509
493
477
459
437
420
407
409
444
495
550
595
632
654
668
679
686
692
694
698
698
698
698
693
685
674
663
652
642
635
627
622
616
608
602
591
578
566
554
540
526
514
497
485
471
457
437
420
401
385
392
416
461
514
562
598
623
642
654
664
672
678
688
690
694
702
702
698
693
685
670
658
642
626
622
646
666
678
680
674
662
646
630
608
587
566
544
539
554
599
658
726
778
821
855
880
899
907
917
925
931
935
935
935
928
915
899
879
863
850
836
825
814
804
793
778
762
744
726
705
684
666
650
634
618
600
576
546
511
481
457
444
455
501
586
668
746
805
848
879
900
919
935
952
965
975
976
979
983
972
959
939
913
895
875
864
853
838
818
802
782
761
740
718
692
667
642
619
595
578
556
532
509
484
468
469
515
574
638
693
736
762
777
788
790
797
802
806
806
804
798
786
770
758
737
716
694
678
662
646
628
607
594
576
555
534
516
495
477
461
443
421
401
383
361
341
333
341
396
460
530
588
631
662
692
708
718
721
718
718
718
718
718
708
694
674
656
635
614
602
588
578
563
550
534
516
495
473
447
428
413
393
375
357
335
317
297
289
307
353
429
507
578
631
666
682
693
701
706
713
721
726
725
720
714
706
690
670
652
636
626
614
598
582
570
551
534
516
497
477
456
435
413
392
371
349
322
295
277
289
339
417
501
576
638
676
704
722
737
748
758
764
766
766
765
760
750
738
736
722
706
690
674
662
648
634
612
591
574
556
538
518
496
475
453
425
393
365
343
353
397
465
543
618
666
706
734
753
766
778
789
797
798
801
798
794
785
780
766
752
741
726
709
690
670
648
627
602
578
546
518
493
475
453
429
405
389
375
375
405
456
531
598
654
697
730
736
741
746
757
768
770
774
772
770
758
740
718
696
671
650
624
600
578
556
535
505
477
445
417
395
365
337
309
279
249
217
201
209
255
317
377
429
461
485
496
504
509
509
509
509
508
503
497
485
467
445
424
411
401
400
397
397
397
395
389
379
368
353
341
322
301
279
258
253
275
329
401
472
534
578
610
636
662
688
693
694
698
696
690
684
672
654
632
611
590
575
562
550
534
518
497
476
455
433
408
387
361
334
305
273
246
225
225
267
334
405
471
516
546
567
580
590
591
596
602
602
602
598
591
578
558
542
523
509
500
495
489
484
479
469
453
440
425
413
395
373
352
333
313
305
315
353
424
499
562
606
638
654
663
668
670
670
670
670
670
670
666
655
642
630
612
596
586
580
575
566
554
538
526
508
489
469
448
427
401
379
355
341
361
412
477
546
599
642
654
670
682
688
696
702
706
704
702
690
674
654
632
606
574
547
534
514
496
475
449
427
403
377
351
321
289
257
222
189
173
173
201
266
344
409
461
493
518
527
532
542
547
550
554
555
558
554
546
530
514
497
487
477
476
473
477
467
453
441
427
413
393
380
359
337
318
307
329
379
451
530
598
648
682
701
712
722
736
757
770
777
772
762
756
742
726
710
692
674
658
642
622
604
588
570
547
520
485
452
431
409
387
363
341
351
391
453
526
590
630
659
675
686
693
701
706
708
710
714
710
708
698
680
662
642
631
615
598
582
566
554
542
526
509
497
479
461
439
407
373
347
360
421
492
559
614
644
668
682
692
700
702
702
705
706
706
704
694
679
671
662
650
634
618
603
590
574
567
554
538
516
495
473
452
428
405
385
385
409
473
538
598
650
679
694
704
709
714
714
714
714
714
714
706
689
667
642
614
587
570
550
531
509
491
475
453
432
411
385
357
327
297
261
226
217
241
294
357
427
475
501
522
535
542
539
528
526
522
522
518
512
501
485
467
453
449
447
452
453
453
453
449
440
432
417
396
375
353
327
314
317
363
427
497
559
612
646
664
672
678
685
690
694
694
694
690
679
666
646
626
610
594
588
580
570
558
542
530
512
493
473
451
427
405
383
359
345
365
416
469
527
578
622
643
659
670
675
684
686
690
693
694
692
680
670
650
631
614
595
584
570
554
540
526
514
500
485
465
447
429
408
389
369
368
395
445
514
575
622
655
674
690
700
705
714
720
722
726
726
721
710
702
700
690
678
664
650
634
615
594
570
554
538
520
501
481
459
435
409
388
369
381
427
499
574
636
682
714
730
744
754
764
772
778
784
789
786
781
773
758
738
722
710
696
688
678
666
652
642
620
599
578
554
538
518
500
481
465
481
540
630
729
817
879
920
939
951
953
948
939
933
931
927
923
920
903
881
860
838
825
804
786
765
741
718
690
660
630
596
562
530
495
452
409
368
333
317
353
439
554
643
716
762
786
800
802
802
802
802
796
788
778
766
750
730
705
680
658
640
624
610
599
586
570
548
527
505
484
460
429
396
361
325
295
285
313
385
481
570
635
678
710
726
740
746
748
753
754
754
752
742
726
708
682
660
639
622
607
596
586
568
550
530
508
487
461
439
409
381
349
317
289
279
306
373
473
564
634
685
712
730
740
745
750
752
754
750
744
733
718
696
668
638
611
590
574
558
539
518
496
472
445
413
381
349
321
289
253
219
182
148
126
126
160
259
367
465
535
583
610
627
635
642
646
646
646
646
643
634
622
606
594
579
566
554
548
543
538
527
516
505
491
480
465
448
429
409
389
371
357
379
437
522
608
675
722
753
772
786
796
801
806
810
810
810
809
801
786
774
756
738
722
706
690
674
655
634
612
591
566
539
515
489
460
436
413
392
368
341
331
343
385
456
531
586
630
662
686
698
709
718
728
733
738
742
742
742
736
725
710
704
696
690
684
672
666
655
644
630
614
600
586
570
551
534
512
491
469
444
425
413
453
518
598
674
736
778
812
830
850
867
880
891
900
905
911
913
908
899
883
867
850
840
826
810
789
768
746
718
689
658
620
586
554
516
479
441
404
367
325
287
263
261
327
419
518
595
646
678
702
718
730
737
742
746
748
750
746
736
725
714
700
692
686
685
682
682
675
664
654
636
618
598
575
551
526
495
471
461
483
539
614
686
745
790
812
830
842
852
860
867
871
873
875
872
861
850
834
818
802
788
774
758
737
716
690
667
638
606
570
535
501
465
431
397
364
326
289
246
203
160
127
130
189
307
439
562
631
688
722
742
758
766
774
777
778
781
776
770
749
728
702
680
662
642
632
627
618
611
595
574
552
528
505
479
452
429
403
376
349
326
297
269
239
221
221
265
343
441
530
602
654
688
709
722
732
737
738
738
736
730
720
706
690
670
654
638
628
620
610
603
590
570
548
524
501
475
448
421
389
360
333
306
279
253
222
193
160
132
103
72
68
87
144
239
347
437
512
566
602
622
632
642
642
642
634
623
607
586
564
546
526
515
507
501
503
508
509
505
503
493
477
464
445
424
403
389
380
399
449
523
603
682
730
773
806
826
842
850
859
859
855
848
837
822
801
780
758
738
720
698
676
652
622
594
562
530
492
455
417
380
343
301
263
229
193
155
118
80
44
12
4
0
0
8
118
243
369
475
558
610
643
664
678
684
684
678
667
656
638
616
592
570
544
526
509
504
496
489
479
465
453
443
429
413
397
384
369
353
337
321
306
293
277
267
270
297
379
472
566
643
697
730
752
768
778
785
790
794
793
790
782
772
761
746
736
725
710
704
690
674
654
638
626
608
590
570
548
530
514
497
479
461
447
431
409
392
379
369
405
467
546
616
672
710
744
762
774
786
797
802
808
810
814
813
808
794
778
762
742
732
718
702
680
656
634
607
578
546
512
477
441
405
376
349
319
295
269
243
219
193
166
142
128
140
194
289
396
495
574
626
663
686
705
716
722
726
724
714
701
679
650
628
607
590
571
560
554
543
532
518
501
488
473
452
431
413
392
368
345
319
295
273
246
222
205
206
235
313
417
524
614
676
722
754
773
784
790
794
792
790
784
770
754
733
712
694
674
658
650
642
626
610
594
575
554
532
511
489
464
440
417
392
368
341
318
294
273
267
286
349
440
539
626
684
726
754
774
788
794
798
801
802
797
789
774
758
740
718
697
675
658
643
630
614
596
578
562
540
519
497
472
451
429
408
387
361
339
318
297
285
293
345
425
522
614
682
733
770
790
804
814
822
822
822
821
813
802
786
768
750
734
718
702
680
659
638
615
588
562
540
516
489
464
440
413
388
364
337
314
290
265
238
211
197
199
237
305
403
493
570
622
662
686
702
705
706
705
700
694
688
674
658
636
615
602
586
572
570
568
566
562
560
558
554
544
539
530
512
491
469
453
451
477
536
616
690
750
793
826
848
861
871
872
875
871
861
853
834
813
792
770
750
732
710
688
663
638
612
588
562
524
487
449
416
379
341
305
273
241
205
173
136
104
72
40
16
3
12
63
167
301
429
534
610
659
692
714
728
733
734
730
725
714
701
679
654
623
594
574
560
555
550
543
535
526
514
497
485
471
457
445
429
413
393
381
365
345
325
306
305
333
392
473
564
642
702
742
774
798
812
817
818
817
812
802
792
778
762
742
726
714
698
682
662
639
615
590
563
534
505
480
456
429
403
376
349
326
302
277
254
230
221
235
289
369
467
555
630
679
714
738
756
764
766
770
765
754
748
732
714
694
675
654
639
631
630
623
612
602
586
567
550
532
511
489
472
451
429
417
404
405
436
503
586
664
732
778
810
832
846
852
855
855
849
841
826
809
788
762
742
724
706
689
664
642
616
592
562
530
500
469
436
401
369
337
305
273
245
213
177
155
139
144
198
291
405
516
599
662
704
733
750
761
769
774
778
776
770
760
746
726
710
694
678
667
656
654
648
643
634
622
608
594
574
558
542
522
505
489
468
449
433
437
467
514
575
631
674
708
729
750
762
773
778
784
789
794
794
792
786
780
769
754
748
737
730
722
706
686
664
643
622
598
568
542
515
488
461
440
419
397
371
344
313
307
323
377
461
542
606
654
686
710
721
729
734
736
738
742
737
732
722
706
688
666
644
623
602
586
570
554
536
515
493
471
447
421
395
368
341
314
287
265
238
211
185
162
138
124
136
190
273
359
433
489
526
547
562
571
579
586
594
596
598
596
586
570
554
535
518
504
496
489
483
472
461
445
432
417
397
379
361
341
325
305
287
269
249
229
218
229
282
376
477
568
632
678
705
721
730
736
738
742
742
742
742
736
722
706
685
663
650
640
632
626
618
602
582
560
539
518
495
471
445
420
396
373
347
319
293
277
279
321
404
497
578
642
685
710
726
737
746
746
746
746
741
736
726
714
696
674
652
636
626
611
598
586
568
547
526
503
476
449
419
392
361
329
297
265
233
203
173
170
199
269
373
469
542
590
619
642
652
658
662
660
658
650
640
632
614
592
568
538
531
526
522
522
524
526
526
523
514
501
488
473
452
431
409
391
383
405
464
544
630
692
737
770
789
800
802
806
806
806
804
796
786
769
748
726
701
679
658
636
615
594
571
542
509
477
443
409
373
341
309
282
255
229
202
175
152
139
163
241
352
467
570
631
676
706
725
738
742
746
749
750
749
744
734
722
704
682
663
650
634
626
623
618
612
604
598
586
567
554
536
518
501
484
463
445
427
419
433
479
551
626
684
729
766
782
796
806
816
824
826
830
833
834
829
821
810
798
785
774
764
750
730
713
692
666
643
614
586
554
519
489
457
425
393
360
327
305
294
313
373
453
534
602
647
679
702
709
717
722
722
722
722
718
716
706
690
676
662
651
646
646
642
642
642
642
639
634
628
620
606
586
567
546
528
512
514
554
610
670
722
765
794
817
828
834
838
841
846
846
846
842
834
818
806
790
774
762
752
738
718
696
666
634
602
570
534
496
461
425
392
357
321
279
239
205
181
199
265
375
481
574
635
684
718
737
750
762
768
773
778
780
780
770
758
740
718
697
678
662
651
640
630
618
599
578
558
539
518
496
475
449
427
403
377
360
352
381
441
522
598
656
702
730
750
764
770
780
785
786
790
793
790
784
768
746
725
704
682
656
635
614
591
564
534
507
477
449
420
396
369
343
315
285
258
231
213
211
246
321
403
480
538
575
599
614
623
628
634
638
638
638
632
624
614
598
582
566
556
556
558
562
564
566
564
559
550
538
522
501
480
459
437
419
419
437
503
578
650
705
745
770
785
793
798
804
806
810
809
806
798
786
768
746
730
714
694
672
651
630
607
580
554
522
489
457
424
389
357
326
297
265
233
203
181
194
253
349
453
539
606
650
682
698
713
721
726
732
734
734
733
725
710
694
675
654
636
618
598
592
587
582
571
558
546
532
511
489
468
447
421
399
372
353
347
376
441
516
586
646
679
709
726
741
752
758
764
769
770
774
772
766
754
738
722
708
694
674
652
631
610
587
563
538
516
492
469
443
416
385
353
323
297
285
301
357
431
500
558
594
620
642
648
659
666
667
672
674
668
660
646
634
620
610
600
595
590
594
596
598
598
595
582
571
560
542
519
489
465
447
444
469
531
600
666
718
761
790
808
816
822
828
833
834
834
832
822
806
788
766
750
734
722
705
684
662
638
606
574
538
503
469
432
395
353
310
267
229
198
190
245
343
455
558
631
685
718
738
754
762
772
777
778
782
777
766
753
732
710
688
660
638
622
606
590
572
551
534
512
491
469
444
420
389
353
323
293
290
319
385
475
558
618
660
685
702
713
718
722
724
726
726
717
712
698
676
655
630
608
592
582
570
554
538
516
495
473
447
423
397
365
333
301
271
250
261
315
396
489
552
603
634
651
659
662
666
663
658
651
643
634
616
595
566
535
511
489
475
464
453
447
433
417
401
383
361
338
311
281
249
222
201
210
261
345
441
519
578
615
634
646
646
646
650
644
636
626
614
595
574
546
524
514
504
496
489
479
468
453
436
415
393
372
351
329
301
266
237
219
243
309
407
495
570
611
640
658
666
668
670
670
667
658
652
644
630
608
587
562
543
532
522
515
507
497
485
469
453
439
423
401
377
345
313
287
282
309
377
463
534
592
630
654
664
670
674
675
678
678
672
667
658
644
623
598
575
551
534
523
509
497
481
465
445
428
404
377
345
313
277
241
211
213
261
335
425
488
539
570
583
588
590
586
583
574
563
552
542
520
496
465
435
411
393
379
371
361
355
344
329
317
301
285
263
242
221
195
185
201
269
363
457
543
594
626
640
648
650
643
638
630
618
599
578
550
518
481
460
444
429
424
416
409
397
379
357
335
311
281
253
221
185
158
152
209
302
415
522
594
642
670
685
693
698
694
694
690
685
676
662
644
618
590
563
536
526
520
515
505
495
487
477
461
443
425
404
380
353
341
360
413
493
571
634
678
705
714
724
729
730
732
734
730
724
713
694
672
648
622
596
575
546
524
503
481
459
432
405
377
343
301
262
225
193
189
223
301
393
471
530
563
582
594
599
602
602
602
599
598
591
578
562
539
515
497
492
489
489
484
479
473
463
449
429
408
381
353
329
315
349
421
518
610
682
730
762
777
785
790
797
792
782
776
765
750
733
706
678
651
624
602
580
559
538
516
495
469
443
413
377
341
309
277
267
302
373
464
550
618
658
688
702
712
717
718
724
726
722
716
705
686
663
636
610
591
580
570
564
554
538
518
499
477
455
425
385
347
314
301
344
416
497
576
632
670
690
704
718
725
730
730
724
713
702
684
654
622
584
552
526
505
487
465
444
423
397
371
341
305
266
223
185
147
126
152
217
310
405
472
518
546
560
568
574
578
580
582
576
566
550
527
500
473
453
440
433
429
427
421
415
404
389
372
351
329
298
274
269
303
376
469
554
626
678
709
733
746
761
769
778
785
788
782
770
752
730
704
676
654
632
614
598
580
559
538
515
491
469
447
420
393
368
371
405
476
551
618
668
696
718
729
740
750
756
758
758
760
760
750
733
712
690
664
648
634
612
591
570
548
527
501
476
455
429
401
372
353
369
423
493
571
635
682
704
720
730
740
745
750
750
748
742
732
721
706
685
660
634
612
591
570
544
520
493
467
440
413
381
344
305
270
246
253
301
373
453
511
556
590
610
626
630
635
640
642
640
635
630
618
599
582
563
552
550
546
546
546
544
539
534
522
505
493
472
453
433
441
476
538
610
671
714
746
762
774
780
785
790
790
790
786
780
766
746
721
702
686
664
648
634
616
595
574
552
528
505
477
445
409
383
367
373
421
491
562
620
658
682
698
709
718
728
730
734
734
734
726
713
692
670
650
634
614
594
575
554
526
496
469
441
412
381
351
321
293
273
281
321
381
440
497
524
543
554
555
558
558
556
551
542
530
511
493
473
460
441
423
409
405
405
403
393
388
375
357
339
318
293
271
255
245
261
301
353
407
455
489
514
530
546
556
567
578
579
582
582
574
558
546
531
518
497
493
493
493
488
485
477
468
463
453
443
429
413
407
407
437
493
563
622
667
702
726
748
764
778
789
800
806
814
814
810
804
793
782
772
761
746
730
712
690
668
647
626
598
568
538
507
477
449
425
428
457
503
554
598
624
648
666
676
688
694
702
705
706
709
704
698
682
666
654
644
639
630
619
608
594
578
559
542
526
509
489
473
460
457
492
540
598
644
685
710
729
742
754
765
776
786
788
790
790
784
770
758
744
733
726
716
705
694
674
658
638
618
599
578
552
528
501
489
492
522
571
624
670
705
732
754
776
792
806
817
828
834
838
838
834
822
809
794
784
773
758
742
724
706
685
666
646
624
603
578
555
531
514
511
535
578
627
672
710
726
740
750
760
768
774
778
781
778
768
754
734
712
688
662
640
616
594
572
548
518
495
468
441
413
379
349
315
281
257
255
282
329
387
435
465
488
499
509
519
527
538
543
546
542
539
526
514
503
495
489
484
481
485
485
485
481
476
471
465
459
448
433
423
420
441
489
559
630
696
746
790
816
834
850
871
887
899
907
909
911
908
897
883
871
857
850
840
829
822
813
794
774
752
728
702
670
638
602
568
550
554
588
634
686
718
745
758
764
772
774
774
772
770
758
745
726
705
680
658
639
626
606
584
563
542
520
499
473
451
424
397
371
344
321
294
275
269
299
353
417
476
519
550
571
590
606
616
627
638
643
648
650
643
632
614
598
587
578
576
574
574
578
580
582
586
583
578
571
558
542
522
503
501
526
579
646
710
761
798
820
838
850
861
872
875
879
881
879
868
852
834
814
798
786
774
758
738
721
700
678
656
635
610
583
556
526
493
464
437
447
484
542
608
667
706
736
754
766
777
785
790
790
788
782
773
765
746
729
710
694
682
666
650
634
615
594
572
551
530
512
493
473
452
431
405
385
391
425
481
546
610
651
684
706
726
742
754
765
773
774
777
772
762
745
724
702
680
659
638
616
595
574
552
528
501
473
441
413
383
353
321
289
257
229
234
269
333
405
464
509
539
558
574
584
595
602
611
616
618
615
604
594
582
568
558
548
546
546
544
536
526
515
504
489
479
465
449
428
407
393
383
401
449
526
598
662
704
733
754
769
782
794
800
805
814
814
809
798
786
768
754
740
726
706
690
671
650
627
600
574
543
514
485
457
425
389
363
344
341
376
443
518
584
635
670
696
712
722
737
748
754
762
765
762
752
736
714
698
682
666
650
631
610
588
567
542
515
491
465
443
416
385
349
314
281
258
266
305
376
445
505
544
568
578
586
588
590
594
594
590
578
562
542
519
489
461
443
432
421
420
412
405
399
385
377
367
356
345
333
319
305
289
273
277
307
369
441
504
552
586
596
604
610
615
618
618
616
608
598
576
555
538
519
511
505
500
495
489
479
468
453
441
425
409
396
372
345
318
291
269
267
302
365
448
518
574
615
634
646
655
660
670
671
674
670
662
643
622
596
575
554
543
535
526
520
512
501
491
477
457
440
419
397
376
349
321
295
274
289
334
407
481
544
587
614
628
639
650
659
664
666
670
670
662
648
627
606
583
559
550
539
531
522
504
485
469
448
427
401
375
348
317
289
257
225
217
238
293
376
451
505
544
568
582
588
594
598
599
602
598
587
576
562
540
522
501
500
497
501
501
501
501
495
487
481
471
460
449
429
411
393
377
380
413
480
555
630
676
712
734
745
756
762
766
769
770
770
768
758
742
724
706
688
676
658
642
626
606
584
560
534
511
484
461
436
412
381
353
331
321
360
427
505
579
632
674
700
716
730
737
748
754
756
758
758
752
736
714
697
675
658
638
622
606
586
567
546
524
500
469
443
416
385
352
314
289
274
295
353
431
505
562
600
622
634
643
648
650
650
647
638
627
611
590
562
530
514
499
491
489
483
475
469
464
456
445
429
411
389
368
347
321
301
298
321
379
451
514
562
591
614
620
628
634
635
638
638
632
624
610
588
564
542
530
519
514
512
504
497
491
480
469
448
429
409
388
364
333
305
289
301
357
445
546
624
689
730
760
781
798
814
828
834
841
846
842
832
816
794
776
762
750
736
722
706
689
667
646
619
590
562
530
497
461
423
385
353
355
397
477
570
647
702
737
758
774
780
782
786
785
780
770
757
736
706
672
638
602
570
543
518
488
464
433
401
372
341
313
281
249
211
174
136
103
92
124
210
309
405
465
508
538
555
563
574
578
578
570
564
556
538
516
495
481
467
459
457
452
447
441
429
413
397
377
359
337
315
291
261
235
230
269
359
468
562
638
694
730
756
772
782
792
800
806
805
800
786
765
744
718
696
671
650
630
611
590
568
544
518
491
467
441
413
381
345
310
286
293
349
435
534
608
670
710
730
746
754
758
761
762
761
756
750
734
716
694
668
647
626
604
586
566
539
512
481
449
415
381
349
314
273
234
194
156
143
170
249
353
449
522
566
592
610
616
622
626
626
620
610
598
579
558
530
503
481
471
465
465
469
469
469
468
460
449
439
423
405
384
360
337
326
348
405
495
586
662
717
749
766
780
785
786
790
790
786
780
769
750
729
708
690
672
654
634
616
595
574
547
520
493
461
429
401
375
345
309
283
273
301
377
476
562
631
676
706
726
737
746
752
754
754
753
748
738
721
700
674
658
642
630
618
602
590
576
558
538
516
495
473
451
427
397
363
335
325
355
424
518
596
663
710
740
758
766
776
781
786
789
784
778
765
744
722
692
664
642
616
592
570
543
516
489
461
429
401
369
334
297
259
222
185
151
135
164
241
351
453
530
580
614
630
640
646
647
647
646
640
632
622
604
583
566
547
542
538
538
535
534
527
516
505
492
471
453
432
408
381
356
337
337
400
491
598
685
749
790
817
830
842
846
849
846
845
837
826
809
788
766
745
724
702
685
666
646
624
603
578
547
520
493
465
433
397
365
333
309
317
360
433
511
575
622
652
668
678
688
693
698
702
700
690
684
670
650
634
615
598
583
572
566
555
542
522
500
479
453
431
407
381
349
317
285
255
250
273
343
415
485
535
570
586
600
608
610
615
618
618
616
608
594
576
552
530
515
504
493
488
483
477
467
456
445
435
421
401
385
367
345
323
307
313
356
433
518
590
643
682
698
712
718
724
729
730
730
728
718
701
679
658
638
619
606
591
578
562
540
522
501
479
455
433
411
381
353
326
302
289
314
368
441
515
579
622
654
670
686
702
716
726
733
738
738
730
714
698
680
664
654
643
635
630
620
612
598
582
566
550
532
511
489
467
440
417
413
437
497
575
655
722
764
793
810
821
832
842
850
853
859
863
863
855
834
816
798
778
762
742
717
693
666
634
604
578
546
514
481
449
417
377
339
315
305
349
408
473
524
564
582
595
600
602
607
610
610
608
606
598
582
566
546
531
520
509
509
509
509
508
500
493
483
469
457
441
423
397
376
355
353
381
445
518
586
639
682
698
712
722
728
733
734
738
736
730
718
702
682
662
646
630
614
598
582
567
554
534
518
499
477
456
432
409
383
359
341
357
408
481
559
626
670
702
718
730
737
745
754
760
762
762
756
742
722
705
686
670
652
634
614
592
571
554
534
515
493
472
451
425
399
369
345
335
355
409
477
539
590
620
639
650
651
656
662
666
666
666
660
650
634
611
587
570
560
555
546
535
524
514
497
481
465
444
423
397
371
344
317
303
314
353
433
516
590
638
670
686
696
701
702
702
700
694
684
672
654
628
607
586
575
567
558
551
538
522
501
483
461
440
416
389
357
325
289
266
269
317
401
495
578
636
671
698
709
717
722
728
733
734
730
725
714
693
671
654
634
618
610
604
599
586
570
551
526
504
480
453
425
393
361
331
321
345
419
507
594
654
697
722
736
741
742
742
742
742
737
732
722
701
679
658
636
612
590
574
560
542
520
499
477
447
420
389
356
318
277
239
205
185
218
298
393
483
544
590
611
624
630
631
634
630
620
612
598
576
555
526
500
481
469
460
455
449
444
439
429
419
408
397
380
359
337
315
297
293
325
389
473
548
610
650
670
684
686
690
693
694
689
684
678
656
635
614
590
574
562
558
555
546
532
511
489
468
447
425
399
369
337
303
271
253
282
352
449
548
623
674
708
724
738
744
749
754
756
756
750
740
724
702
675
651
634
622
608
598
587
574
554
536
515
493
471
447
421
389
355
333
331
372
449
536
611
666
697
718
726
736
741
742
742
742
734
722
704
682
654
622
594
567
543
526
509
491
469
448
427
401
371
344
313
281
249
213
186
173
201
270
361
437
500
535
554
564
570
574
575
578
578
568
563
550
532
514
497
481
473
469
471
471
469
464
456
445
433
420
405
385
367
345
323
323
361
436
527
618
675
721
750
769
780
782
786
789
790
789
784
774
753
732
710
689
670
650
634
618
598
576
555
530
499
472
449
423
393
361
327
306
309
377
468
562
639
693
726
746
760
770
776
778
782
782
780
774
762
744
722
701
685
670
654
635
614
592
568
546
519
492
461
433
399
357
315
275
249
247
303
397
499
582
642
671
688
694
694
697
698
698
696
686
672
651
626
595
566
550
538
535
534
528
523
518
505
489
473
452
428
405
377
348
317
318
353
433
538
634
698
744
765
778
784
786
790
789
786
778
766
748
726
700
675
654
632
611
590
568
544
518
491
464
437
409
380
349
311
277
245
223
245
321
427
534
630
678
713
734
744
752
754
758
756
750
738
725
706
684
654
626
606
590
582
571
558
538
516
495
473
452
425
397
369
334
297
263
247
265
344
437
522
592
635
662
680
689
694
694
692
686
679
666
654
632
606
574
552
539
530
524
522
514
504
493
473
452
428
401
375
348
321
301
285
305
367
452
538
606
651
678
689
694
698
702
700
694
688
676
662
639
615
594
576
568
566
560
552
538
522
503
481
460
436
409
379
349
317
291
281
293
359
433
505
554
586
598
606
606
606
600
595
586
575
562
542
520
496
469
444
425
405
393
375
357
341
322
305
287
266
245
222
195
164
140
127
140
186
255
321
376
413
445
456
467
473
483
491
493
497
495
489
473
455
437
417
399
389
380
375
369
359
348
337
325
309
293
273
254
233
211
195
201
253
325
405
477
534
574
602
618
634
650
663
674
680
686
686
684
670
658
643
630
618
612
610
606
599
588
574
558
542
522
500
476
445
425
417
429
476
543
606
656
692
714
725
733
738
744
746
750
745
740
730
717
698
678
662
643
626
610
594
582
560
539
518
496
475
449
428
407
385
369
369
401
460
535
610
658
698
722
737
750
762
773
781
786
790
790
786
774
758
742
729
721
710
698
682
666
648
627
602
580
554
530
501
469
441
415
401
413
468
535
602
654
686
710
720
725
734
736
738
738
737
729
718
705
684
662
636
618
602
586
570
554
536
515
493
472
448
425
404
383
361
344
338
361
411
480
554
607
647
670
680
689
694
698
701
702
701
693
678
664
643
626
607
594
586
575
562
550
538
524
505
485
469
449
424
403
381
363
363
385
455
527
598
651
686
702
717
725
734
741
746
750
750
750
742
726
710
694
679
668
654
643
630
614
594
575
562
546
530
509
488
467
445
425
417
437
489
570
646
708
753
786
802
816
826
837
848
855
859
856
850
833
812
794
774
758
742
724
708
686
664
640
614
587
558
526
492
452
409
371
335
313
345
415
501
578
636
678
705
716
722
726
729
730
730
730
726
714
696
678
660
644
642
639
634
630
623
612
598
583
567
546
523
496
465
439
417
417
468
551
642
718
774
810
830
841
850
852
855
859
853
848
834
817
796
766
744
720
698
678
659
642
620
596
574
546
516
485
453
419
381
341
311
309
353
425
518
587
643
674
693
704
706
710
713
714
713
708
698
685
663
642
620
599
586
580
570
554
538
519
501
480
459
437
415
388
361
333
306
293
319
376
453
528
584
622
646
656
666
667
670
670
668
660
654
640
619
598
566
544
530
524
519
514
508
503
489
472
451
429
403
376
345
313
278
257
259
313
401
503
588
650
685
706
718
726
729
730
734
734
726
720
704
682
660
639
630
626
623
618
602
586
566
543
519
493
461
429
393
355
319
289
321
391
485
580
652
694
717
728
734
738
738
734
725
717
702
685
663
634
606
576
550
532
511
493
472
448
421
396
372
345
313
283
253
221
191
177
189
239
309
372
420
457
469
480
485
485
485
485
480
475
465
449
431
405
380
361
349
339
331
321
310
297
281
269
253
237
221
205
189
167
151
140
155
201
265
338
405
449
481
497
505
512
520
526
531
528
522
508
487
465
439
415
397
387
379
373
367
356
345
330
319
305
287
269
249
229
210
193
182
195
249
322
403
469
511
535
550
555
560
566
570
572
574
567
554
538
511
481
449
420
399
385
376
371
365
359
348
337
319
298
277
247
223
201
193
206
245
338
443
542
627
692
738
772
793
810
816
816
810
800
786
766
748
734
722
716
705
694
682
666
646
624
603
586
571
558
542
524
503
485
471
465
493
546
610
666
706
733
750
756
758
762
764
766
766
765
757
746
730
714
698
688
674
658
642
626
606
584
560
534
507
483
457
429
397
369
338
317
313
352
424
509
586
644
682
709
720
730
740
745
754
756
758
754
750
734
718
702
686
674
662
648
634
614
600
586
566
547
526
504
483
457
431
401
369
356
375
445
539
632
710
762
794
810
821
829
834
838
838
838
837
826
810
793
772
750
736
725
714
698
682
662
640
616
586
554
522
485
448
408
365
322
285
257
294
372
477
578
655
698
728
744
746
752
754
754
754
752
742
730
712
690
667
646
634
622
608
598
587
574
558
536
515
493
465
439
413
385
353
321
286
262
269
330
424
538
616
678
718
736
744
746
750
750
746
740
729
718
697
672
646
618
602
582
567
554
538
524
503
481
459
429
401
369
337
305
267
233
197
166
144
160
225
339
457
548
610
654
670
684
690
692
697
698
698
693
682
664
643
622
606
590
582
578
575
574
563
550
534
522
503
485
465
447
421
389
360
333
337
388
481
586
676
738
780
798
810
814
817
818
818
818
814
802
786
766
745
726
710
693
676
662
646
627
606
584
560
538
511
484
461
439
412
385
360
338
353
407
497
594
672
729
766
786
800
806
814
817
818
822
822
814
808
792
774
753
732
714
698
682
666
648
627
602
579
550
522
496
475
453
425
393
361
341
341
381
465
564
646
713
753
778
790
798
802
804
806
806
801
793
782
761
737
714
693
671
650
630
611
590
568
544
514
480
448
421
399
369
337
306
277
245
230
238
285
381
477
558
611
648
666
680
689
694
700
702
706
705
697
682
667
654
642
627
619
618
618
615
606
595
582
570
555
542
522
499
475
449
420
399
401
447
532
626
704
762
802
822
836
846
852
860
863
867
869
871
860
849
834
818
805
794
784
770
754
737
716
694
671
647
622
595
566
538
504
467
429
408
411
449
535
620
698
754
786
810
825
836
846
852
855
859
859
856
850
838
822
806
794
784
778
762
749
730
710
692
670
644
620
590
563
536
509
477
443
413
399
420
481
570
652
722
768
797
818
832
840
850
855
857
863
861
856
846
829
808
790
774
758
738
717
696
674
651
624
594
562
527
493
457
423
385
352
311
273
234
210
241
314
416
514
582
630
658
674
688
694
700
705
706
706
706
698
688
674
658
647
634
630
634
634
634
631
620
610
598
582
562
539
512
485
457
428
401
416
467
550
642
720
774
812
833
846
857
863
867
868
871
871
865
857
842
825
806
786
770
752
734
718
700
678
652
628
602
570
540
514
483
453
421
385
353
329
331
383
465
556
634
690
729
753
766
781
789
798
805
810
814
813
808
794
780
766
750
740
726
710
697
675
654
631
602
574
544
520
497
475
451
425
399
369
345
344
395
481
571
651
718
750
777
794
809
820
826
832
837
838
836
828
818
797
776
758
740
726
706
685
663
638
610
578
546
508
468
433
399
359
325
287
253
221
206
230
305
405
501
574
622
648
670
676
682
686
688
693
694
688
676
666
644
623
606
591
586
582
582
579
578
572
564
554
543
530
509
487
457
429
399
377
373
425
505
598
674
733
774
801
814
826
832
837
842
842
840
834
821
800
778
761
740
718
701
682
662
639
615
586
555
526
493
457
425
389
357
319
281
247
226
253
323
431
538
616
675
714
734
750
762
772
777
782
786
786
782
776
760
738
718
702
690
679
666
650
628
612
598
576
555
534
512
491
469
444
417
385
365
363
397
476
570
646
709
749
774
794
805
814
816
818
822
818
816
806
789
768
746
720
696
670
648
624
602
578
548
518
484
449
417
381
349
317
281
249
217
187
187
221
317
419
509
574
616
638
652
663
670
675
678
678
678
675
666
650
634
618
600
587
582
576
571
566
555
542
526
509
491
469
448
424
397
375
351
345
377
460
562
650
717
766
788
806
818
828
836
838
842
840
838
826
810
790
768
744
722
701
682
662
640
616
590
562
530
497
465
433
405
373
341
309
282
282
321
419
523
610
680
724
750
769
777
786
792
794
798
797
792
782
769
748
726
705
689
678
658
639
618
595
568
546
524
500
473
451
424
397
367
337
313
311
355
433
527
612
678
718
745
762
776
784
786
790
793
790
785
777
758
737
710
682
651
624
594
566
536
505
483
456
425
395
365
333
305
273
237
203
168
144
143
183
277
379
472
542
579
606
622
631
634
638
638
635
626
614
598
578
558
542
530
528
528
530
526
523
514
501
485
469
448
427
401
376
352
329
318
326
369
475
576
666
725
765
790
805
813
818
824
826
822
821
813
798
781
760
738
721
702
682
662
643
622
599
570
542
514
481
449
421
392
361
330
301
281
279
330
421
523
608
674
708
737
754
765
776
778
782
785
782
776
765
750
729
708
686
664
646
634
619
606
586
566
547
526
503
476
449
421
392
361
329
305
293
337
417
514
606
667
706
732
745
754
756
758
758
753
745
734
717
693
670
638
606
578
558
539
522
505
487
465
443
416
389
361
331
301
269
237
205
179
166
181
254
351
449
526
579
614
636
647
654
658
660
662
660
652
638
620
599
582
564
548
542
535
524
514
501
485
469
449
431
409
388
367
341
318
294
281
302
364
457
556
639
698
730
752
762
768
770
774
770
768
762
752
738
718
696
671
650
628
607
594
579
566
546
523
499
477
455
428
397
367
337
305
278
265
277
349
443
538
611
664
694
713
721
726
730
730
730
725
720
710
694
675
654
628
607
590
578
559
542
520
496
469
441
409
377
345
313
281
249
217
185
159
159
201
287
389
485
543
586
614
627
635
638
636
631
626
615
604
594
574
555
538
520
515
514
509
507
497
491
480
465
449
431
409
388
367
345
319
309
321
389
480
570
646
694
722
741
749
758
758
758
754
752
741
730
709
688
666
640
622
602
580
559
534
509
491
469
444
420
389
363
333
305
273
238
209
198
235
313
419
520
598
639
668
686
696
701
702
701
696
686
679
663
642
620
596
582
567
559
554
543
532
522
509
491
473
452
428
401
376
349
317
289
262
257
289
364
461
552
622
670
696
709
718
720
722
718
709
701
690
668
647
618
586
559
542
527
516
505
492
471
449
423
396
369
343
313
285
253
221
189
156
130
108
150
227
329
424
499
542
566
579
586
590
587
582
576
571
562
544
523
501
485
475
465
464
461
461
459
448
441
429
413
397
381
365
345
323
302
285
279
317
397
496
592
674
721
753
774
788
793
794
794
792
786
776
765
750
729
708
686
662
646
630
612
594
574
552
531
509
489
471
449
428
404
377
349
327
325
379
461
554
640
697
734
758
772
782
784
786
790
789
784
778
770
754
734
717
701
686
670
654
638
618
599
578
560
539
518
496
475
449
427
397
369
353
369
425
514
599
674
720
749
766
780
785
786
790
790
782
777
769
754
733
712
690
664
640
618
600
579
554
532
505
473
444
420
393
367
339
309
281
251
233
239
279
349
421
480
522
543
556
566
566
566
562
556
551
546
535
522
505
492
471
457
448
440
437
432
424
413
396
377
361
339
318
301
279
261
241
233
243
281
356
436
514
574
622
650
675
694
714
730
744
754
760
762
766
756
745
730
720
712
702
696
685
674
663
650
634
618
602
582
560
539
518
495
471
461
473
524
602
680
748
806
837
861
879
893
907
915
924
929
931
929
921
907
887
868
850
832
818
798
781
760
738
716
692
666
639
610
582
554
522
489
457
439
441
487
551
622
690
738
770
789
800
810
812
814
814
814
812
806
794
776
754
729
708
682
659
635
614
587
560
534
501
469
437
409
380
353
325
293
265
245
239
265
327
403
477
534
576
606
628
642
654
664
672
682
684
686
686
675
662
650
640
635
634
636
644
650
651
654
654
648
643
638
626
607
586
566
550
546
575
639
722
804
868
923
959
985
1007
1017
1023
1023
1023
1023
1023
1023
1023
1023
1023
1017
1007
997
989
983
969
951
931
913
892
867
845
821
794
762
730
698
678
678
706
781
853
919
968
1003
1015
1023
1023
1023
1023
1023
1023
1023
1023
1023
1015
996
975
957
939
923
912
899
883
861
840
818
793
769
742
716
689
658
626
594
570
562
602
670
745
812
867
897
919
931
940
948
951
955
952
947
936
923
903
876
846
818
789
765
742
717
696
666
639
610
578
542
507
473
436
396
353
310
270
237
243
289
365
455
524
574
599
615
630
636
644
650
650
652
650
644
636
622
606
592
582
572
570
574
578
575
570
559
548
534
522
505
485
464
443
421
403
403
437
518
608
690
750
796
822
841
852
863
868
873
879
877
872
863
845
824
802
786
768
746
729
710
690
667
643
614
583
556
526
493
459
421
388
351
321
311
349
425
516
602
670
712
741
758
773
784
794
802
805
806
805
797
782
765
744
726
708
694
678
660
639
618
596
572
546
519
495
473
452
428
401
373
347
329
364
423
501
582
646
686
720
738
750
761
766
770
770
770
766
756
740
718
697
672
646
623
599
578
555
528
505
484
460
437
409
380
353
322
293
261
226
199
185
203
262
345
420
484
530
559
580
590
599
604
606
611
614
614
608
600
586
571
560
550
542
542
538
536
531
522
511
497
485
469
453
433
416
395
377
365
376
429
507
590
658
709
744
770
781
792
802
808
813
814
814
812
802
786
770
754
734
718
702
682
666
646
624
600
574
551
524
497
469
437
409
379
352
329
343
385
453
536
606
658
696
717
738
749
760
770
776
778
782
780
769
758
742
726
706
694
678
662
644
623
602
580
556
534
512
491
469
447
423
397
367
339
333
360
427
509
579
638
682
704
722
734
744
749
750
754
752
746
736
720
698
675
646
618
592
571
550
530
514
493
471
447
421
395
368
341
313
281
245
213
183
168
190
254
337
419
483
530
555
571
582
591
596
602
610
612
614
611
598
582
570
556
542
532
527
526
520
515
505
493
480
465
449
433
417
396
375
353
343
351
389
476
564
646
706
749
774
790
804
814
821
826
830
830
828
818
806
788
766
749
730
710
690
671
650
628
604
582
555
528
501
473
444
413
387
360
337
331
367
437
518
590
654
688
717
734
745
758
766
776
781
782
781
773
762
746
728
710
692
680
662
644
626
606
583
559
534
512
491
469
448
427
405
377
351
329
345
393
465
542
606
654
690
717
734
745
756
762
764
766
762
756
742
722
700
675
654
632
611
586
564
540
514
488
467
437
415
388
361
333
301
269
237
205
177
168
195
261
345
420
477
520
544
562
571
576
586
587
590
594
591
580
570
558
544
534
522
514
514
512
509
505
495
484
473
457
441
425
409
391
369
349
333
345
392
472
558
632
692
734
756
774
786
800
805
810
814
814
814
804
790
774
754
736
722
710
694
674
652
631
606
583
559
534
503
473
445
413
381
349
329
326
357
427
512
586
648
689
722
744
760
770
780
785
790
794
792
786
774
758
738
722
704
686
664
643
626
604
580
558
532
511
489
467
443
421
395
365
341
322
325
357
433
514
586
640
680
706
721
732
742
748
750
750
749
741
726
709
685
662
636
612
586
564
543
522
500
479
453
428
404
377
351
323
293
261
229
197
168
155
181
246
331
417
475
520
550
570
586
594
603
608
614
619
622
618
606
590
574
559
548
538
528
523
514
507
493
477
461
445
429
412
391
369
347
322
301
307
351
429
523
606
674
714
741
762
774
788
794
796
801
802
800
789
774
757
738
718
697
675
654
634
615
594
568
542
509
488
467
445
423
393
365
333
306
289
314
373
457
539
603
650
684
702
714
725
736
746
746
746
750
744
730
714
697
678
658
646
632
622
610
591
574
554
535
514
492
471
449
427
403
377
351
323
321
353
420
501
571
627
670
692
713
726
736
744
746
750
750
746
736
720
698
676
652
634
612
591
570
547
523
501
480
459
433
404
380
353
325
293
261
233
201
181
191
242
321
404
471
518
550
571
586
596
604
610
619
624
626
624
616
602
590
576
566
552
550
550
548
543
538
527
516
501
489
473
457
437
419
397
380
369
377
444
524
602
671
722
754
780
798
810
821
829
834
836
838
834
824
810
790
773
754
738
722
704
686
664
643
618
591
564
538
509
480
449
417
383
349
318
307
329
393
473
558
615
663
698
718
734
746
757
765
766
772
772
766
756
742
722
704
690
674
656
638
618
598
579
558
536
512
489
468
444
421
389
360
333
305
297
321
383
465
542
603
648
682
698
712
722
728
733
734
733
728
718
701
679
654
631
607
586
566
550
530
508
487
461
439
412
385
355
325
297
266
237
205
173
151
140
183
255
341
420
476
514
543
559
574
584
592
598
603
606
602
594
578
558
540
522
505
504
499
493
484
476
465
449
433
417
404
383
361
339
315
293
281
289
333
417
511
598
659
708
738
757
768
778
788
793
794
793
788
778
762
744
726
710
694
674
656
638
618
596
575
558
536
518
497
476
455
429
407
377
353
344
365
425
501
579
646
689
724
746
766
780
790
804
809
810
814
809
798
786
768
750
734
716
698
680
659
638
612
588
562
531
501
473
448
424
397
369
337
305
290
298
345
423
508
578
628
666
690
706
717
726
732
734
738
733
728
714
693
671
642
622
603
586
570
554
538
516
495
473
445
416
389
363
333
301
270
241
209
178
159
148
206
289
385
465
527
566
599
620
634
644
652
658
658
658
650
638
622
602
584
566
546
540
532
526
515
501
489
472
453
433
416
395
373
351
326
301
274
263
285
351
444
546
619
675
714
744
762
774
784
789
790
793
788
782
769
748
726
702
684
662
644
623
602
586
567
550
528
507
485
464
443
421
399
375
349
325
311
321
367
439
518
583
631
674
696
714
730
741
754
762
766
769
770
760
749
738
718
700
686
670
654
634
612
591
570
552
531
505
483
453
425
399
372
341
307
275
249
250
293
377
476
567
638
684
716
742
754
768
774
776
778
774
768
752
730
706
676
650
623
599
578
556
535
514
491
464
433
401
369
333
301
266
233
199
162
124
91
59
32
39
84
173
282
381
457
508
543
570
580
588
594
595
592
586
574
555
534
511
487
469
459
453
449
445
443
433
427
413
397
385
367
345
323
302
281
259
243
245
302
388
489
572
642
690
729
753
774
785
796
806
808
805
794
782
764
742
717
696
674
651
627
606
584
560
534
501
469
445
419
392
361
338
314
289
258
229
205
189
205
261
364
465
558
618
660
690
713
724
734
738
741
746
745
737
726
705
684
662
646
630
610
603
595
586
575
562
546
528
504
481
460
436
413
387
360
333
306
279
273
295
365
457
548
620
674
709
733
746
760
765
770
774
774
770
764
750
730
710
692
670
648
630
614
596
575
554
531
507
477
447
420
393
365
335
305
277
245
217
191
170
173
215
298
397
481
546
590
619
638
650
658
660
662
662
656
646
634
615
598
578
562
558
554
551
550
550
550
546
540
532
522
507
496
477
460
441
421
405
405
441
511
599
674
733
770
798
818
829
838
840
842
846
841
836
826
809
790
770
754
738
718
697
675
654
631
604
578
544
512
481
448
413
381
349
317
281
250
223
197
213
271
365
473
570
634
682
714
738
754
765
770
772
774
770
764
753
734
713
694
674
658
642
630
623
612
598
580
559
538
515
491
469
447
423
397
367
339
313
298
306
349
440
531
614
672
713
738
758
772
782
789
794
794
793
785
770
749
728
706
679
652
622
595
568
542
520
496
469
441
412
381
353
323
293
261
229
197
166
142
124
132
183
265
360
443
509
555
590
606
620
628
630
630
627
622
610
591
570
548
530
518
508
503
501
496
493
489
477
459
445
431
417
401
385
367
349
330
322
337
387
475
574
660
725
774
796
817
830
840
848
850
850
848
842
830
814
798
777
756
734
714
698
678
656
635
614
591
567
546
524
503
481
465
449
429
413
408
417
460
508
558
606
640
666
692
710
726
737
748
754
760
762
762
756
745
730
718
708
698
689
680
666
644
623
602
580
556
530
512
491
469
448
427
405
380
364
369
415
473
538
599
647
678
708
726
742
753
761
770
770
770
766
754
736
714
693
668
646
628
604
578
555
528
497
465
433
405
379
352
321
293
261
233
202
173
160
175
231
313
405
488
558
604
644
674
700
718
734
750
764
774
776
776
770
758
742
734
725
720
714
704
693
678
671
658
642
627
614
594
572
551
526
505
489
485
516
583
658
726
785
830
863
887
903
919
932
939
943
945
947
944
933
919
907
891
875
863
846
830
813
792
770
748
724
702
679
652
626
595
568
538
505
479
461
496
550
614
675
729
762
786
802
814
820
822
826
826
824
814
804
793
774
757
738
722
710
692
674
652
631
610
587
560
534
507
480
453
427
400
369
338
314
297
305
353
429
509
582
634
674
706
722
737
748
758
762
762
758
752
738
718
696
668
642
616
595
574
558
539
518
496
472
445
415
388
357
325
295
269
242
213
181
152
139
164
234
319
409
471
519
554
574
590
598
608
616
618
622
619
614
602
583
566
551
538
530
526
520
509
504
493
477
465
449
433
417
399
377
356
334
317
305
321
385
472
560
638
697
734
766
782
796
802
808
810
810
804
793
782
761
740
714
692
667
642
620
599
578
556
535
509
483
459
441
421
405
389
368
349
329
322
330
361
409
457
501
540
564
586
600
611
622
623
626
626
623
612
602
584
563
542
526
509
493
477
461
445
429
413
393
372
351
325
302
273
245
211
174
144
124
132
173
257
351
437
499
547
582
604
618
630
634
636
642
636
628
610
586
554
522
485
456
433
417
404
393
377
359
337
311
287
265
238
209
177
148
116
84
55
36
60
124
223
329
413
477
526
556
580
598
611
619
626
630
627
618
600
579
554
531
507
493
480
475
469
459
448
433
417
401
385
371
357
337
319
301
281
270
275
313
381
467
546
611
662
698
720
736
750
756
758
762
765
760
750
737
716
694
672
651
634
614
595
578
562
546
526
504
485
465
444
423
401
380
356
333
311
303
317
381
453
530
591
644
678
700
718
730
741
746
750
750
750
742
726
708
686
664
643
622
606
590
574
558
539
518
496
475
453
432
411
389
367
343
317
287
269
273
315
383
461
530
583
622
643
662
670
678
680
682
685
679
670
656
635
610
579
552
530
515
504
489
483
469
449
428
407
385
360
335
309
281
251
225
194
170
160
177
233
313
393
463
522
554
580
598
612
623
626
630
630
626
614
595
574
552
531
514
500
495
489
483
472
457
447
433
417
401
385
373
356
337
317
299
286
281
319
392
473
555
622
670
706
733
750
761
772
778
780
782
782
776
762
742
720
696
678
656
635
618
596
578
558
540
519
497
476
455
433
412
391
369
344
325
313
338
392
465
547
614
666
704
725
742
757
765
774
780
782
782
776
765
746
725
701
678
660
642
622
600
579
558
534
515
493
472
453
433
412
391
369
347
319
301
291
313
365
447
527
598
648
686
710
729
740
750
754
757
762
757
749
738
717
690
666
639
612
590
568
550
534
512
491
469
439
412
389
363
335
305
278
249
221
190
166
177
218
290
373
443
499
538
558
571
578
586
588
590
594
588
578
564
543
518
491
464
453
445
443
441
440
437
433
428
420
409
395
381
365
348
329
309
305
323
377
455
540
614
668
706
730
746
757
766
772
774
774
769
761
746
725
701
678
656
635
618
596
575
554
528
504
481
459
435
413
393
375
353
327
303
281
255
242
245
301
376
465
546
610
650
684
705
722
733
741
746
746
746
742
730
712
690
668
644
622
615
607
602
590
574
554
536
515
493
468
447
425
404
383
361
339
318
301
299
331
397
483
566
634
684
721
742
757
768
778
785
790
790
789
781
766
745
724
702
676
652
630
608
587
570
552
531
509
488
464
437
411
387
361
338
311
281
250
223
205
217
267
349
435
509
570
608
632
646
655
660
662
666
666
662
651
638
618
591
562
534
514
500
489
484
479
469
459
445
433
421
405
393
381
365
349
329
313
297
287
306
361
439
522
602
654
694
718
737
750
758
762
765
766
760
749
734
713
692
666
640
622
610
594
578
562
544
523
501
480
459
437
416
395
373
352
330
305
283
265
269
311
392
485
570
639
694
725
749
766
780
788
790
794
797
794
782
766
746
724
700
678
658
642
622
604
583
562
550
531
509
488
467
453
432
413
393
372
351
329
315
321
361
425
505
574
628
666
698
714
728
734
740
748
750
746
744
734
717
696
674
654
635
618
596
578
566
550
534
518
496
475
457
436
415
393
376
357
337
314
290
273
265
278
333
409
489
558
608
643
670
680
692
698
700
702
702
697
689
674
652
628
602
580
562
550
536
528
518
500
479
457
435
411
385
363
335
313
291
267
245
218
194
173
160
174
229
310
393
465
520
555
586
602
615
626
635
643
646
646
640
626
608
587
570
554
538
530
526
523
514
507
496
481
469
456
441
431
417
405
393
377
361
349
347
369
428
508
586
659
713
750
780
798
814
820
822
826
828
828
822
812
796
774
753
732
710
690
671
654
634
615
594
568
544
514
491
464
441
420
399
377
356
334
313
315
348
409
493
571
634
682
714
738
753
764
774
780
782
786
785
777
766
749
728
706
689
667
650
630
611
594
574
558
538
520
499
477
457
439
421
400
379
357
335
319
309
334
391
465
548
618
674
716
737
754
765
776
786
786
786
786
780
769
750
729
705
682
654
627
606
584
563
542
520
496
473
448
424
393
371
344
317
294
267
245
218
191
164
143
146
181
266
355
437
505
554
590
611
627
642
648
656
662
663
663
658
644
626
606
590
579
574
568
566
570
570
567
562
555
544
534
523
512
497
487
473
465
473
514
578
652
720
778
818
845
867
881
892
899
903
903
903
901
893
879
857
836
818
802
784
762
745
726
706
685
660
634
607
578
550
523
496
469
443
419
393
365
333
309
293
301
341
423
505
582
634
674
702
721
734
746
752
757
758
757
749
738
721
700
678
652
634
622
615
604
594
578
562
546
524
505
485
464
443
421
405
387
365
344
319
305
298
330
389
476
559
630
680
718
746
764
772
782
786
789
790
785
777
766
745
721
694
668
644
622
600
579
562
542
523
501
480
456
433
408
384
357
334
310
285
258
229
205
189
197
241
323
412
489
550
590
614
631
639
642
646
648
646
640
632
622
604
578
550
531
520
509
505
505
505
505
505
501
491
480
469
457
441
425
412
391
373
373
397
457
534
608
674
721
753
770
781
789
794
798
798
798
793
782
766
744
720
694
672
648
630
612
591
570
548
524
497
471
444
417
396
377
357
335
314
293
270
246
233
241
283
365
455
538
606
656
689
710
725
736
742
746
749
750
745
734
718
701
676
650
630
611
602
596
591
586
570
554
538
516
495
473
455
439
417
396
375
353
337
334
361
425
508
586
655
706
742
764
780
790
796
801
806
805
800
790
777
756
730
704
679
658
635
611
590
568
547
526
499
472
441
420
399
373
352
327
301
274
253
241
277
341
421
503
570
614
647
666
678
685
690
694
694
692
682
671
658
638
612
588
562
555
547
542
542
539
534
527
516
501
484
465
445
424
403
377
359
348
365
419
493
578
640
692
726
746
762
770
778
781
782
781
776
770
749
728
706
680
656
634
608
587
566
544
523
501
476
455
433
412
391
369
347
322
301
287
293
337
409
489
562
618
658
690
706
720
726
732
737
738
733
725
714
697
672
646
620
602
586
571
558
546
528
509
493
473
455
433
412
391
369
344
325
313
327
373
437
509
568
614
647
666
678
684
689
694
693
690
686
674
658
638
616
592
566
539
518
501
485
472
453
428
407
381
356
329
297
265
233
205
182
177
217
281
359
425
476
508
526
536
542
546
542
542
538
532
522
505
488
467
441
421
403
393
384
376
365
353
339
325
303
282
261
235
211
189
177
190
237
327
416
497
556
599
626
640
654
666
672
678
674
664
656
638
615
588
558
532
514
497
487
476
465
453
437
425
404
380
353
325
295
269
251
259
305
379
461
534
584
619
642
647
652
658
658
658
654
648
640
626
603
576
550
520
499
485
472
464
453
439
428
413
397
379
357
330
301
277
261
277
325
403
480
550
590
616
626
635
640
642
642
639
630
619
606
586
558
523
493
468
449
429
417
404
393
381
363
345
322
295
265
233
201
168
166
190
249
331
407
457
495
511
518
523
526
526
526
523
518
511
495
473
452
428
401
389
376
369
363
352
341
329
313
297
279
261
241
222
217
237
293
373
457
526
576
614
630
643
654
663
671
678
680
675
670
654
635
610
590
574
566
556
551
538
523
509
489
477
461
441
419
395
377
368
392
449
527
602
658
698
725
738
752
757
758
762
762
758
753
745
726
705
680
658
631
607
586
564
546
526
504
483
457
436
415
389
364
348
333
364
420
489
555
608
642
660
668
674
678
678
678
676
668
658
642
623
602
576
560
550
539
528
514
497
481
469
448
427
405
377
348
325
323
351
405
473
535
582
615
631
642
642
642
638
631
620
610
598
579
558
534
509
493
483
472
465
455
441
425
404
385
365
343
315
289
270
262
293
352
427
497
551
588
610
619
624
630
630
627
622
616
606
590
568
544
514
484
463
449
439
428
413
401
388
373
352
330
309
282
255
241
258
309
381
451
507
546
563
571
574
578
578
574
567
559
550
536
515
493
475
461
449
440
435
429
424
416
405
393
375
357
335
317
305
314
357
421
495
562
606
632
646
650
654
654
650
648
643
634
622
603
582
554
527
505
495
487
477
471
457
441
421
403
381
360
335
309
298
303
341
409
489
554
602
628
646
652
658
658
658
658
658
648
640
626
604
578
546
534
520
509
504
496
489
476
457
437
416
395
373
347
322
305
305
343
409
479
540
590
610
620
626
626
623
622
615
607
598
580
559
534
497
471
449
436
428
421
416
408
397
391
375
353
330
306
285
266
261
277
333
403
477
532
567
586
594
594
594
588
583
574
567
554
534
512
485
465
451
440
433
427
419
409
400
392
377
363
352
333
315
297
277
293
341
413
495
564
614
642
655
666
671
674
678
678
675
670
659
643
622
600
576
554
543
535
530
520
515
505
488
469
449
428
407
385
365
355
369
416
491
566
627
670
702
713
721
726
728
733
734
730
728
718
702
684
658
631
607
582
562
546
530
515
501
481
468
447
425
403
373
353
344
368
425
497
567
622
651
667
674
682
682
682
682
679
670
663
647
626
603
574
550
535
524
518
507
499
489
479
468
453
437
421
401
385
380
393
453
523
590
647
685
702
716
721
722
722
722
722
717
709
694
672
651
630
604
586
566
550
531
514
501
485
469
452
431
409
383
364
353
381
440
518
598
656
702
732
750
766
772
777
782
784
786
786
780
764
742
721
700
678
658
639
622
602
583
562
540
519
493
471
447
425
416
432
485
554
631
698
740
769
786
797
808
814
822
825
826
821
813
798
777
753
726
704
676
654
628
607
586
562
532
501
469
435
397
364
345
357
400
461
534
582
619
638
647
655
658
658
658
658
647
636
626
604
583
558
534
518
509
505
505
505
499
488
473
452
428
405
384
368
373
419
480
550
606
646
670
682
685
686
690
690
690
685
676
662
640
616
594
568
547
526
509
496
485
469
451
433
412
388
365
339
323
317
361
423
497
567
620
654
672
684
694
701
706
710
709
706
698
686
667
646
620
602
586
575
564
550
539
526
514
496
475
453
431
412
397
415
463
526
595
648
690
716
732
742
744
746
750
750
745
738
725
704
678
644
612
582
555
531
509
484
460
437
411
384
357
330
303
277
258
250
285
344
416
481
528
558
574
584
592
598
602
602
602
600
590
574
552
531
514
496
488
481
475
467
457
445
432
421
405
387
369
357
360
393
451
520
594
640
678
702
717
730
738
748
753
754
753
748
738
721
700
674
652
631
610
592
574
554
532
511
493
472
451
429
408
389
381
407
460
530
596
652
690
718
734
746
757
765
774
774
774
770
758
742
722
701
682
662
644
623
602
580
559
538
515
488
461
433
404
373
352
341
357
407
479
546
600
638
662
672
680
686
688
690
690
680
672
654
632
606
574
547
523
505
489
473
461
445
429
409
392
371
349
326
302
281
274
301
357
424
493
554
580
602
614
623
626
626
626
623
618
602
583
562
540
519
505
496
488
481
475
464
453
443
432
417
404
380
357
335
319
325
377
447
526
587
635
666
689
700
710
721
729
734
734
732
722
710
692
670
644
626
610
594
575
558
546
530
514
493
477
457
436
412
385
380
396
445
516
591
646
690
720
742
754
765
774
780
782
782
777
769
750
729
708
682
660
639
614
592
566
542
514
484
453
421
389
353
321
294
285
306
363
429
491
536
574
590
603
614
623
628
630
630
627
622
606
587
562
540
519
501
489
487
481
476
468
453
443
429
413
392
368
357
361
401
461
530
583
626
647
663
670
679
685
686
686
684
674
660
639
618
595
571
558
542
526
514
501
485
469
448
427
405
383
359
345
345
377
433
501
560
610
639
660
674
685
693
694
700
702
698
688
674
654
628
607
586
570
556
542
531
518
501
481
463
441
416
392
369
365
387
433
503
570
618
655
676
690
701
709
718
720
722
722
716
702
682
660
636
614
592
574
558
538
519
501
485
467
445
424
403
377
372
385
425
488
550
598
636
660
674
685
690
694
696
698
690
679
666
646
622
592
562
530
503
481
461
445
429
408
387
365
337
307
281
261
255
285
343
409
465
505
532
550
556
562
566
566
566
562
556
548
534
512
491
473
464
456
449
444
436
425
415
401
385
373
355
337
330
344
393
460
527
582
619
643
658
667
672
678
682
679
678
671
658
638
615
591
570
550
534
522
511
500
485
469
453
433
412
391
365
344
338
365
421
485
550
587
616
634
643
651
654
658
660
662
656
648
634
612
591
566
547
536
526
514
497
481
465
447
429
408
384
361
334
310
293
306
347
409
472
526
562
588
599
602
606
608
610
604
599
590
568
547
522
489
463
445
435
427
417
408
400
389
375
361
345
323
302
273
251
230
221
246
305
377
445
501
538
554
564
570
571
574
574
564
559
550
528
504
481
461
448
441
436
428
421
411
397
385
373
360
349
337
318
301
289
291
325
391
476
562
614
654
678
693
704
710
720
725
726
729
724
714
697
675
650
631
618
602
591
580
566
554
538
522
505
489
473
456
435
413
391
377
381
428
497
574
647
698
730
752
768
782
793
801
806
808
808
802
790
772
750
729
713
694
674
655
638
616
592
566
539
512
481
453
424
397
367
343
317
290
266
249
269
322
405
488
558
602
632
646
658
663
668
674
674
671
666
654
635
610
583
559
546
535
527
518
512
507
497
484
476
461
445
429
409
393
375
357
348
364
417
491
571
638
680
708
722
733
741
746
750
750
746
740
724
702
680
659
642
626
607
590
568
547
526
504
483
461
440
419
401
381
363
341
319
295
273
269
293
357
449
548
622
675
710
734
750
764
774
780
785
790
789
784
770
749
728
702
690
674
658
642
623
602
580
562
542
524
503
485
465
449
429
409
391
369
364
391
445
530
607
670
718
750
770
785
796
806
813
818
822
821
813
798
777
753
730
713
692
670
648
627
602
575
548
522
489
460
429
397
368
337
314
290
269
238
211
189
189
223
293
383
463
526
564
588
602
610
612
614
619
622
618
611
600
582
562
546
530
522
519
514
512
507
497
487
473
461
449
433
421
409
396
381
365
349
345
371
432
514
594
663
722
749
773
790
800
808
814
818
821
822
812
796
774
753
732
714
697
678
658
636
615
594
567
540
514
487
457
433
408
387
365
343
323
317
351
417
501
591
658
706
740
761
778
789
800
806
808
810
810
804
788
766
745
726
710
694
675
658
636
615
594
572
548
518
500
479
461
440
419
397
376
363
377
440
520
606
676
728
762
785
796
806
814
817
822
821
813
802
781
757
726
696
668
642
615
591
570
547
520
489
459
429
397
369
339
309
282
255
233
230
262
337
424
507
574
615
644
662
672
684
690
694
694
694
684
667
646
623
599
582
568
560
554
547
536
526
514
500
485
468
447
425
399
372
345
333
357
417
508
596
670
724
761
782
798
812
822
833
838
842
841
833
818
797
773
750
729
708
686
668
647
622
599
570
542
514
484
457
425
399
377
360
368
417
496
584
662
724
769
802
822
836
842
852
860
863
861
853
838
817
793
766
744
717
690
668
647
626
600
576
546
518
485
457
424
387
357
335
344
389
472
555
630
680
718
742
756
761
762
766
766
758
748
732
710
678
643
610
578
546
522
493
467
445
424
403
377
352
327
297
269
239
209
211
246
317
407
492
554
603
635
658
668
676
682
680
675
666
652
631
610
583
556
534
527
519
514
503
489
477
465
449
433
417
399
377
357
344
361
415
500
586
662
718
762
784
802
814
824
832
834
830
825
814
793
769
742
716
689
662
632
611
590
564
540
509
483
453
425
393
361
337
323
348
405
489
578
654
705
742
770
788
796
806
810
813
814
809
798
778
756
726
698
667
640
618
595
571
546
523
496
469
444
420
393
367
348
337
388
460
542
620
679
718
744
760
770
777
782
782
776
765
750
728
701
666
630
598
562
535
508
481
453
421
393
363
335
305
273
241
209
193
209
269
351
436
505
551
580
602
612
618
622
623
626
622
614
595
574
546
516
493
477
464
457
447
433
421
405
389
369
348
326
305
289
294
345
425
516
598
651
692
714
729
740
746
754
754
754
748
734
714
692
662
634
607
578
554
532
514
493
476
455
433
411
384
357
327
306
301
338
405
489
559
618
658
684
702
710
720
725
726
725
720
714
697
675
650
624
600
578
562
546
526
514
495
473
452
431
409
388
364
337
311
301
313
375
452
530
596
639
666
680
689
694
696
698
698
692
678
662
638
608
578
546
516
493
473
455
433
407
380
353
325
293
261
229
197
160
123
86
76
95
164
265
356
428
477
501
515
522
526
528
530
524
516
505
492
471
445
423
396
385
376
368
357
345
331
317
295
274
257
235
214
193
167
154
160
227
318
421
512
582
626
659
678
694
706
717
726
732
734
734
722
704
682
660
639
610
588
567
550
532
511
489
464
443
421
395
368
341
310
286
289
325
408
501
591
660
710
736
752
762
772
780
782
782
780
774
757
733
706
679
652
626
600
579
562
544
523
501
479
455
429
408
381
357
330
303
273
262
281
341
437
534
614
674
704
726
736
741
746
746
746
738
726
708
682
654
619
582
556
535
509
488
467
441
415
388
357
329
297
265
237
205
173
135
98
68
54
91
168
273
372
453
499
528
538
546
548
550
554
554
550
543
527
505
479
452
429
415
407
401
391
380
365
349
330
313
293
277
257
235
214
189
167
162
201
283
399
505
595
659
706
733
754
770
785
796
802
810
810
806
793
769
738
712
688
662
642
623
602
580
559
534
505
479
453
432
411
389
368
344
321
309
330
385
475
560
634
688
722
742
757
768
774
781
786
786
784
773
758
737
713
690
672
651
630
612
591
570
548
527
505
488
467
445
424
403
385
364
343
321
298
287
305
367
455
550
623
682
722
748
766
774
784
789
790
793
788
782
765
744
722
693
668
642
616
592
570
552
531
509
487
460
433
407
380
349
321
291
265
242
215
185
154
127
104
123
187
285
389
475
542
580
604
614
618
620
622
620
615
610
599
583
562
536
518
497
489
487
489
488
485
481
471
457
445
435
421
409
393
380
365
347
341
365
427
515
602
678
734
778
790
804
814
820
825
826
826
824
814
797
776
750
729
708
690
670
651
630
608
587
562
539
512
485
457
425
397
372
351
329
307
286
265
246
241
269
335
429
526
602
655
694
714
728
738
748
753
754
754
752
742
726
708
686
666
647
638
628
623
614
598
582
562
544
523
505
484
463
445
428
409
389
368
347
329
317
327
381
464
555
638
698
741
774
786
797
802
808
810
810
808
797
786
765
741
714
688
663
638
616
592
570
547
520
497
475
448
421
395
368
341
315
291
265
238
214
189
158
131
104
95
132
217
321
423
509
556
588
610
619
624
626
626
623
618
611
600
582
560
539
522
508
500
497
497
497
489
484
476
465
453
437
425
415
401
385
373
360
345
334
334
377
448
542
630
698
749
782
798
812
818
824
829
830
829
824
814
798
780
754
733
712
694
674
658
638
616
595
574
547
523
497
471
441
417
396
375
353
331
310
293
301
349
425
515
595
658
702
729
750
757
765
770
772
772
770
764
753
734
713
692
670
648
627
610
590
574
558
542
526
505
485
467
445
424
403
385
368
349
329
307
289
273
295
349
429
516
591
650
686
713
734
741
749
754
754
752
746
740
726
710
688
663
646
626
610
598
583
570
550
532
514
493
472
451
425
404
380
357
331
307
285
258
231
205
186
186
229
302
388
461
518
558
590
600
611
618
619
619
618
612
604
594
576
555
530
509
496
485
476
471
465
455
444
429
417
401
385
369
351
337
321
305
289
273
257
241
226
223
265
337
436
526
602
655
694
714
728
738
740
742
742
740
732
722
705
684
666
647
639
634
624
619
614
602
586
570
550
531
509
488
467
445
424
405
385
363
338
321
305
321
385
483
582
666
732
777
810
830
844
855
864
869
871
871
868
859
842
824
806
786
770
758
742
726
710
693
671
650
627
603
582
555
528
505
480
459
433
412
393
377
395
445
522
608
680
738
778
805
826
838
852
859
860
865
867
861
853
842
826
810
794
774
756
738
722
706
690
668
647
626
603
579
554
531
504
481
456
432
405
384
365
349
372
425
505
595
664
722
762
789
810
822
833
838
844
846
846
840
829
818
801
780
758
737
716
694
672
651
630
604
580
550
522
489
457
425
393
369
343
315
293
269
242
217
197
189
213
281
377
469
542
592
630
650
663
670
671
676
678
674
671
666
654
640
626
611
603
598
598
600
602
602
599
590
583
572
558
546
530
514
501
512
550
616
689
754
804
838
867
885
896
903
907
909
911
911
905
895
883
864
846
830
814
798
782
764
742
721
700
678
647
620
590
562
530
497
469
437
409
377
345
317
285
255
225
197
189
221
319
437
546
638
702
750
780
801
822
829
834
838
838
836
830
817
796
774
753
734
718
702
686
670
650
634
622
604
586
566
550
531
509
489
471
453
432
413
393
383
396
441
523
608
682
740
777
802
821
832
842
844
846
846
846
841
830
817
796
774
757
738
718
697
675
654
628
604
582
554
522
489
461
429
401
369
337
313
286
259
233
211
211
241
327
424
509
582
627
658
678
689
698
700
702
702
702
697
690
678
662
642
630
622
618
612
610
606
600
595
586
571
555
534
511
487
465
443
416
393
368
349
345
397
475
566
647
712
758
790
806
818
829
837
842
841
838
834
822
806
786
765
746
726
705
686
670
648
627
606
579
552
526
497
468
437
411
387
361
339
313
289
274
277
317
405
499
590
652
704
734
757
770
778
784
789
790
789
784
778
766
748
726
709
688
666
648
632
622
610
591
574
552
531
509
488
467
445
423
399
377
355
327
309
298
319
377
471
564
642
698
738
766
784
792
798
802
805
802
797
789
778
761
737
714
689
664
642
615
591
570
543
519
497
472
448
421
395
368
337
310
286
261
238
209
185
158
136
128
162
239
341
435
509
562
595
614
626
630
632
634
634
631
626
619
606
594
578
562
550
546
546
542
540
538
530
519
508
493
477
461
445
433
415
397
377
359
345
348
388
465
559
644
710
750
780
798
812
820
822
826
826
822
821
813
798
782
764
742
726
708
686
668
647
626
604
580
554
523
493
461
429
400
373
347
319
293
266
239
237
274
352
445
531
598
642
667
684
690
698
698
698
697
689
678
667
651
630
607
583
566
551
543
534
523
515
505
493
477
457
436
415
393
372
351
329
307
286
265
247
247
289
352
424
489
542
579
602
622
635
642
651
656
658
662
659
650
643
627
610
594
578
566
552
547
542
531
523
514
497
481
465
445
429
409
392
371
345
322
293
265
249
257
313
393
487
570
623
663
690
705
716
722
726
726
726
725
717
706
693
671
650
630
616
614
610
610
610
603
595
586
570
554
538
516
497
477
456
432
405
385
377
397
461
544
622
692
742
782
808
824
834
840
842
846
845
840
834
822
806
786
766
748
726
706
688
666
644
623
602
574
544
514
487
457
425
395
365
333
306
279
249
254
297
373
472
560
626
675
710
734
746
757
766
768
770
770
765
757
746
729
708
686
670
656
646
635
622
610
592
574
554
531
507
485
459
435
409
388
364
341
315
291
261
257
278
341
439
540
618
682
725
754
774
785
794
804
806
806
805
800
790
773
752
726
710
692
670
650
631
610
588
567
546
523
499
473
451
424
397
367
337
313
286
259
229
202
173
144
126
123
173
254
353
441
508
551
578
596
607
614
618
618
618
616
608
598
580
559
538
518
501
493
489
487
485
480
475
469
460
452
441
432
427
421
416
408
397
391
380
369
367
380
429
496
571
642
694
732
758
777
788
794
798
801
802
798
793
782
770
752
734
720
706
694
682
666
646
624
603
582
559
532
505
476
452
429
408
387
365
344
319
297
281
286
341
424
526
614
686
737
774
796
814
822
832
837
838
838
836
826
813
792
770
749
728
710
693
674
654
632
611
590
567
540
514
484
463
441
424
405
385
368
347
329
311
303
329
391
473
558
626
679
718
740
761
774
784
789
790
790
790
786
780
766
750
730
712
698
685
666
646
628
607
590
574
555
534
514
495
473
452
431
409
392
371
353
331
307
289
278
299
357
445
531
606
656
694
718
736
744
746
750
750
746
741
733
718
701
679
658
632
614
594
578
564
554
538
519
501
480
459
437
416
392
369
347
322
301
278
254
233
211
195
193
243
321
417
501
574
622
659
678
690
700
705
706
705
700
694
682
663
646
628
610
594
587
582
578
572
564
554
539
528
518
501
483
461
444
423
401
380
359
337
315
299
301
353
433
526
607
674
722
756
774
786
796
801
806
805
802
798
792
778
762
745
726
706
689
670
654
634
615
594
574
558
538
516
495
473
457
439
417
396
375
353
335
319
325
381
456
542
618
676
722
754
770
782
793
801
806
806
806
802
796
782
766
749
730
710
693
674
658
638
619
598
572
551
530
508
484
461
440
419
397
376
355
333
307
286
273
299
364
453
542
614
666
704
725
738
748
753
754
753
748
742
734
718
698
676
652
630
604
588
574
562
546
530
512
491
469
448
427
401
380
359
333
311
290
269
243
225
209
223
277
361
464
550
614
664
692
710
721
729
734
734
732
726
718
702
686
664
643
622
607
599
594
588
583
574
559
543
522
500
479
457
436
415
393
371
347
325
299
278
265
291
359
453
548
631
690
733
757
774
785
793
798
800
802
798
792
778
766
745
724
718
679
658
642
630
616
602
586
567
546
524
503
477
456
435
413
392
368
345
323
302
289
314
376
465
554
626
682
721
745
762
772
777
782
782
782
782
776
762
750
729
710
690
668
650
634
614
600
586
570
554
534
516
495
473
453
435
413
393
375
353
331
310
289
287
319
385
469
550
618
670
705
730
745
753
762
764
766
766
764
753
742
729
708
686
660
639
618
606
590
574
558
539
518
496
475
449
423
399
373
351
326
305
279
255
233
206
190
185
233
310
401
485
544
586
615
631
646
647
650
654
652
647
642
631
618
602
584
568
558
558
558
562
562
562
562
555
544
530
519
505
489
479
465
453
432
411
389
375
385
425
507
592
666
729
769
794
814
828
838
840
842
846
845
840
830
818
800
778
756
732
710
690
671
654
632
611
590
563
536
505
479
452
425
403
379
357
331
307
285
278
297
357
444
532
610
667
705
730
750
764
774
776
778
778
777
769
762
749
728
706
689
667
646
627
616
602
587
574
554
532
511
489
467
443
421
400
379
357
331
310
289
274
285
333
420
514
598
664
708
738
758
772
782
784
786
786
785
777
766
749
728
706
680
656
630
608
590
574
558
539
518
496
472
445
419
395
369
343
315
293
267
243
217
189
164
152
183
255
349
444
516
566
599
620
638
643
646
650
650
644
638
631
618
602
584
568
554
552
550
554
558
558
558
547
536
522
511
497
481
465
449
437
421
405
385
368
363
389
457
540
622
696
746
782
808
826
842
848
850
855
855
852
846
834
816
794
773
752
730
709
688
670
648
627
606
580
559
530
507
480
453
431
401
381
360
338
317
291
281
293
356
436
518
591
644
686
716
734
750
756
758
762
762
760
754
748
734
714
697
678
658
638
624
614
600
592
578
560
542
522
500
479
457
437
419
397
380
359
337
314
290
273
281
323
401
499
579
646
693
728
754
766
777
782
784
786
786
781
773
762
745
724
706
685
663
642
623
612
602
586
570
550
528
507
485
464
440
417
396
375
353
331
310
285
265
251
265
318
407
501
580
644
690
716
732
742
748
753
754
749
744
734
718
700
678
655
628
606
591
580
566
548
530
509
492
471
445
424
400
377
352
327
305
282
258
233
211
190
173
158
174
229
319
421
518
580
631
666
686
700
706
710
708
706
696
685
674
652
631
610
591
578
570
566
563
554
547
536
526
515
501
489
475
459
437
420
401
381
360
338
317
298
287
305
367
455
554
627
686
730
760
781
794
802
805
806
809
804
798
788
774
754
733
714
694
676
658
642
626
607
590
574
558
538
520
501
481
460
441
425
404
383
361
339
321
317
347
413
501
580
647
698
733
757
770
780
785
786
790
790
786
781
773
758
738
722
702
688
674
654
638
619
602
582
563
542
524
503
481
460
439
421
400
379
357
335
317
297
297
331
397
487
570
642
692
729
754
769
777
782
788
790
790
785
780
766
750
732
710
689
667
642
624
603
586
566
547
526
504
483
457
431
407
381
355
330
305
283
259
233
207
191
181
231
306
397
484
554
594
627
646
658
664
670
670
670
667
662
651
638
618
596
575
554
548
546
542
543
546
546
540
535
526
514
500
485
473
460
441
420
399
377
360
352
365
432
515
602
672
729
762
788
804
814
820
822
822
821
816
806
794
776
754
733
709
682
662
643
626
606
587
566
540
516
489
464
443
421
401
383
361
339
315
293
275
267
285
357
445
534
608
664
702
728
744
754
761
766
766
766
764
758
748
737
718
697
678
658
646
632
618
606
590
578
560
542
522
500
479
453
433
415
393
372
348
325
303
290
297
363
443
530
610
671
710
740
758
770
777
782
786
786
786
778
768
757
738
717
696
674
654
635
618
598
582
570
552
534
514
492
471
445
424
403
385
364
343
321
299
281
261
277
330
409
501
582
642
686
713
734
741
749
754
753
750
746
736
725
706
685
660
630
614
595
578
558
542
526
508
487
465
443
416
389
367
339
313
287
266
245
219
195
164
143
132
144
198
289
381
463
524
570
596
615
630
639
644
650
654
654
646
635
622
602
586
572
562
556
551
550
544
536
526
514
500
485
469
453
437
423
412
393
377
361
341
330
330
361
437
536
626
697
750
790
812
828
838
844
846
846
846
844
834
824
810
790
769
748
726
706
688
670
648
627
606
583
556
530
503
476
449
428
407
385
364
339
313
297
294
329
408
504
590
660
714
754
780
793
802
808
810
814
813
808
798
788
774
754
733
712
686
666
647
630
608
590
574
556
535
514
491
467
445
424
403
381
356
334
309
287
266
261
293
368
461
559
636
694
732
758
774
785
793
798
798
798
794
788
774
758
737
716
694
674
658
642
624
606
594
578
562
542
520
499
477
456
437
417
396
377
357
335
314
293
282
293
349
429
523
606
664
708
734
753
764
770
778
776
774
769
761
750
737
716
694
666
634
614
596
578
562
544
526
505
484
463
437
412
388
365
339
315
289
262
238
213
186
159
136
127
154
217
315
412
493
544
582
606
623
631
634
638
638
638
636
631
622
610
594
582
567
559
558
552
547
542
535
524
514
503
492
481
465
452
441
429
416
401
387
373
369
384
440
522
614
694
758
798
825
846
860
865
867
871
871
871
865
860
850
830
812
790
765
746
726
709
690
670
648
627
606
576
552
526
499
472
441
415
388
361
338
314
305
319
373
453
539
611
666
706
733
746
760
765
766
770
768
762
757
749
734
713
692
670
648
627
606
590
576
562
540
519
497
476
452
429
408
384
361
338
314
289
266
239
233
247
298
373
453
526
586
626
652
674
688
696
702
706
709
710
709
704
694
676
655
634
612
596
586
575
567
558
547
534
518
500
476
453
428
404
377
356
331
305
282
255
241
238
275
345
432
509
574
619
648
666
679
688
690
694
694
690
685
676
666
650
631
614
599
591
590
588
586
582
576
568
558
542
523
501
484
463
441
420
399
373
356
348
373
429
509
594
658
709
746
768
784
794
802
805
806
810
808
798
792
776
754
733
712
690
668
650
630
612
591
570
547
523
497
469
453
433
412
391
369
348
326
309
298
311
365
443
523
598
651
692
714
733
744
750
758
761
762
758
756
746
734
716
694
672
651
630
615
602
590
578
564
550
532
511
489
469
453
433
416
397
377
357
338
321
305
310
357
427
509
586
644
690
718
737
748
754
762
765
766
762
762
754
742
724
702
680
656
634
608
590
578
560
542
522
500
479
457
432
408
385
360
335
309
287
266
241
219
198
205
245
317
401
476
535
578
599
615
622
630
632
634
634
634
626
624
614
598
582
563
550
542
539
538
532
527
522
511
500
485
471
460
445
431
417
401
389
373
361
355
368
425
503
588
666
724
764
790
809
820
826
830
833
834
829
821
810
797
776
754
728
698
674
652
634
614
592
571
550
523
496
469
440
419
397
376
355
329
306
282
265
262
291
357
435
515
582
624
656
674
685
690
694
694
692
686
680
672
658
640
619
598
587
558
546
535
527
522
509
493
477
456
435
413
392
373
353
331
310
285
263
242
221
215
237
301
379
459
534
586
623
650
664
675
682
690
690
690
685
676
662
644
623
602
576
558
546
535
527
518
505
495
485
469
451
429
404
380
357
331
307
281
258
234
209
182
158
156
194
271
365
455
524
574
606
632
646
659
664
670
674
676
678
676
668
654
638
619
606
594
591
590
584
579
570
559
548
534
519
508
493
477
461
445
428
407
381
364
367
417
492
580
666
729
774
806
826
840
850
859
861
863
867
867
859
852
836
814
793
769
746
729
708
686
668
647
626
603
576
550
519
489
461
435
405
373
351
326
305
295
314
377
465
554
630
684
724
746
766
780
786
794
797
798
794
789
778
766
748
726
705
684
662
644
626
606
594
578
562
540
519
497
476
455
433
416
395
369
348
326
301
285
293
349
433
527
614
672
718
750
770
784
790
798
801
802
802
800
790
780
764
742
721
700
678
656
632
610
587
563
542
520
496
469
439
412
381
355
327
297
270
243
217
186
156
140
151
207
297
399
484
554
595
624
646
659
664
666
670
667
662
656
648
634
618
599
582
567
556
554
558
558
562
560
555
546
531
520
509
493
477
461
445
429
413
400
403
445
519
602
678
737
780
810
829
840
846
855
857
859
859
859
850
840
824
802
782
764
742
721
702
686
664
643
622
599
572
542
511
484
457
429
400
369
343
313
285
266
261
301
373
469
558
630
678
714
734
750
758
766
766
766
766
761
750
744
728
706
686
667
654
639
626
614
598
584
570
552
531
514
492
471
449
428
407
385
364
343
317
298
287
317
383
471
558
626
674
710
732
748
758
766
769
770
770
770
762
752
738
718
697
675
654
628
610
598
582
566
550
528
507
481
451
424
397
371
344
317
290
263
237
210
183
177
194
258
349
439
508
562
592
614
626
635
640
642
642
639
634
627
616
602
580
559
546
534
531
530
532
538
538
538
535
526
515
504
493
477
464
449
437
419
401
384
384
425
499
584
666
725
770
802
822
836
842
850
853
855
855
852
842
836
820
798
778
760
738
717
698
682
660
639
618
595
568
538
507
480
453
427
397
365
333
306
285
271
287
353
443
539
618
675
716
738
757
768
774
782
782
782
782
777
766
754
736
714
694
675
658
643
630
618
602
588
570
550
531
509
488
464
441
420
396
369
343
318
297
294
323
401
497
591
670
722
757
778
793
804
810
818
818
818
813
805
794
777
756
730
709
685
662
636
615
594
571
547
526
503
476
449
423
396
369
343
315
285
258
231
205
186
186
241
322
421
509
576
622
650
666
679
686
690
693
694
689
680
670
658
639
614
591
564
554
550
547
546
544
542
542
536
531
522
512
504
493
472
451
429
409
391
381
403
467
554
636
706
762
800
826
842
852
855
859
859
859
859
852
838
822
801
780
762
742
724
702
685
663
642
619
595
570
539
512
485
455
425
397
369
337
305
283
265
261
294
372
469
567
644
702
740
766
782
793
801
806
810
808
802
797
786
770
749
728
706
686
667
650
632
614
594
578
562
542
522
503
481
460
439
417
396
375
353
331
310
301
322
387
473
562
634
690
728
754
770
781
789
794
798
798
798
792
781
766
749
728
706
694
659
638
616
595
574
552
531
509
487
463
437
411
384
361
334
307
281
258
231
205
187
187
237
318
417
505
568
611
638
652
663
670
674
674
674
668
663
654
642
623
606
598
576
574
570
572
574
574
571
566
555
544
534
519
505
485
464
443
417
396
375
361
379
437
518
602
676
734
772
798
814
825
833
838
838
838
838
833
825
810
793
772
750
728
704
686
668
647
626
604
583
558
531
504
473
443
416
393
372
351
325
456
509
509
509
509
509
509
509
509
509
509
509
509
509
509
509
509
509
509
509
509
509
509
509
509
509
509
509
509
509
509
509
509
509
509
509
509
509
509
509
509
509
509
509
509
509
509
509
509
509
509
509
509
509
509
509
509
509
509
509
509
509
509
509
509
509
509
509
509
509
509
509
509
509
509
509
509
509
509
509
509
509
509
509
509
509
509
509
509
509
509
509
509
509
509
509
509
509
509
509
509
509
509
509
509
509
509
509
509
509
509
509
509
509
509
509
509
509
509
509
509
509
509
509
509
509
509
509
509
509
509
509
509
509
509
509
509
509
509
509
509
509
509
509
618
728
726
709
688
662
634
602
578
556
538
518
495
471
449
423
393
365
334
305
277
250
221
189
160
128
100
78
78
128
210
306
393
451
491
518
532
540
546
546
546
546
544
539
530
518
499
477
456
435
421
407
393
377
365
352
337
315
294
273
251
227
205
183
162
136
115
94
68
51
51
96
175
277
369
441
492
530
551
567
574
582
584
586
582
576
566
554
535
514
485
453
437
423
412
401
389
376
365
349
330
313
293
274
253
231
213
193
175
154
132
112
94
84
102
168
269
376
467
542
587
619
642
660
671
674
674
674
666
664
656
646
630
611
598
586
583
582
580
575
570
559
548
538
522
505
489
473
457
441
425
407
385
367
359
393
463
564
662
737
796
834
856
875
887
895
897
899
899
896
887
876
860
838
817
806
770
745
726
706
685
663
642
619
592
562
531
504
477
449
420
389
361
329
301
285
293
349
436
538
626
690
738
766
786
800
806
810
813
814
813
808
798
785
764
742
721
697
674
652
631
610
588
572
554
532
511
489
468
444
421
396
375
353
326
302
277
259
262
317
400
501
590
658
709
746
766
780
786
794
794
794
789
781
770
758
740
714
688
660
634
608
587
566
548
527
505
483
459
433
403
376
349
322
295
265
242
213
185
158
134
128
160
235
337
437
518
574
604
628
642
650
652
654
654
651
650
644
636
622
602
583
570
560
555
554
551
543
538
526
509
493
479
465
445
428
409
389
373
355
337
327
349
421
516
618
706
765
810
838
857
868
875
883
883
883
877
869
859
841
820
794
772
745
722
697
678
658
635
611
586
559
532
505
475
445
417
389
357
325
302
278
261
273
329
421
522
610
678
721
753
774
785
796
802
806
804
802
796
785
770
753
732
706
684
656
634
619
606
590
572
551
530
508
487
461
436
412
389
364
339
313
290
266
249
261
317
405
504
590
658
701
733
754
765
773
778
782
780
778
773
762
746
729
705
678
655
631
614
596
578
558
536
515
493
471
447
421
392
368
341
315
291
265
238
214
189
173
178
233
318
417
505
564
607
634
652
660
666
670
670
666
660
652
642
630
611
590
583
564
562
566
568
570
574
571
566
554
538
522
507
493
477
460
439
413
393
380
381
424
507
598
684
748
794
825
844
859
868
871
875
873
868
863
852
838
818
797
776
750
728
701
682
660
639
618
591
564
538
507
480
449
419
389
361
333
303
273
253
245
273
347
451
546
630
689
734
760
776
786
792
794
794
793
788
778
768
752
730
708
684
658
636
615
602
590
574
554
532
511
489
468
447
421
396
375
353
326
299
273
253
247
277
359
463
562
646
702
746
772
788
798
804
806
806
801
796
786
773
752
726
700
672
646
620
599
582
560
539
518
495
468
441
419
392
365
334
307
281
255
231
201
174
150
140
164
237
337
439
519
578
615
639
654
659
662
666
660
655
650
639
626
606
590
571
558
556
554
554
558
560
562
551
540
530
514
497
481
467
453
433
416
397
377
372
391
449
546
644
722
781
818
842
863
873
879
880
883
879
869
864
855
837
816
790
768
741
714
693
671
650
628
607
582
554
524
497
467
440
409
379
349
317
291
267
245
261
319
409
512
603
666
712
744
766
778
786
790
790
790
786
777
769
754
733
709
678
658
639
622
606
590
578
560
539
518
496
475
453
431
407
385
360
338
317
291
270
249
279
344
433
535
620
682
726
753
770
781
786
790
790
788
782
772
761
746
725
701
670
650
631
614
598
582
566
544
523
501
479
452
425
399
375
349
318
291
269
242
215
185
175
194
253
351
455
534
596
636
662
678
686
690
690
690
686
675
664
650
628
607
578
556
540
530
528
523
522
526
526
526
519
511
505
493
480
461
440
419
393
368
349
333
375
444
534
624
700
746
780
801
814
820
822
822
821
816
806
792
776
754
732
705
678
660
639
618
596
575
550
524
500
469
437
408
377
356
334
309
287
263
237
211
198
201
274
376
485
582
659
710
744
765
782
789
794
794
793
785
774
764
748
726
701
676
650
640
616
606
595
582
566
548
527
505
484
463
441
420
399
377
356
334
313
291
278
285
351
436
534
619
686
726
760
778
790
797
802
802
801
796
790
780
764
742
721
697
670
643
619
594
574
555
534
512
491
469
443
416
389
367
343
317
291
267
245
219
198
177
193
246
333
435
520
578
620
644
662
668
674
674
672
670
662
652
644
630
608
590
574
568
558
558
558
560
562
556
548
538
522
508
493
477
459
441
421
403
381
367
375
413
505
602
686
752
802
830
850
864
871
876
879
875
869
864
850
834
816
794
769
745
714
692
667
646
623
596
570
543
516
485
453
424
397
367
337
305
271
247
225
219
257
333
444
546
630
689
732
758
773
784
786
792
794
790
785
777
762
741
717
694
668
644
622
610
594
578
558
539
518
496
475
453
428
407
385
363
338
317
291
270
249
254
297
377
484
580
654
704
741
762
777
785
786
790
788
782
776
765
750
729
705
678
652
628
606
588
567
550
528
504
481
456
432
405
377
348
321
298
271
245
214
187
164
150
155
193
290
395
485
555
606
634
652
663
666
668
666
662
652
644
630
612
591
570
559
551
542
543
546
550
550
547
542
531
518
501
485
472
457
441
423
401
376
357
361
407
489
590
674
741
790
820
841
855
863
865
867
865
860
850
838
820
798
773
749
718
693
668
642
620
599
574
550
518
489
459
432
401
369
339
309
286
262
237
210
199
221
287
384
489
564
628
670
700
718
726
734
734
734
732
724
718
706
688
666
640
619
606
591
580
570
563
552
542
528
507
485
464
443
421
400
379
353
331
310
285
267
265
301
377
473
574
638
692
730
752
770
778
782
782
782
780
772
762
750
732
710
685
660
634
612
594
578
562
543
522
500
479
453
428
404
381
355
330
305
278
254
229
203
182
177
206
275
373
463
538
590
627
648
658
666
668
670
664
659
654
643
630
610
588
567
546
536
531
534
535
538
542
539
528
522
509
493
473
457
441
421
401
383
361
343
359
417
508
607
698
756
801
830
849
863
867
871
871
867
860
849
838
817
796
770
740
713
686
660
639
618
596
572
546
518
485
457
427
400
369
343
318
293
270
246
225
219
257
341
448
550
638
686
726
750
769
780
782
786
784
782
776
765
754
733
712
686
656
638
626
614
598
582
570
551
534
512
488
465
444
423
401
380
359
337
314
290
273
267
302
377
480
576
662
709
746
770
788
796
798
802
802
798
792
781
770
749
728
702
671
644
622
602
586
566
548
527
505
483
456
433
407
380
357
330
306
281
258
234
209
186
178
201
273
372
477
551
607
642
666
682
686
690
693
690
684
675
670
654
635
614
590
574
566
562
559
562
563
566
566
560
552
542
531
518
501
480
459
433
411
387
373
376
427
509
600
684
750
788
817
834
844
852
855
855
855
850
840
829
814
793
772
750
726
708
686
660
642
622
599
572
546
515
485
457
427
400
369
337
310
285
263
242
237
267
348
453
552
632
698
736
765
782
792
797
798
798
796
790
780
769
750
728
704
678
658
639
614
598
582
562
546
527
505
483
459
437
412
391
369
347
322
297
275
254
257
294
383
485
579
651
710
737
761
774
784
789
790
786
784
774
762
746
726
704
679
654
624
606
590
572
554
534
512
491
465
439
412
385
356
331
305
278
251
221
194
170
152
148
191
277
376
469
550
592
624
646
659
667
670
670
667
666
659
648
634
612
591
570
563
544
542
538
535
534
532
524
518
507
493
481
467
453
437
425
412
397
379
373
405
467
552
638
704
749
786
802
816
826
826
826
826
821
816
806
790
774
754
733
712
690
668
650
634
612
591
570
547
518
489
457
425
401
376
355
333
306
282
265
282
333
421
519
602
670
716
748
770
781
789
794
794
794
790
785
777
766
749
728
706
685
663
642
623
610
598
582
566
546
530
511
493
473
455
433
412
391
369
344
333
337
396
479
570
654
716
762
792
813
830
837
842
846
848
848
842
836
822
802
781
757
726
700
672
646
623
596
570
543
514
477
445
413
381
355
325
297
269
239
213
186
173
189
259
359
457
544
600
642
667
680
690
692
694
690
685
676
666
652
631
610
590
571
550
540
538
538
538
538
538
532
524
514
503
489
469
448
427
405
380
364
361
399
471
566
654
726
774
808
829
842
850
853
855
853
848
842
830
814
794
773
749
742
696
671
650
628
607
586
559
532
501
475
445
413
385
353
325
298
269
245
227
235
281
381
485
582
652
704
738
761
774
782
786
786
786
781
773
762
749
728
706
680
656
634
618
604
594
578
562
546
524
503
481
460
439
417
396
375
349
326
302
289
293
341
421
518
603
674
716
748
770
784
792
794
794
794
786
781
773
758
737
713
690
663
636
610
584
566
546
524
503
481
456
432
409
383
356
329
302
275
249
222
193
173
171
214
293
396
487
558
599
631
650
663
668
670
670
664
654
647
634
618
596
575
558
544
539
538
543
548
554
555
558
550
540
532
522
505
489
473
456
435
413
403
416
473
547
627
694
745
780
802
817
828
834
842
842
842
837
829
818
801
780
758
737
716
694
676
655
634
611
584
558
524
487
445
404
367
329
291
254
217
190
166
156
186
250
337
421
496
558
599
628
646
656
662
666
670
667
662
655
642
626
604
583
558
534
518
509
499
491
481
469
456
445
429
413
397
379
365
349
331
313
293
271
258
265
310
388
473
555
619
666
698
720
730
740
742
742
741
736
726
716
702
682
659
632
610
591
578
562
546
530
509
488
467
441
419
395
369
343
315
293
267
243
213
191
175
177
222
297
381
457
519
566
595
611
622
627
630
630
624
619
610
603
590
570
554
535
518
504
501
501
501
504
505
499
488
477
465
452
437
421
405
389
372
353
337
363
419
505
599
682
742
792
826
850
863
873
879
879
879
875
869
861
846
825
804
778
756
732
710
690
671
650
628
607
586
554
524
497
471
441
413
381
349
317
287
274
281
343
425
522
603
670
718
752
770
786
793
798
798
798
796
786
776
760
738
717
693
686
639
615
594
574
558
542
520
499
477
455
431
409
387
363
341
315
291
265
245
242
269
347
437
530
604
660
698
722
736
742
746
746
742
733
725
710
689
667
638
614
584
550
534
520
505
484
463
441
420
396
369
341
311
281
254
227
197
166
139
108
83
67
72
146
242
341
432
504
550
583
604
618
624
630
630
628
623
614
598
579
558
532
514
493
481
473
469
463
452
445
435
421
409
393
380
369
353
337
321
302
289
277
294
351
433
528
616
690
745
785
806
821
829
834
840
842
838
837
832
818
804
788
766
750
737
722
706
690
670
648
627
606
580
556
534
505
481
461
440
419
397
379
371
389
449
532
622
692
750
790
820
841
850
859
861
863
865
863
859
848
834
814
793
772
750
725
704
682
664
643
622
599
570
542
514
481
449
417
385
353
322
295
269
249
257
309
388
476
558
610
647
670
688
696
698
698
698
694
688
679
670
648
627
606
580
562
550
539
531
526
524
519
514
501
485
473
457
439
417
396
375
353
334
323
341
395
483
570
646
702
746
768
784
790
792
797
798
793
788
778
762
744
718
696
682
646
622
606
586
564
543
518
496
475
453
431
404
381
359
331
309
281
254
237
255
314
405
503
586
650
697
729
750
761
766
770
772
772
770
764
753
738
717
696
670
650
631
614
599
588
578
560
542
522
504
483
465
444
423
401
380
356
333
311
311
341
417
500
578
644
688
718
740
756
766
768
770
770
769
761
750
738
720
698
678
651
618
591
567
546
530
511
489
468
447
421
399
375
349
322
295
269
238
211
185
175
197
257
343
428
493
544
571
594
604
612
618
618
618
614
612
607
602
590
574
558
546
535
526
526
523
518
511
500
489
475
461
445
433
415
397
377
359
345
338
373
441
539
632
710
762
802
826
844
852
859
863
863
859
853
845
834
817
796
770
742
713
690
664
646
626
604
583
558
527
500
469
441
412
381
353
323
297
274
263
293
359
447
534
606
659
698
720
738
746
754
757
758
754
752
742
736
720
698
675
648
634
619
606
594
578
564
550
528
507
485
464
440
417
392
368
341
314
290
273
294
353
437
523
600
658
696
722
738
748
750
754
750
748
742
732
718
698
671
644
618
591
564
546
528
509
493
472
451
429
407
380
353
326
299
273
245
215
185
159
148
177
246
337
421
492
546
586
607
623
638
643
646
650
650
647
638
626
607
586
570
551
538
532
524
518
511
500
489
477
464
449
433
417
401
381
363
341
323
313
321
383
465
558
638
700
738
768
784
794
801
806
806
806
804
798
788
774
754
733
712
706
667
643
622
602
583
562
536
512
489
468
447
425
403
379
357
330
303
281
281
315
381
471
551
614
659
694
710
725
733
734
738
738
734
729
721
710
693
671
650
630
614
598
586
572
558
542
523
505
484
463
441
415
391
365
338
311
285
254
227
209
215
263
345
428
497
550
579
600
610
614
616
618
616
611
602
595
582
566
544
520
493
473
460
445
439
431
425
419
408
397
387
376
365
355
344
333
322
309
297
283
281
313
383
468
554
615
660
694
713
724
726
730
730
730
728
720
714
697
675
654
632
614
602
590
576
562
550
531
509
488
467
445
420
396
373
347
319
293
266
237
213
210
255
337
429
515
590
631
660
678
688
696
698
702
702
702
696
688
674
652
631
610
582
566
554
547
536
526
519
508
493
477
459
437
416
392
369
343
315
289
262
238
225
245
311
401
491
571
638
671
701
718
729
740
742
746
749
750
745
737
722
701
679
654
632
614
602
595
582
566
544
523
501
480
453
429
404
380
353
326
302
277
250
223
205
206
251
329
419
496
566
599
628
646
655
663
666
670
672
674
668
663
654
638
619
602
588
583
582
586
588
590
584
576
570
559
546
534
518
499
477
456
435
417
400
403
445
515
600
678
740
785
818
834
848
855
860
865
867
867
864
859
846
830
810
788
764
742
722
706
686
668
647
622
599
572
546
519
489
461
435
408
381
349
322
301
309
355
429
519
599
666
713
748
774
785
793
798
804
806
806
801
793
782
765
744
722
701
679
662
642
626
606
584
566
546
524
503
477
456
435
413
392
368
345
322
301
285
307
364
449
540
615
678
722
749
770
777
788
794
794
794
794
788
777
766
745
721
694
671
647
622
596
578
558
536
515
493
471
447
421
399
372
345
319
295
269
241
211
189
185
214
285
380
468
538
587
616
638
643
646
650
650
647
646
640
632
622
604
583
562
543
535
530
526
526
526
520
512
497
487
476
461
447
433
421
405
387
365
348
337
349
412
495
586
664
721
762
792
808
822
828
833
838
838
836
830
820
806
786
764
740
718
697
675
654
634
615
594
568
544
514
487
460
437
416
395
373
352
327
305
294
310
361
452
543
622
689
732
762
782
796
806
808
810
810
810
805
798
785
764
742
716
692
670
648
627
610
588
567
546
524
503
481
461
443
421
401
383
361
335
317
297
299
334
401
485
566
630
682
712
734
749
757
766
766
766
766
764
753
742
725
704
682
654
627
602
582
566
550
534
515
493
472
451
425
403
379
353
330
306
281
255
231
205
189
197
237
318
404
481
543
580
606
620
628
634
634
634
630
624
616
606
588
567
546
519
500
489
484
481
477
477
475
473
468
463
453
447
436
425
415
401
389
368
352
345
372
431
509
587
654
702
740
758
770
776
781
786
786
786
782
776
762
742
721
700
678
656
635
618
596
575
554
532
508
485
464
443
421
404
383
361
338
311
289
269
261
281
355
445
538
615
676
718
749
762
774
784
789
790
790
788
782
770
754
734
709
685
662
640
622
606
586
570
554
538
522
501
480
461
441
421
403
381
360
338
317
305
313
349
431
514
594
654
700
730
749
760
766
770
773
774
773
765
758
746
728
706
679
652
630
604
583
566
554
535
518
496
475
453
428
404
377
355
330
305
282
255
233
213
205
221
289
372
457
520
571
606
624
635
638
642
644
642
640
635
630
618
599
578
552
531
509
499
493
493
492
489
489
480
472
461
451
437
421
409
393
377
361
343
329
333
376
449
536
616
686
728
757
778
792
797
798
802
802
798
793
785
770
749
722
694
667
643
622
604
586
566
544
526
505
484
463
441
420
399
377
356
334
309
289
273
289
337
420
514
598
664
714
744
765
778
788
793
794
794
794
786
780
766
746
724
697
674
652
634
614
596
575
558
542
523
505
484
465
445
428
407
385
363
338
321
303
306
349
423
508
590
652
698
730
750
764
770
774
777
778
777
769
758
746
728
706
684
670
626
600
579
558
542
526
505
484
463
437
412
391
369
344
319
293
270
246
221
202
197
233
302
388
473
538
586
614
628
639
646
650
647
646
640
632
622
610
591
570
550
531
522
518
515
514
512
507
501
491
480
465
451
437
421
405
389
369
348
331
329
363
437
526
608
678
734
766
788
802
812
817
822
822
820
814
808
794
774
752
725
698
671
647
630
612
591
570
547
523
497
476
455
433
412
391
369
348
323
297
287
301
357
444
538
618
684
729
762
782
793
802
804
806
806
801
796
786
773
752
726
700
675
650
628
607
590
568
550
534
512
493
473
452
431
413
392
371
349
323
305
289
314
371
449
534
614
670
710
737
754
765
770
774
773
768
762
752
738
718
696
666
634
606
576
554
538
522
505
488
467
445
420
399
373
351
326
301
274
247
221
195
182
185
246
326
413
493
555
594
618
631
642
648
654
658
656
654
646
635
619
598
576
555
550
524
519
514
511
500
493
483
469
453
441
428
413
397
381
365
344
325
321
344
405
497
583
658
714
753
777
790
801
809
810
814
814
810
804
793
778
757
733
706
680
656
634
618
599
578
556
532
514
492
473
453
432
411
389
368
347
325
315
337
393
476
564
646
700
742
770
785
796
802
806
806
806
804
796
786
769
748
726
697
675
654
628
610
590
568
547
522
499
475
457
436
415
393
372
351
329
307
289
293
335
413
501
584
648
702
728
746
758
764
769
770
766
764
754
742
726
706
678
646
614
584
566
546
530
514
493
476
455
429
407
380
357
330
303
281
253
223
197
173
164
201
267
356
441
508
556
590
602
612
618
618
615
614
608
603
598
582
566
550
530
514
505
497
495
493
488
480
469
459
445
429
413
395
381
360
341
321
305
305
333
407
500
594
671
722
762
786
800
810
816
818
818
818
816
810
798
780
758
734
708
682
659
635
618
596
575
554
528
504
473
452
431
409
388
364
341
314
290
273
287
341
425
519
602
662
709
736
758
769
777
782
782
782
782
776
762
750
729
705
674
642
618
602
586
572
558
542
523
501
480
459
433
412
391
369
347
322
301
281
273
289
361
449
542
614
672
710
737
750
758
762
765
762
761
753
742
725
704
678
648
614
586
560
542
526
505
487
469
448
424
401
376
352
325
302
275
249
218
189
160
142
144
185
273
367
457
519
567
598
616
627
630
634
636
638
636
631
622
608
587
562
536
518
505
499
491
481
475
464
453
439
425
409
393
377
361
345
326
309
291
283
309
372
465
566
646
710
754
780
796
806
816
821
822
822
820
810
804
790
770
744
717
694
668
650
630
612
594
574
552
528
505
484
463
441
424
403
377
356
334
321
318
351
421
507
590
658
709
741
762
773
781
786
790
790
790
784
773
762
745
724
702
689
648
626
608
587
566
550
536
518
497
479
457
436
415
393
372
351
329
307
291
297
338
416
501
582
643
690
716
729
738
740
742
742
733
728
718
706
688
666
639
612
586
566
547
534
518
501
485
468
447
425
404
383
361
335
311
289
266
239
213
193
190
225
294
385
469
539
587
622
643
656
662
663
666
666
662
659
650
634
615
590
570
556
546
540
532
526
520
512
501
489
476
465
453
437
425
408
384
361
339
326
325
381
456
546
627
694
734
768
784
794
801
806
810
810
810
810
800
786
766
745
721
698
676
655
638
618
599
578
556
532
509
488
467
449
428
407
385
360
341
321
321
356
421
507
587
654
704
738
754
768
773
778
782
782
778
777
769
754
737
716
690
663
636
614
596
575
558
546
530
514
496
475
453
432
413
393
372
351
329
306
293
305
353
428
518
587
646
686
710
726
734
738
741
742
736
728
718
706
690
670
639
612
586
564
546
530
518
501
485
465
447
425
404
383
361
334
310
285
262
238
213
199
218
273
355
437
518
564
599
622
636
647
650
654
654
654
647
639
630
608
587
562
543
532
526
520
515
509
503
492
481
469
453
441
431
417
401
379
355
337
318
318
361
431
516
598
659
705
738
754
768
774
776
781
782
782
780
770
758
740
718
696
682
646
624
606
590
568
550
534
522
503
481
461
443
421
400
379
357
335
322
317
356
428
509
590
654
702
732
748
762
768
770
774
774
774
770
764
753
734
713
692
666
643
619
602
582
566
550
534
518
497
477
459
437
416
395
373
352
330
309
299
318
369
453
536
602
654
686
706
716
721
726
726
724
718
712
701
690
672
648
622
594
570
554
534
515
497
481
463
441
416
395
365
343
318
293
266
239
213
191
181
197
265
353
449
531
592
634
660
671
678
682
682
678
676
668
658
640
619
594
567
543
526
515
507
501
492
484
473
459
445
429
413
397
377
360
338
313
287
269
281
330
419
522
606
670
718
748
766
774
784
789
790
786
786
778
772
756
734
712
682
658
632
608
586
574
560
550
534
515
493
473
455
433
412
391
365
344
322
313
338
397
481
564
634
686
722
746
762
768
773
778
778
776
770
764
753
738
716
692
670
643
616
598
580
562
546
530
514
497
477
459
437
417
399
377
352
327
305
306
333
397
481
564
630
678
710
734
745
753
758
760
762
762
757
752
742
725
704
674
651
627
602
582
566
554
536
515
493
472
451
425
404
383
357
330
303
281
255
239
237
289
364
445
520
576
610
630
643
646
650
650
650
644
639
630
619
606
586
564
546
526
520
518
514
512
507
501
495
481
469
453
440
421
400
376
349
322
311
325
380
460
554
627
686
726
750
766
774
778
781
782
777
772
766
754
736
714
689
664
638
612
591
570
554
535
518
496
475
453
432
411
389
363
338
313
287
266
269
303
381
473
556
623
678
704
722
734
744
749
750
750
748
746
734
721
702
679
666
634
618
602
586
570
554
538
522
503
481
460
439
417
396
372
349
321
294
277
289
337
417
509
587
650
694
721
742
749
757
762
762
762
758
753
745
734
713
692
666
639
615
598
582
566
546
524
503
481
459
435
409
387
357
329
302
275
245
223
226
261
343
431
509
576
616
642
652
660
670
670
670
666
663
652
642
628
607
582
554
532
522
516
514
509
509
507
501
495
484
473
461
443
421
399
372
349
331
337
373
451
536
614
670
710
734
748
753
754
758
758
754
753
745
734
721
700
674
647
620
598
576
560
546
530
514
493
472
453
433
412
391
369
347
322
297
279
274
309
379
467
554
616
662
690
709
720
726
730
733
734
734
732
722
712
696
674
651
638
610
599
586
570
554
540
526
504
483
465
444
423
401
380
359
333
311
295
301
347
424
509
586
644
686
712
728
738
740
742
746
746
744
742
736
722
702
680
659
638
618
602
590
578
562
546
528
509
493
473
455
433
412
391
369
344
319
297
305
345
417
500
575
630
667
686
698
704
706
702
701
696
686
675
664
646
623
596
566
554
519
501
488
467
445
424
403
377
349
319
293
262
233
201
164
132
100
78
86
124
209
289
361
411
445
461
475
480
481
480
477
473
467
456
441
420
399
373
355
347
337
330
322
317
306
293
281
270
257
241
225
209
193
173
154
140
140
181
261
359
452
538
590
632
666
686
705
714
725
733
738
744
746
746
740
726
710
694
678
674
650
634
618
602
586
570
554
535
518
496
475
449
421
392
369
363
387
453
539
619
682
728
760
782
789
797
802
804
804
802
797
792
782
765
744
722
701
679
654
634
615
594
572
548
522
495
465
437
416
389
361
329
299
277
275
313
381
464
536
594
630
646
658
662
662
658
656
651
646
635
624
614
592
571
546
524
511
501
492
484
477
467
456
441
425
407
385
363
335
309
278
254
257
295
373
465
544
603
642
660
668
674
670
667
658
651
640
630
616
595
566
536
515
501
487
476
465
453
440
425
408
387
361
330
303
277
249
217
181
160
160
201
279
373
449
508
543
566
572
578
578
576
574
570
560
552
542
528
507
481
465
449
437
428
420
413
407
396
385
369
356
341
321
302
285
263
245
229
227
259
325
409
487
554
598
624
634
642
642
642
636
631
626
620
612
598
580
559
538
516
500
485
479
468
457
445
429
409
392
371
349
325
293
261
223
186
156
146
175
249
341
427
501
534
555
566
567
567
562
556
551
546
539
531
522
500
489
457
443
432
429
425
425
425
424
416
409
403
389
377
367
353
341
325
314
309
331
388
477
576
662
726
766
790
802
802
802
798
793
785
778
766
748
726
706
676
638
615
591
574
556
538
518
496
472
441
420
399
377
356
329
301
274
253
241
267
337
433
527
604
658
694
710
714
718
718
718
717
712
706
700
686
670
646
619
598
586
575
566
564
559
546
531
515
493
476
455
433
412
391
365
338
311
305
322
387
477
574
654
710
741
762
770
778
778
778
778
776
770
765
757
738
716
686
658
632
611
590
578
564
554
532
511
489
468
444
421
396
372
341
313
281
257
254
283
361
453
544
622
667
692
706
712
714
710
706
704
698
692
680
666
644
620
598
578
562
554
550
547
538
526
512
497
481
465
449
433
417
397
376
357
337
345
385
457
552
643
706
750
774
786
792
794
794
793
790
786
780
769
750
729
705
678
656
635
618
602
583
562
540
516
489
464
443
421
400
379
353
323
302
281
282
325
405
512
608
686
734
766
782
796
801
802
808
810
806
805
800
786
769
748
726
701
682
662
646
630
614
592
571
550
528
509
489
468
447
425
403
379
357
345
369
425
507
590
666
709
741
762
776
784
786
792
797
798
798
798
794
782
766
746
726
710
690
672
654
638
624
603
582
559
535
518
500
479
457
436
415
389
372
375
413
479
562
638
694
734
762
773
784
790
792
794
794
793
785
774
758
740
718
688
660
634
614
598
578
560
542
522
500
479
457
437
419
397
376
357
337
335
368
425
500
570
622
658
674
682
686
689
686
686
684
678
670
654
634
611
584
562
544
526
509
493
477
457
436
415
393
367
339
313
286
257
221
190
160
156
195
281
385
477
552
606
636
658
670
678
678
678
678
678
670
663
647
626
599
570
562
523
512
501
491
480
469
457
441
425
411
397
377
356
331
301
286
291
333
411
496
566
620
655
678
689
694
698
697
694
690
685
679
670
648
627
598
575
551
530
519
505
493
480
459
437
411
387
361
330
301
269
238
211
205
229
290
369
439
495
534
551
559
562
558
555
550
543
535
526
514
495
473
460
425
409
400
395
393
393
393
389
383
369
357
335
314
293
271
258
253
286
351
433
523
592
642
667
684
694
696
698
694
684
670
654
632
611
590
566
534
497
472
451
429
408
384
353
325
295
273
257
241
225
209
190
181
186
221
281
359
433
489
530
556
570
578
580
582
576
571
562
551
540
522
500
473
449
432
413
401
391
383
373
361
348
333
317
298
277
255
231
209
205
226
285
372
465
538
590
616
630
634
634
630
624
619
610
600
592
574
552
528
493
477
464
453
452
449
449
445
445
441
425
412
393
372
345
317
305
329
389
471
548
618
648
667
678
676
671
666
656
651
642
630
614
594
567
538
514
495
484
473
461
445
429
416
395
373
352
327
305
277
250
229
233
275
349
443
526
586
626
642
646
650
650
646
640
635
630
619
606
586
562
530
505
488
472
461
456
451
441
431
420
405
389
373
353
330
306
289
291
331
409
495
572
630
662
680
686
686
684
678
668
660
650
638
619
598
566
536
509
489
471
457
445
429
413
396
375
349
326
302
273
242
213
181
167
178
225
311
400
469
518
544
550
554
551
546
539
531
522
512
504
489
465
433
409
384
363
341
319
298
277
254
227
205
183
164
144
127
103
76
52
44
72
139
233
321
397
448
481
492
497
497
496
499
509
522
535
546
543
527
505
479
452
429
423
407
405
401
399
393
383
372
357
337
321
317
331
388
473
563
638
694
725
746
754
762
765
766
770
770
770
765
757
742
721
710
670
640
622
602
584
563
542
520
496
469
443
416
389
361
329
297
287
303
361
448
539
610
658
682
694
700
702
702
697
694
686
676
668
650
628
604
574
558
544
534
523
512
501
485
467
445
428
407
385
364
343
317
293
277
289
339
423
522
600
659
690
708
716
718
717
712
710
704
696
686
672
651
626
598
582
566
550
536
522
509
493
477
457
441
421
404
383
361
335
311
289
281
297
361
453
550
630
685
717
734
740
742
738
738
733
726
721
713
698
676
652
622
602
583
570
555
544
534
516
497
477
460
439
421
400
376
353
326
302
281
289
334
417
522
612
674
718
734
742
746
746
738
738
736
730
720
706
686
658
626
602
580
564
554
544
536
526
511
497
481
464
445
429
412
391
369
348
329
341
384
469
574
659
726
770
789
794
798
798
796
794
789
784
774
762
744
718
705
662
638
622
606
586
568
547
530
509
491
469
449
431
409
388
364
337
327
341
393
492
602
694
768
813
838
853
861
867
868
871
875
875
872
867
855
836
810
788
774
746
726
710
698
685
663
642
620
599
578
556
535
509
484
460
437
425
449
505
591
676
746
794
826
842
857
865
871
876
879
883
883
883
875
859
840
818
801
780
758
746
728
706
685
660
638
611
584
558
530
500
469
439
409
381
357
365
409
481
556
622
662
689
702
708
708
706
701
696
686
675
664
654
632
608
582
556
538
522
505
492
477
464
443
425
404
380
357
331
307
277
249
222
201
225
286
377
475
555
614
650
676
694
705
713
718
724
726
726
725
717
702
680
659
642
623
615
610
604
599
590
579
566
550
527
503
481
459
429
401
372
356
365
435
531
634
721
788
830
863
879
891
901
909
919
920
923
923
916
903
887
865
844
822
806
793
778
758
740
718
697
675
654
628
604
574
547
518
489
467
459
493
554
631
698
750
785
806
816
821
830
838
841
842
846
846
838
828
814
794
773
752
730
709
688
666
644
620
594
567
538
505
475
445
413
376
341
305
278
270
305
379
467
542
600
638
662
672
680
686
692
694
698
698
698
694
684
670
654
643
632
622
623
626
626
626
620
606
590
576
558
536
515
493
472
451
445
468
524
606
679
741
782
813
837
850
861
872
879
885
891
891
889
881
871
855
838
826
816
805
790
780
769
754
744
733
718
697
672
650
628
610
594
579
574
590
632
694
762
830
889
943
959
961
951
929
905
883
861
842
822
800
773
746
713
675
642
607
580
554
528
504
477
455
425
397
365
333
301
265
238
221
242
293
361
428
481
522
550
566
578
583
588
594
594
594
590
578
562
546
524
503
481
469
459
445
436
428
417
403
392
381
364
345
325
309
295
301
341
411
493
570
626
670
697
716
726
737
745
750
758
758
754
742
724
702
679
655
630
608
584
562
535
508
481
453
421
389
357
325
293
263
242
253
303
387
485
555
611
650
668
679
682
686
686
686
675
667
658
646
627
602
586
540
518
501
485
469
459
448
433
412
385
353
318
278
237
209
195
217
290
384
473
551
602
638
667
684
698
705
716
722
728
736
738
740
729
710
693
671
654
632
611
594
579
568
554
532
508
477
440
400
365
353
377
437
512
582
634
663
676
682
680
675
666
651
640
630
618
602
582
555
526
489
457
425
401
376
355
333
305
275
245
213
181
144
104
72
56
80
144
237
319
384
429
453
467
469
468
463
457
445
432
421
404
383
353
339
299
277
261
247
237
230
219
205
193
177
160
139
118
96
71
58
52
100
175
265
349
411
453
477
488
497
497
497
497
496
488
481
468
447
441
393
367
349
329
315
305
290
277
261
245
229
209
187
166
140
114
90
80
96
155
241
333
413
469
499
515
522
516
511
501
496
488
477
471
457
437
413
397
385
376
371
365
359
348
337
325
309
293
278
262
241
219
206
201
246
315
405
491
558
598
626
639
646
650
650
654
654
654
646
630
611
590
562
535
518
507
496
489
481
465
449
428
409
389
367
343
317
290
266
253
271
335
417
501
568
618
639
652
658
658
655
650
640
635
626
610
594
574
543
519
501
488
480
469
464
456
445
435
424
409
388
367
345
318
291
269
261
287
349
435
518
582
627
648
662
666
663
654
648
640
630
618
602
582
562
530
497
472
456
445
436
428
417
403
389
369
344
322
293
266
239
213
181
148
140
158
225
317
408
480
534
554
567
574
574
571
570
564
559
550
539
523
501
479
465
437
429
427
421
415
404
393
383
369
357
343
329
309
287
269
249
259
305
385
489
588
662
710
740
762
773
778
782
781
778
778
773
765
750
729
708
702
655
631
614
594
575
562
550
534
514
492
471
449
428
407
381
355
344
357
419
509
610
684
742
782
801
814
818
822
822
822
821
818
814
802
786
766
745
726
722
689
670
654
638
619
598
575
551
530
503
476
449
424
400
377
372
399
465
556
644
714
764
793
814
820
822
822
822
820
814
808
797
782
760
733
702
671
644
618
598
579
558
536
512
481
453
421
389
359
329
301
269
242
221
241
302
397
496
579
638
674
690
702
706
709
714
713
710
706
698
682
662
640
622
606
599
594
590
584
579
570
555
542
522
500
479
457
435
408
385
376
395
465
556
655
742
796
836
859
869
877
883
891
893
895
895
889
879
865
844
822
802
786
774
762
746
730
713
692
670
647
623
598
571
542
514
485
461
449
489
554
634
705
761
794
813
821
830
837
842
846
848
850
850
840
829
814
793
772
766
730
712
694
672
651
630
603
576
550
518
488
457
425
391
357
326
318
349
419
504
590
647
690
714
728
733
734
738
738
738
733
728
718
706
688
666
655
626
614
608
603
598
591
580
566
550
531
509
488
467
445
419
400
393
436
508
590
668
725
766
792
805
814
820
822
826
826
824
818
812
798
778
757
736
710
690
671
654
634
615
594
571
544
518
491
464
437
405
373
349
341
371
433
522
607
678
728
757
778
792
800
802
806
809
810
810
805
794
778
760
738
717
696
674
656
638
618
596
575
550
523
496
473
452
431
405
380
361
357
399
473
562
642
704
750
776
792
802
804
806
810
813
808
802
792
776
754
728
701
674
647
620
598
576
555
530
501
472
445
413
384
357
325
293
261
235
230
257
338
429
514
582
624
646
659
664
666
670
670
674
672
670
662
646
630
610
598
584
570
568
566
562
551
540
530
515
501
481
460
436
409
389
376
393
447
532
618
690
744
782
802
816
822
828
836
838
838
838
834
824
813
794
773
752
730
710
694
674
656
635
610
587
560
534
509
477
449
421
392
369
377
417
489
575
655
714
761
785
806
817
825
834
840
842
842
841
833
822
805
784
762
750
732
706
686
667
646
624
600
574
548
524
493
465
433
401
372
353
369
421
504
590
659
716
754
774
788
794
802
805
806
802
800
790
777
756
734
708
694
654
628
604
582
555
528
501
475
445
413
383
356
325
297
265
229
207
205
245
323
417
497
560
600
626
638
646
650
651
654
658
656
651
642
628
607
586
570
556
550
548
540
530
519
505
493
477
464
449
428
407
385
364
345
357
412
495
590
663
722
762
788
806
818
826
829
830
834
832
826
816
802
782
761
740
718
697
675
654
632
611
590
563
534
505
479
452
421
393
364
341
341
371
441
531
616
686
732
764
786
797
808
814
816
821
822
817
809
798
781
760
734
713
692
670
650
631
610
584
560
530
507
477
449
427
400
373
347
325
317
351
420
509
592
662
710
742
758
770
780
785
786
786
784
778
766
750
730
704
676
670
618
588
562
539
515
489
468
444
417
391
364
333
305
273
237
202
173
168
207
287
385
469
534
582
603
619
626
634
636
638
638
635
630
623
607
586
566
547
538
528
523
514
507
496
485
469
453
437
417
399
377
356
331
309
318
361
433
528
616
678
726
756
778
789
797
802
804
806
806
801
796
782
765
744
718
697
675
658
636
615
594
572
548
526
500
479
457
435
408
377
348
326
317
343
409
501
584
651
702
732
753
766
776
781
782
782
782
778
768
754
734
713
689
666
640
619
598
576
555
530
508
487
465
440
419
397
373
341
309
277
250
253
297
380
473
556
620
666
686
700
706
708
705
698
692
678
666
648
627
602
576
555
538
524
519
514
509
504
489
473
457
437
417
399
377
356
331
309
297
299
333
400
477
546
602
631
654
663
668
674
674
674
670
663
652
638
616
595
574
548
535
526
516
508
493
479
465
445
424
400
373
351
321
293
261
226
201
201
249
333
440
534
610
655
688
710
724
732
734
738
738
734
728
712
690
668
642
614
594
572
554
542
528
518
500
479
457
432
408
385
359
331
301
274
247
233
257
329
433
548
647
726
778
810
826
826
824
814
805
800
794
788
777
766
753
732
706
685
663
646
624
603
582
550
520
489
463
439
413
391
364
333
301
269
237
245
279
341
401
447
473
492
500
505
509
509
514
514
514
514
508
503
493
483
475
473
465
465
469
471
473
469
463
452
441
429
416
401
385
367
345
329
334
377
460
567
678
757
818
863
893
917
935
952
968
979
985
991
991
979
960
939
917
899
879
864
850
830
813
792
770
748
718
690
663
636
606
574
542
514
496
504
550
616
689
750
794
821
838
844
846
846
846
841
834
828
817
802
780
753
726
704
679
662
642
626
606
588
567
546
524
503
485
465
447
425
400
381
361
364
396
461
544
619
678
721
745
758
764
769
774
774
774
774
768
757
746
725
701
694
646
619
598
578
559
542
520
501
481
464
443
421
399
375
353
330
306
301
327
395
477
558
622
670
696
712
722
730
733
734
738
738
730
725
714
698
678
659
642
627
619
610
599
588
574
554
535
514
493
475
453
432
411
385
369
367
401
471
562
638
702
745
770
790
801
806
812
814
818
822
820
814
804
790
770
749
728
706
686
670
654
632
611
590
563
539
514
487
460
433
408
384
361
356
385
445
530
607
670
710
742
758
769
777
782
788
790
790
789
784
774
758
740
718
702
684
658
642
623
602
580
556
534
507
483
461
439
415
389
363
335
317
313
353
421
503
578
638
668
690
702
708
713
714
714
714
710
700
689
674
652
628
602
574
558
546
530
514
493
476
455
433
411
387
365
339
315
289
262
243
233
271
344
441
535
604
654
688
704
718
724
726
726
726
724
714
702
684
662
640
619
598
588
586
578
568
560
550
528
504
477
456
435
413
387
357
329
307
299
325
405
501
598
674
730
766
789
800
810
816
821
826
826
824
818
805
784
762
737
713
690
672
654
638
616
595
574
547
520
497
471
447
425
403
379
357
341
349
401
475
558
634
688
728
750
765
776
782
792
797
798
802
800
790
778
760
738
718
710
678
660
642
622
600
579
558
531
507
485
464
443
421
396
372
345
343
367
421
505
588
650
696
728
750
757
765
770
772
774
774
769
764
750
729
705
674
647
623
598
575
551
530
507
480
457
435
411
385
359
331
301
270
243
217
203
214
257
343
428
497
546
578
594
606
608
610
615
618
618
616
611
602
586
570
554
542
531
522
520
518
514
503
489
477
463
449
433
417
401
385
365
349
353
385
455
538
615
676
726
748
764
774
784
792
794
798
798
794
784
773
758
737
716
690
668
650
630
608
587
566
543
519
493
473
455
433
412
388
361
335
325
337
404
484
566
638
686
718
738
752
762
768
770
774
774
772
770
762
744
722
701
679
662
640
619
602
580
562
542
524
503
481
460
439
417
395
368
341
322
317
341
413
493
574
634
679
710
729
740
746
752
757
758
758
756
746
729
708
686
658
628
606
579
560
546
524
503
481
460
436
413
388
364
337
309
277
249
219
198
213
266
352
437
509
558
586
604
615
622
626
628
630
630
630
630
619
606
590
570
562
546
542
539
538
527
519
509
497
481
465
451
437
421
400
381
361
365
400
465
551
636
698
742
772
794
806
817
822
824
826
830
829
824
814
797
776
754
732
708
690
674
655
634
612
588
566
538
511
485
455
425
397
372
351
333
345
396
473
558
632
690
729
756
770
785
793
798
804
806
806
801
793
778
757
736
714
689
667
646
630
611
590
567
540
518
500
479
457
435
411
389
363
338
325
343
401
481
566
638
698
725
746
758
768
773
774
774
772
766
756
742
722
696
682
634
599
572
550
524
500
477
456
435
409
387
357
333
305
275
245
211
179
156
163
209
285
372
444
497
531
547
558
558
558
558
558
555
550
543
532
518
496
477
461
456
443
437
432
424
413
397
381
361
345
326
305
283
259
237
217
209
233
317
419
522
604
668
710
740
758
770
781
789
786
781
773
762
745
721
694
666
636
610
583
564
554
534
515
493
472
448
425
400
376
349
321
289
261
245
253
309
396
497
586
652
698
726
745
756
766
774
777
778
774
769
754
737
713
686
659
635
618
600
582
566
550
536
518
497
479
457
436
415
393
372
348
321
317
335
389
475
560
630
679
714
738
749
757
762
764
766
766
761
753
738
717
693
662
635
608
582
559
532
514
492
471
449
421
395
369
343
313
281
250
221
189
168
171
205
281
361
429
477
509
522
530
532
534
534
534
534
534
534
526
515
501
485
473
463
453
452
449
445
439
425
413
401
385
369
352
330
309
287
266
265
303
397
509
624
718
794
841
879
907
928
949
967
981
992
1003
1007
1001
987
965
944
927
908
895
891
861
842
822
805
784
758
737
713
686
658
628
602
574
560
574
628
693
758
810
842
867
877
885
891
891
891
887
884
873
863
849
828
806
781
760
742
736
712
694
672
651
626
600
574
542
515
483
445
408
371
337
311
317
361
443
520
586
627
656
674
684
689
690
694
694
690
685
676
666
648
627
606
586
567
550
543
535
526
519
503
485
468
447
425
404
380
353
331
315
325
376
456
542
612
666
706
726
737
742
744
746
742
738
736
726
713
692
670
648
627
606
586
570
558
542
523
501
480
459
433
411
387
357
326
297
273
274
317
393
488
574
642
682
712
726
740
745
746
752
754
750
749
741
726
709
688
682
648
632
618
606
592
578
558
539
522
500
479
457
429
400
373
345
331
349
411
496
582
647
693
726
738
749
754
756
758
758
753
748
738
722
704
678
646
614
586
556
538
518
496
475
453
431
407
381
353
318
285
253
221
193
187
225
297
381
459
518
554
570
578
582
582
582
580
578
574
571
560
550
536
518
501
489
481
477
477
477
469
459
448
429
412
391
365
343
315
297
297
339
425
522
610
682
729
758
774
785
790
790
794
792
786
780
769
754
732
705
678
651
627
610
592
571
550
527
505
485
463
439
413
387
360
337
330
357
417
503
583
650
696
730
746
760
765
766
764
756
746
729
708
678
638
590
538
487
455
437
431
417
401
383
369
361
357
357
357
341
319
285
245
215
209
233
281
325
367
399
425
437
451
457
463
465
461
456
451
441
424
403
381
361
343
325
310
297
281
259
238
213
186
154
116
79
39
12
3
27
84
160
225
273
297
310
317
315
310
305
299
291
281
270
257
237
225
187
168
154
140
128
118
110
100
84
71
56
36
20
8
0
0
0
12
74
164
251
321
361
391
407
413
420
425
429
429
429
425
415
399
377
349
319
293
273
257
241
225
209
197
179
158
136
112
83
56
32
22
40
103
194
285
357
408
441
452
457
461
463
468
469
473
471
465
455
444
429
420
415
409
409
407
405
400
392
377
365
347
325
303
279
269
274
325
405
492
570
630
668
693
702
710
713
714
710
710
706
701
690
670
643
630
590
570
554
538
520
499
473
451
421
389
353
337
285
258
239
229
274
341
417
483
534
562
576
584
586
596
604
614
624
632
638
635
624
606
588
570
550
538
524
518
507
496
489
483
475
465
453
437
421
403
397
413
459
531
606
667
713
746
753
758
762
756
745
738
726
710
694
676
655
634
603
574
546
516
492
469
444
417
385
353
321
289
251
214
173
136
112
108
167
250
337
403
451
477
493
496
497
491
480
469
459
443
421
400
373
341
315
297
285
278
270
261
249
235
221
201
185
164
143
122
100
90
95
136
214
299
373
436
476
501
518
528
534
535
538
538
534
531
522
509
491
485
449
436
429
420
412
405
395
384
373
357
344
333
311
290
273
257
262
297
371
456
538
590
630
654
663
668
670
664
659
654
643
632
618
596
572
542
528
493
477
461
448
433
421
403
381
359
329
301
273
238
205
167
138
116
139
193
265
343
396
425
437
429
409
387
363
337
317
298
289
277
261
245
229
215
201
195
190
185
185
182
181
175
170
160
154
143
128
112
94
84
92
135
205
291
369
429
464
