511
497
487
478
475
470
464
458
447
436
424
408
391
374
357
340
323
304
284
263
246
229
212
191
171
157
138
119
102
85
68
51
38
24
17
30
72
149
242
341
433
499
553
590
610
621
620
611
594
573
550
528
501
473
441
412
385
362
340
324
316
306
306
311
318
328
337
344
350
355
357
355
350
344
342
334
327
317
311
301
296
290
284
279
273
267
262
256
255
259
284
331
418
514
615
703
777
828
868
887
896
897
886
870
853
834
811
788
766
739
709
675
641
607
579
556
536
525
518
514
511
509
505
499
488
481
470
458
446
429
416
403
386
369
357
342
327
314
300
289
278
266
255
248
239
246
289
357
446
542
641
722
784
826
857
873
879
879
868
856
845
829
815
794
771
749
722
692
658
628
609
594
586
577
575
573
573
573
569
563
554
548
536
525
514
498
487
475
464
450
433
422
408
395
384
369
357
344
330
318
307
296
284
276
279
301
357
433
531
626
713
785
838
877
896
908
908
904
893
881
866
845
825
802
779
754
722
693
665
632
610
590
577
567
562
560
560
560
560
553
545
535
524
512
501
486
474
463
447
436
420
409
395
378
365
348
335
320
308
297
286
278
267
257
252
246
262
299
365
453
549
649
722
784
828
853
870
874
872
857
845
826
807
785
762
740
713
679
645
611
584
562
543
532
526
522
522
522
522
521
515
509
498
487
475
458
444
429
413
399
386
375
363
348
341
330
318
307
293
284
273
265
255
244
235
225
215
210
208
227
272
344
437
536
632
700
757
798
818
829
832
825
811
790
771
749
722
698
672
641
605
583
560
542
522
505
498
492
488
488
488
488
484
481
475
463
448
437
420
403
386
371
357
335
318
301
284
272
252
233
218
204
191
174
157
144
127
113
102
103
117
170
249
348
446
533
604
662
689
706
717
715
700
683
665
643
620
592
563
535
502
477
450
423
403
391
380
375
374
379
382
386
392
395
395
395
392
391
385
379
369
362
351
340
325
317
306
299
290
284
279
276
272
274
289
327
386
474
569
658
732
790
828
856
866
869
860
849
830
811
790
766
737
709
673
634
599
560
529
505
484
473
463
457
452
446
440
435
429
422
410
399
392
380
369
357
340
327
316
301
289
276
262
250
238
223
212
204
206
225
282
367
471
571
665
743
805
851
874
890
898
900
889
877
866
849
832
811
788
766
743
716
690
658
635
618
611
601
599
599
594
592
590
583
575
565
554
546
535
519
508
497
486
474
458
452
440
424
413
402
395
384
375
365
354
345
335
325
323
340
382
453
543
638
723
802
853
893
917
927
932
930
923
908
896
879
862
840
818
795
773
744
713
683
656
637
615
604
596
590
583
571
560
550
545
535
522
511
501
486
474
463
447
436
424
409
397
386
375
363
348
337
325
314
303
291
280
274
283
314
385
470
565
651
724
781
818
843
862
862
856
845
832
815
798
779
757
734
710
682
654
621
590
565
549
537
531
526
526
531
531
531
526
521
512
505
494
480
467
454
440
429
416
399
386
371
357
344
327
310
293
282
270
255
245
236
250
293
367
458
560
651
726
781
823
845
857
860
853
840
823
802
779
757
734
710
679
654
626
597
573
550
533
522
511
502
497
491
486
480
473
461
446
433
419
403
382
362
348
325
306
284
262
242
225
204
184
166
149
132
115
99
88
76
92
134
208
301
406
497
571
628
671
692
700
700
689
675
658
635
610
586
558
526
492
469
443
416
396
382
374
365
362
361
368
376
386
388
391
395
395
392
391
385
379
369
368
365
361
350
338
331
321
316
306
294
286
276
286
320
382
470
569
662
739
795
840
862
873
879
868
853
836
818
795
773
744
716
683
644
604
569
532
507
488
473
464
458
457
454
450
448
440
433
426
418
408
395
380
369
357
342
331
316
304
289
278
266
250
244
232
221
218
229
276
352
454
565
666
751
819
863
894
913
921
918
913
901
887
870
853
834
811
787
758
730
700
669
645
617
597
582
576
573
573
569
566
565
558
546
535
528
516
505
494
480
467
456
441
429
418
406
395
384
372
361
346
338
327
320
308
297
290
279
272
266
263
284
338
423
522
624
715
790
843
883
904
917
917
908
897
883
866
847
825
802
779
751
717
683
652
620
592
569
552
542
539
539
535
532
526
521
512
501
494
482
471
460
446
433
422
408
395
382
368
357
345
334
323
307
296
284
278
266
255
248
236
229
225
233
272
333
426
526
621
700
764
808
839
857
866
863
853
840
823
802
784
761
734
710
679
649
621
593
569
550
536
526
525
522
518
518
515
514
509
504
492
486
474
458
447
433
420
409
397
386
374
359
348
337
325
314
304
296
284
279
276
284
331
399
488
583
673
747
805
845
870
881
885
879
866
849
832
809
787
764
737
709
675
639
603
569
542
519
509
501
498
497
497
497
492
491
486
475
465
457
446
430
419
403
392
380
365
354
340
327
316
304
293
282
273
263
253
245
238
228
219
216
236
282
357
454
556
645
719
775
811
830
842
845
834
822
807
784
761
739
707
682
654
627
601
569
541
515
497
481
467
458
454
452
446
439
430
424
412
397
386
371
357
340
321
301
284
272
252
233
216
200
187
168
149
132
119
105
89
76
59
47
40
48
85
153
246
352
443
525
590
631
660
671
673
665
649
631
609
582
558
532
501
465
440
416
393
374
352
345
340
335
338
350
357
368
379
386
393
399
403
403
403
399
393
388
386
380
375
365
363
358
352
341
327
318
314
317
335
401
486
586
685
773
840
891
923
942
951
948
938
927
910
891
869
846
823
795
764
730
695
658
624
597
575
556
542
533
522
511
499
488
482
477
467
456
444
433
422
408
395
382
368
357
344
330
318
303
291
280
273
265
263
290
344
424
526
628
717
791
845
887
904
913
917
911
903
887
872
857
836
813
791
764
734
700
666
638
607
586
570
562
560
554
552
552
546
541
531
521
512
501
490
475
458
447
436
420
409
395
382
371
359
348
335
324
314
304
296
284
274
269
272
304
363
446
548
644
730
795
849
883
903
911
913
901
890
879
856
834
815
792
767
739
709
675
637
609
583
560
542
533
531
526
524
522
516
511
501
491
482
471
456
444
429
413
399
382
371
357
340
327
310
297
286
274
263
252
244
233
228
219
212
205
214
250
317
405
509
600
682
747
790
823
840
849
849
840
823
807
790
767
744
717
689
658
632
610
590
573
552
537
526
521
518
518
518
515
514
507
498
488
477
465
454
439
427
416
401
389
374
362
351
335
324
313
306
296
290
280
269
261
250
250
256
289
342
427
526
617
699
768
808
839
853
859
859
853
840
823
802
784
764
743
719
688
654
617
588
565
546
529
518
512
509
509
509
509
509
504
498
492
481
470
458
446
431
420
405
391
378
362
351
340
328
317
310
300
291
284
273
265
259
255
266
301
372
460
556
647
720
777
815
840
857
857
852
840
823
807
790
767
744
722
696
662
628
600
575
548
526
509
497
486
477
467
461
456
450
443
429
416
405
391
374
357
342
327
306
289
272
252
238
216
200
183
166
153
136
119
106
89
76
65
51
38
32
44
81
153
246
348
448
528
590
632
661
679
679
677
666
645
626
603
580
558
531
501
473
446
424
405
391
382
379
382
389
401
416
427
436
441
447
447
446
441
439
433
426
418
412
406
403
399
391
388
386
379
368
357
355
361
391
454
542
637
732
813
883
928
959
976
982
982
972
961
947
925
907
885
862
834
802
768
734
698
666
639
620
599
587
579
569
559
550
539
524
512
497
478
461
446
435
423
412
401
386
374
362
351
340
328
320
310
300
294
289
307
352
429
521
617
709
781
838
879
900
914
917
911
903
887
870
853
836
813
791
768
740
709
675
647
618
594
577
563
552
546
543
543
539
536
526
515
507
497
486
474
463
447
436
424
409
397
382
375
363
352
341
330
323
311
303
293
296
318
365
447
543
637
722
790
840
872
886
896
894
886
874
853
836
815
792
770
747
722
690
658
624
593
565
545
531
522
518
518
518
516
514
509
502
491
484
473
458
446
433
419
408
395
380
369
358
346
335
325
317
306
299
287
280
282
296
344
418
508
599
682
747
798
829
846
853
852
843
828
809
787
764
741
719
696
668
637
603
569
537
514
501
490
484
482
480
480
480
480
475
469
457
446
435
423
408
396
382
369
354
340
327
314
303
293
282
270
259
249
244
233
228
228
242
303
388
484
583
671
734
785
817
832
836
830
819
802
783
760
737
712
683
654
622
594
570
542
514
492
475
467
457
452
450
444
439
433
423
414
403
388
374
357
340
323
301
284
267
250
229
212
195
178
161
140
123
109
93
76
59
42
27
13
4
0
11
47
133
235
344
441
524
582
621
641
654
655
644
628
605
583
556
528
499
467
433
402
374
352
335
318
308
306
306
313
324
335
346
355
365
371
374
374
374
371
365
361
358
348
342
340
335
330
324
323
317
311
310
308
325
352
423
511
611
707
787
849
896
924
942
942
937
921
904
887
866
843
821
798
768
734
700
662
628
599
569
552
535
524
512
501
495
487
480
474
465
458
447
436
424
412
397
386
374
359
348
333
318
306
294
283
267
261
255
255
279
330
416
514
615
713
791
851
891
911
920
925
918
907
896
877
855
832
813
791
764
740
709
679
651
622
599
582
567
556
550
548
543
535
532
522
515
504
492
481
467
450
439
424
412
396
382
369
357
342
331
321
313
301
291
283
272
256
248
246
273
327
403
499
599
679
747
792
819
836
845
845
834
819
802
785
768
747
724
702
675
647
621
599
576
553
543
533
528
526
526
526
522
521
515
505
494
482
471
456
444
429
418
403
386
375
361
348
337
323
310
299
287
276
266
257
246
236
231
221
215
210
208
239
296
382
486
593
683
760
819
862
883
894
900
889
877
862
843
821
798
775
750
722
692
658
628
597
575
560
545
536
535
529
526
526
521
518
509
499
494
484
473
461
446
435
423
412
401
386
374
362
354
344
331
320
314
304
299
289
279
273
280
308
362
437
526
611
688
751
800
823
839
847
845
834
822
807
784
761
739
716
690
658
622
588
556
529
507
488
473
458
450
446
443
437
430
422
412
399
385
369
354
340
323
306
289
267
250
233
216
195
178
161
144
127
110
93
79
64
53
44
47
74
138
229
331
427
518
575
622
654
668
673
671
658
638
615
592
566
539
511
480
450
427
405
382
367
358
348
350
355
365
376
388
395
405
410
416
420
418
412
410
405
399
389
384
378
372
367
361
355
346
335
325
317
318
342
396
475
575
673
764
835
889
921
948
953
951
940
925
908
891
872
849
825
796
768
733
693
658
624
596
573
556
542
531
521
512
501
490
481
471
464
453
446
435
420
408
396
382
365
352
341
331
320
308
297
283
274
263
259
265
284
354
441
543
644
737
807
859
893
917
923
923
917
906
891
874
853
834
811
788
762
734
700
669
641
613
587
573
562
550
548
548
548
543
537
529
522
511
499
488
473
461
446
435
423
408
396
385
374
362
354
344
333
324
318
308
300
293
293
316
365
447
541
641
720
791
845
880
903
908
907
898
887
870
853
836
813
791
768
740
709
675
645
614
586
565
550
543
533
531
531
526
526
522
511
502
492
481
470
458
443
431
420
405
393
378
367
355
344
333
318
310
299
290
280
269
261
255
245
239
233
228
245
284
362
456
560
649
726
785
826
852
862
866
860
849
832
812
790
767
744
717
686
661
632
604
579
556
543
529
518
516
514
514
514
514
514
508
502
492
481
470
458
443
431
420
405
393
378
371
359
348
337
325
314
303
291
280
269
261
255
245
239
233
227
235
263
324
406
505
600
685
751
802
836
849
857
855
845
826
807
785
762
740
713
681
652
620
592
563
531
508
488
475
465
457
454
450
447
441
435
426
416
403
389
374
358
344
327
308
289
267
255
235
216
200
180
166
149
132
115
98
83
68
55
38
25
17
23
59
127
218
323
418
497
560
603
634
641
644
635
615
593
570
543
519
491
458
423
397
374
346
327
306
294
286
280
282
287
297
308
317
327
338
344
348
348
348
348
338
333
327
320
308
297
296
293
289
287
282
280
274
269
276
320
393
484
584
678
756
817
856
883
893
898
896
885
870
853
832
812
790
762
737
713
673
639
607
575
549
526
508
502
501
501
498
492
492
490
484
477
465
458
452
443
433
422
413
403
392
380
369
358
346
335
324
316
306
321
363
433
525
624
709
784
840
879
906
917
921
920
911
900
885
870
849
826
804
777
743
709
679
647
615
590
575
563
552
545
539
539
539
539
531
521
512
501
490
478
463
456
441
424
413
399
386
375
363
352
341
333
323
313
310
323
355
423
509
605
696
777
828
870
900
914
920
917
910
896
879
862
842
819
796
774
743
706
675
641
614
592
569
562
550
543
537
535
535
529
524
514
502
494
484
473
461
450
440
431
420
413
402
391
384
372
365
354
342
335
334
354
395
471
562
654
736
807
857
893
913
917
920
911
896
879
859
840
818
795
773
750
722
688
654
622
590
567
545
531
515
504
492
486
477
467
460
448
437
426
412
399
388
374
357
344
330
318
307
296
284
270
262
250
244
235
225
232
261
318
401
497
590
671
733
781
808
822
828
825
813
798
779
757
734
712
689
658
635
613
586
562
536
522
507
498
497
497
497
497
495
492
484
474
465
454
437
423
408
395
380
365
350
335
323
310
296
284
272
261
250
240
232
225
216
222
255
321
409
509
600
679
743
785
813
823
830
822
811
794
774
751
727
702
679
648
626
603
575
546
514
492
478
463
453
444
441
436
430
420
408
393
382
365
345
327
310
293
276
257
238
216
204
184
166
149
129
115
98
81
64
47
32
21
10
4
30
83
168
272
372
460
535
580
614
632
643
639
628
614
592
569
541
515
488
460
435
412
386
369
357
346
341
348
355
369
386
397
409
412
416
416
416
409
401
395
385
379
369
359
354
348
344
341
331
330
324
318
323
342
391
469
565
666
757
834
891
928
953
964
966
961
951
934
917
896
873
851
828
798
761
726
692
661
632
610
593
577
566
558
548
537
529
514
504
495
480
473
461
446
430
416
403
392
378
365
352
338
327
316
304
297
289
289
310
365
444
543
639
727
802
855
894
913
925
928
921
908
894
879
857
838
815
792
767
734
700
669
637
613
587
569
558
546
543
543
541
535
528
519
509
497
482
471
456
444
429
413
402
386
375
363
348
337
325
318
307
296
284
273
267
272
306
365
454
554
651
734
800
847
883
894
900
900
891
874
857
839
817
794
771
749
722
688
654
620
588
569
548
537
532
531
529
526
522
519
508
501
490
478
467
454
440
424
412
397
382
367
355
344
328
317
301
294
283
276
265
253
246
236
231
238
280
351
441
543
639
722
783
822
849
857
860
853
842
828
811
790
770
747
723
695
666
632
604
577
554
535
522
514
511
509
509
507
505
499
494
484
473
461
450
437
420
408
395
380
365
352
338
327
311
300
289
278
266
255
248
236
229
222
211
204
195
206
238
308
399
501
599
681
747
796
822
836
845
839
828
811
791
768
745
720
696
666
635
611
584
565
548
526
512
505
497
494
492
492
492
484
478
470
458
447
433
420
403
386
369
357
342
327
306
289
272
256
245
229
212
195
178
167
153
136
125
110
98
89
92
110
177
270
378
478
569
637
686
715
730
739
733
717
699
677
654
630
599
569
533
497
467
437
409
391
371
359
352
348
351
357
362
368
378
378
378
378
372
363
357
351
342
327
310
296
280
267
250
238
222
208
195
184
172
161
154
149
161
198
263
352
454
553
637
699
744
773
784
790
785
768
749
726
699
673
641
613
579
543
515
490
467
452
440
433
427
424
429
435
437
441
441
439
433
427
422
412
401
389
378
362
348
335
324
310
297
284
270
259
248
236
229
228
248
301
391
498
615
710
795
862
904
935
947
955
955
947
934
920
904
883
863
840
818
792
768
739
707
675
652
632
615
604
593
586
582
582
582
575
569
565
553
542
531
519
508
497
481
470
454
443
431
416
405
391
378
367
358
348
337
328
323
313
304
297
290
301
340
409
502
607
702
781
845
887
918
930
938
935
925
908
894
879
857
838
815
792
767
734
706
678
645
622
603
590
579
567
560
552
552
548
541
532
526
516
508
497
486
474
463
452
437
420
409
395
378
365
348
340
328
320
314
303
294
289
279
276
297
341
418
505
600
682
756
800
830
853
863
863
857
851
836
823
805
785
764
741
719
692
658
624
590
567
550
535
529
526
522
522
519
518
512
507
497
486
474
463
450
436
424
409
397
386
371
359
344
337
325
314
303
291
284
274
269
259
248
239
233
228
228
255
310
397
501
603
696
777
822
859
883
893
893
883
870
853
832
809
787
760
736
707
675
641
607
577
554
537
522
516
514
509
509
509
509
505
502
497
484
473
463
452
440
424
409
397
386
374
359
348
335
321
310
299
287
280
269
261
250
239
231
225
215
215
242
291
374
471
566
654
734
784
818
836
846
846
840
826
807
785
762
740
717
693
665
632
597
575
552
533
514
497
490
484
480
478
473
467
461
456
446
433
419
408
391
374
357
341
327
306
289
272
255
242
225
208
191
174
161
144
127
115
98
83
72
62
59
76
126
208
306
405
490
569
618
652
671
681
678
671
656
634
611
587
562
539
507
478
446
414
395
374
357
345
340
340
342
348
359
371
378
384
389
391
395
395
395
393
388
382
376
371
365
359
354
348
337
325
318
307
296
297
316
367
441
541
639
730
801
855
887
910
918
921
910
896
879
856
834
811
788
762
734
699
660
624
590
562
539
518
504
497
488
486
484
484
481
471
465
457
450
439
424
412
401
389
378
365
351
340
328
317
306
296
287
276
270
267
276
324
397
492
597
696
777
840
886
917
932
938
938
931
920
904
887
870
849
826
804
781
753
722
692
664
638
624
609
597
590
579
573
573
571
566
556
546
537
526
515
504
492
481
470
454
443
431
420
409
397
386
375
367
357
346
338
327
318
324
348
403
480
577
668
753
819
866
897
913
921
918
908
896
879
862
839
817
794
771
749
726
692
658
624
601
579
560
545
533
526
519
511
501
495
490
480
469
457
446
430
419
408
392
380
365
352
338
327
316
304
293
282
273
263
252
244
238
248
282
348
437
539
632
709
768
815
836
847
853
846
832
819
796
777
756
732
706
679
651
622
594
563
543
522
511
502
497
495
492
492
492
492
488
481
473
467
454
440
429
416
402
391
375
363
352
341
330
314
307
296
289
278
266
259
250
253
272
327
406
501
596
681
747
801
829
845
853
851
840
823
804
781
758
733
709
682
654
615
586
558
531
509
490
475
465
460
458
454
452
441
436
427
416
403
386
374
357
340
323
304
287
272
255
238
221
204
187
174
157
143
127
115
100
89
79
82
119
188
282
382
478
560
624
665
690
700
707
699
683
661
638
615
592
563
535
502
474
450
423
401
378
367
358
352
352
355
361
367
372
374
378
378
378
376
371
365
362
351
348
341
330
318
307
299
289
279
273
263
253
248
246
261
300
365
461
558
649
724
787
823
847
859
862
853
839
819
796
774
747
719
690
658
618
582
548
519
494
475
464
453
450
446
446
446
444
441
437
431
423
412
402
393
382
371
359
344
333
321
306
294
283
276
265
253
242
236
245
276
346
437
543
651
741
815
869
903
925
931
934
925
913
896
883
860
840
819
795
770
743
710
679
649
618
599
582
566
558
556
556
553
548
546
537
531
519
508
497
484
473
463
450
436
424
409
397
386
375
363
352
345
334
327
316
304
301
311
342
403
492
592
683
761
826
870
903
914
917
914
903
887
870
851
832
809
787
764
736
707
675
641
613
590
570
559
548
539
536
535
535
532
522
516
508
497
486
471
463
452
437
424
412
397
386
375
363
352
338
330
318
311
300
289
282
270
263
253
256
284
342
430
531
628
716
785
829
860
879
887
885
874
857
840
819
796
774
751
727
696
662
628
594
565
542
525
514
512
509
509
509
509
509
504
498
488
477
465
454
443
429
416
401
386
374
361
346
335
325
317
306
296
287
276
270
265
263
296
355
437
529
626
700
762
805
832
847
851
845
832
815
794
771
749
726
703
678
645
617
586
548
515
490
475
460
452
450
443
437
433
431
423
412
396
385
369
352
335
318
301
284
267
246
229
212
195
178
161
144
130
119
102
85
72
59
62
93
160
250
357
452
533
599
641
672
683
686
678
662
644
621
594
570
542
509
474
448
424
397
372
348
337
328
323
323
328
335
341
346
348
354
357
357
355
350
344
338
333
331
325
320
314
307
296
289
278
266
259
249
246
255
303
376
467
566
656
730
790
823
849
857
855
845
832
812
790
767
739
713
683
649
607
573
542
514
492
473
463
453
447
446
446
446
441
440
435
429
418
403
395
384
369
352
341
330
314
301
287
276
265
253
242
231
222
221
242
293
374
481
592
688
773
835
883
910
924
930
924
915
904
887
868
845
826
804
781
753
722
692
660
631
607
586
571
565
559
556
556
554
552
543
533
528
518
507
495
480
473
461
446
435
420
408
396
388
378
365
354
344
334
328
323
316
330
369
437
525
624
707
781
836
877
903
908
913
910
900
883
869
853
830
808
785
761
733
700
666
632
599
577
560
543
533
525
522
522
519
514
507
495
484
473
458
446
430
419
403
388
374
357
345
334
318
307
296
284
273
265
255
244
235
229
250
296
374
467
566
658
729
783
828
840
849
853
846
832
815
796
774
751
729
703
671
648
622
594
569
552
535
525
519
514
512
509
509
508
499
492
487
481
471
458
444
433
420
406
391
375
363
352
341
330
314
307
296
284
273
262
259
259
287
340
426
519
611
693
758
807
839
851
853
851
836
819
802
783
760
737
715
692
662
628
594
565
536
518
502
491
484
475
475
475
470
464
454
443
431
416
405
391
378
361
344
327
314
300
284
272
257
246
231
219
208
201
189
178
172
164
157
170
210
284
379
487
590
673
739
790
819
830
836
829
818
802
779
757
734
710
685
658
624
590
565
546
526
514
507
501
501
499
497
492
487
481
471
464
453
437
424
408
391
369
352
340
321
301
284
266
249
233
221
204
191
176
161
149
133
125
127
166
231
318
419
515
590
652
692
717
729
732
726
713
693
671
648
622
594
567
539
501
477
452
429
413
399
391
386
386
391
402
410
416
422
424
424
424
422
420
413
402
391
384
372
361
350
338
327
316
304
293
282
276
280
314
376
463
563
656
739
800
845
879
890
896
891
879
862
845
822
800
777
753
724
692
656
617
582
550
525
501
491
486
480
478
475
475
473
461
454
447
439
429
416
402
391
378
363
352
337
325
314
303
291
280
269
261
255
269
311
391
487
594
696
779
842
887
914
931
938
932
927
917
900
883
862
849
829
807
783
754
726
698
669
645
627
613
603
593
587
582
576
570
565
558
546
535
524
512
497
486
471
458
443
429
416
405
393
382
372
363
352
342
334
323
318
330
365
440
528
624
710
787
840
881
904
917
920
911
900
887
868
849
828
808
785
762
737
705
675
641
611
588
566
552
541
532
526
515
507
501
495
487
475
464
453
441
426
412
395
384
372
357
341
327
314
303
291
280
269
257
246
236
228
221
227
255
314
402
501
603
681
745
790
819
836
840
835
826
811
792
773
751
729
706
679
648
626
603
580
554
531
519
511
505
504
501
501
501
498
492
481
473
463
450
436
424
409
395
382
365
351
335
324
313
297
286
274
263
252
244
233
222
214
204
210
238
293
378
480
577
665
736
794
822
842
849
846
832
819
796
774
751
723
695
666
634
609
586
562
536
514
497
482
471
470
467
463
461
453
446
435
423
408
395
380
365
348
331
318
303
289
272
253
233
216
204
184
166
153
136
119
103
89
76
79
108
166
257
359
458
548
613
662
689
703
713
706
695
679
656
631
607
583
552
518
490
461
433
412
392
378
365
362
361
365
368
378
385
391
395
395
395
391
386
384
382
375
369
365
354
345
335
325
317
310
303
291
280
279
284
314
378
465
560
654
733
798
842
868
883
885
881
866
849
832
811
788
762
734
700
664
624
586
549
518
492
478
467
460
454
450
448
446
441
431
426
416
409
397
382
371
359
348
333
318
306
294
280
267
255
240
229
219
211
204
204
229
289
379
487
599
693
773
828
869
894
904
908
906
896
879
864
845
823
804
781
758
736
709
679
648
620
603
588
582
576
570
569
565
562
560
549
541
531
519
508
497
482
474
458
443
431
416
409
397
382
371
359
352
341
333
323
311
303
293
287
282
284
310
369
454
552
648
739
804
855
887
906
911
913
906
891
879
862
845
823
801
778
756
732
700
666
638
613
590
577
563
556
554
552
552
550
545
539
528
519
509
497
482
471
456
444
433
418
406
391
379
368
357
345
334
323
311
303
293
282
276
272
289
331
408
499
593
675
747
804
845
857
866
870
868
853
836
819
800
777
754
732
705
675
641
607
571
552
535
519
511
505
504
501
501
499
491
484
477
465
454
441
427
416
403
389
378
362
351
340
328
317
301
294
283
272
265
253
246
235
227
225
235
274
344
440
539
632
710
767
807
834
847
849
843
832
815
792
770
747
724
699
671
643
614
586
558
532
514
499
491
488
484
484
484
482
477
471
464
453
446
435
420
408
396
385
374
361
346
335
320
308
297
290
279
267
261
249
242
231
219
212
211
233
280
362
458
560
648
722
777
815
832
840
843
835
819
801
778
756
732
703
675
644
618
594
565
533
505
484
467
458
448
443
441
437
435
424
418
406
395
379
365
352
335
318
301
283
266
250
233
216
200
184
170
153
136
119
102
91
76
59
48
34
30
41
81
153
252
357
454
532
597
641
669
681
683
672
658
637
614
592
569
541
509
480
448
423
399
380
363
348
338
335
331
341
346
357
362
368
378
379
382
382
382
379
378
374
371
365
359
357
352
346
344
335
321
313
306
301
310
340
416
509
607
705
787
849
896
924
938
942
940
930
917
897
879
856
834
811
787
753
713
678
641
611
579
553
535
519
511
501
488
480
475
470
461
450
440
431
420
405
391
374
362
351
335
324
310
297
286
272
259
248
239
229
233
259
318
408
512
620
713
790
853
886
908
921
923
920
908
897
883
862
843
821
798
775
750
717
685
654
624
601
582
560
559
556
552
552
546
539
533
528
518
505
491
480
467
453
441
426
414
403
392
380
365
354
342
335
324
313
306
296
290
284
282
301
348
430
526
624
719
790
840
877
900
913
913
907
896
883
866
849
830
808
785
761
733
700
668
639
611
586
569
556
548
545
543
542
539
535
528
516
509
498
484
471
458
444
429
416
402
391
375
363
352
341
330
318
307
296
289
278
266
259
250
250
259
308
385
475
570
661
734
791
828
853
862
864
857
846
832
815
794
774
751
727
699
675
639
609
582
560
541
531
522
519
518
518
518
518
512
507
497
486
474
463
450
433
420
403
389
378
365
351
340
325
317
306
294
283
272
261
249
242
232
229
250
301
378
475
573
661
734
783
819
840
853
851
845
832
815
794
775
753
726
700
666
641
613
584
560
533
516
505
499
497
492
492
492
492
491
486
475
464
453
441
430
416
403
392
378
365
352
341
331
320
308
297
287
279
272
265
253
242
236
239
267
327
414
514
613
698
768
813
847
866
872
872
857
842
825
802
779
757
730
702
671
637
607
573
548
525
505
492
481
475
471
470
467
463
453
447
437
422
410
395
382
365
348
327
310
297
279
259
242
225
211
195
178
161
149
133
119
115
132
183
259
361
457
543
613
669
700
720
729
730
717
700
679
656
634
611
583
554
522
492
461
433
416
399
386
380
378
382
388
393
403
410
416
420
422
424
424
420
420
412
401
389
378
367
355
348
337
325
314
304
299
301
338
401
488
590
686
768
839
881
908
918
924
917
906
889
870
847
825
802
774
743
705
665
628
590
558
532
509
490
475
463
458
458
454
448
446
441
430
419
408
396
382
369
357
342
331
320
308
297
286
274
263
257
252
259
308
385
480
584
683
764
828
873
900
915
921
917
910
896
879
863
849
828
805
783
756
732
700
671
638
613
594
579
567
556
550
548
543
537
532
522
511
499
488
477
465
450
439
427
412
401
386
374
362
351
340
328
320
310
300
291
284
290
316
374
456
552
654
733
801
849
879
896
900
901
890
879
862
847
828
805
783
760
736
705
671
637
605
577
556
539
526
525
519
518
518
515
509
498
490
480
469
457
446
430
416
403
388
376
361
350
338
323
311
300
293
282
273
263
252
244
233
233
242
280
350
443
543
637
713
777
811
836
849
849
843
832
818
798
777
754
732
705
677
651
628
596
567
543
526
512
501
499
497
492
492
492
488
482
477
467
456
444
433
422
408
395
379
368
357
341
330
318
307
296
289
278
266
259
249
244
233
231
250
293
374
467
565
655
726
781
817
834
845
839
830
815
792
770
747
720
695
666
632
604
577
545
514
484
460
446
433
422
413
408
402
396
391
384
372
361
350
335
318
301
287
272
255
235
216
201
187
170
153
136
119
106
92
76
61
47
42
53
86
149
246
345
441
516
576
620
648
660
662
651
637
620
597
575
548
524
492
458
427
405
382
365
354
344
344
346
357
367
375
386
391
393
395
393
391
386
380
372
365
358
350
344
337
328
323
321
318
314
304
296
293
318
369
450
552
654
747
826
886
921
942
957
959
952
941
925
907
885
866
843
821
798
770
739
700
671
639
611
588
569
556
545
536
526
514
499
488
481
470
458
447
433
420
405
391
374
362
351
335
324
310
297
286
274
263
252
244
233
239
267
327
416
521
620
703
771
828
856
876
883
885
881
870
857
840
823
805
783
760
736
705
671
635
615
594
579
570
560
560
560
560
560
558
552
545
533
522
511
499
484
471
454
441
426
414
403
388
376
361
350
338
323
311
297
284
273
259
246
233
219
208
197
185
174
164
155
149
143
137
144
193
266
369
487
597
683
753
801
836
852
857
853
842
825
807
785
766
743
720
698
666
637
609
590
569
552
543
539
536
535
536
539
539
539
539
531
521
512
501
484
470
458
447
436
424
413
399
391
379
368
357
344
333
323
311
300
289
279
270
263
256
248
238
232
227
221
232
263
327
413
518
620
709
777
828
860
880
887
890
881
870
853
834
811
792
770
747
713
679
649
622
600
577
560
549
539
537
535
535
539
536
535
529
524
514
507
495
480
469
457
446
435
423
412
399
388
378
368
359
352
342
334
327
320
311
301
294
289
289
307
352
429
522
621
713
781
838
879
898
907
913
906
894
879
860
838
815
792
770
743
713
677
641
607
576
548
525
508
492
491
488
488
488
486
484
477
465
454
443
431
416
403
386
374
362
348
331
314
300
289
272
257
246
231
219
208
191
177
161
154
149
153
189
261
357
458
552
632
693
736
760
770
773
768
751
732
709
686
664
637
609
577
543
511
482
458
436
416
403
396
391
391
392
395
399
408
410
408
401
389
378
367
355
340
328
314
301
290
282
272
265
256
246
245
239
233
229
227
242
286
357
446
541
631
709
766
805
828
840
840
836
819
800
777
754
732
705
672
644
615
586
552
518
495
473
454
440
431
424
420
420
420
418
412
408
402
393
382
371
359
348
337
325
314
303
291
280
269
255
246
235
227
221
225
259
323
422
532
641
737
813
870
907
930
947
947
944
934
921
904
887
869
846
823
800
774
747
715
686
658
627
607
590
579
570
569
567
565
560
558
546
539
532
521
509
497
482
471
460
448
437
423
414
403
392
380
369
362
351
344
333
321
314
311
325
361
437
528
628
717
794
853
897
920
934
938
932
921
910
896
879
857
838
815
792
770
747
712
678
645
621
596
577
563
554
543
537
529
518
512
504
497
486
471
463
452
437
420
408
393
382
369
355
344
328
317
306
300
291
276
269
257
250
245
242
263
316
395
492
590
678
751
804
838
857
870
870
862
851
836
815
796
774
751
729
700
666
634
605
577
550
533
518
508
505
501
497
497
497
492
487
475
470
461
450
439
424
412
401
386
374
361
350
340
328
317
306
296
287
276
269
261
250
244
232
225
238
274
344
437
539
632
705
761
798
818
826
832
825
813
794
775
753
730
706
681
654
626
597
573
545
516
492
471
460
450
444
441
437
433
430
424
419
410
395
384
369
352
335
318
306
289
272
259
246
232
221
204
189
178
163
149
132
113
96
81
82
102
157
246
351
454
546
617
671
703
720
730
727
716
700
678
655
632
604
573
539
509
475
446
422
393
369
352
338
331
325
323
327
333
338
344
348
348
348
344
341
331
324
313
297
284
267
255
244
229
212
200
188
178
168
163
157
168
202
272
367
474
582
669
740
794
823
840
845
842
825
802
779
754
726
693
665
632
594
560
535
512
492
475
469
463
458
453
447
441
437
435
433
422
413
403
393
385
374
359
351
340
328
317
301
294
283
272
261
249
242
236
256
297
380
482
590
690
778
840
890
918
934
942
945
938
927
915
900
879
862
840
818
792
764
730
699
666
638
613
594
576
567
565
560
558
552
546
541
535
524
512
501
490
478
467
454
443
433
420
406
395
385
376
365
358
350
348
375
429
505
597
693
773
840
886
921
938
947
951
944
932
917
901
887
866
843
821
798
770
739
705
672
641
615
599
582
569
558
549
543
532
521
509
495
487
475
460
448
433
422
410
395
384
369
357
345
334
323
310
299
289
279
270
267
287
341
424
518
617
709
775
829
862
880
889
891
885
870
853
835
815
794
771
749
717
679
645
611
579
550
526
515
507
501
499
497
497
491
486
480
469
460
450
437
423
412
396
385
369
354
342
327
320
308
297
286
274
263
252
244
238
240
269
318
406
505
603
688
753
802
834
847
853
847
839
823
807
787
764
741
719
692
662
631
603
575
549
526
507
495
488
484
484
480
478
475
471
464
453
446
435
420
408
395
380
369
357
342
331
316
304
293
282
270
259
252
240
233
228
228
255
307
386
484
579
661
730
778
809
828
835
829
819
805
785
764
741
719
692
668
637
603
570
542
518
488
463
446
430
419
412
403
401
391
385
376
361
350
338
323
306
286
272
255
238
216
200
183
166
149
132
115
99
85
68
53
41
25
34
65
123
215
317
412
497
559
607
634
648
654
647
635
620
597
575
552
524
492
458
430
405
378
355
335
323
313
307
306
313
321
331
341
346
352
361
361
361
361
358
348
342
337
331
325
317
310
306
303
297
290
284
280
307
355
433
535
634
722
794
851
891
904
913
917
910
896
883
860
840
819
795
770
743
707
671
637
600
571
548
526
512
497
495
492
488
487
478
471
461
453
441
429
414
403
391
376
365
350
338
327
311
300
289
278
266
259
265
293
357
441
541
641
726
796
849
880
900
908
907
901
891
876
862
840
823
804
781
751
715
683
649
618
594
573
562
552
550
548
543
537
532
526
521
512
497
490
478
463
452
437
424
413
399
386
374
362
352
341
330
318
308
300
289
284
293
323
393
481
577
666
751
811
857
886
900
904
901
896
883
866
849
828
808
785
762
737
700
671
637
607
583
558
543
533
528
526
526
524
518
512
507
497
486
474
463
447
436
420
409
397
382
371
357
344
333
324
314
303
294
284
274
269
263
280
320
391
484
583
675
747
804
845
866
880
883
876
864
849
830
811
790
767
744
722
688
651
615
583
554
531
524
512
505
505
502
501
499
494
488
477
469
458
446
431
420
405
393
382
367
355
340
328
317
306
294
283
276
265
256
246
235
229
225
252
303
382
478
571
658
729
779
819
832
840
840
832
815
802
779
757
734
712
686
658
635
610
582
550
531
514
502
494
488
487
484
484
482
474
467
456
444
429
416
402
386
369
352
335
320
306
289
272
255
238
225
208
191
176
161
149
132
115
102
96
108
144
222
318
420
516
593
649
688
713
726
724
716
700
679
660
637
610
584
556
521
487
458
435
409
391
376
368
365
361
363
369
375
380
386
386
386
386
380
375
369
362
354
344
333
321
310
300
291
284
279
273
263
257
255
267
304
369
454
549
637
713
770
812
840
851
853
845
834
817
794
775
753
722
693
662
624
586
552
526
499
480
463
452
443
437
436
433
429
427
422
416
409
397
386
379
368
352
341
327
318
306
291
280
267
256
246
233
219
212
211
228
280
365
473
586
682
767
832
874
908
921
930
927
921
908
894
879
857
838
815
792
767
739
710
682
649
627
607
594
588
583
582
582
579
577
570
562
556
545
533
522
512
504
492
481
470
454
447
436
429
418
406
399
388
379
374
367
367
386
437
514
603
695
774
840
889
923
947
948
951
947
935
921
908
890
870
849
826
804
777
747
713
683
652
630
611
596
584
573
567
559
548
536
522
509
491
474
463
446
435
424
408
393
382
367
355
344
337
325
310
303
291
284
274
266
263
269
306
369
463
562
654
730
792
836
864
876
879
876
864
849
832
812
790
766
740
717
686
647
611
577
549
531
519
508
501
497
497
497
497
494
484
477
465
454
443
429
416
405
391
374
361
346
335
318
304
293
282
270
259
252
240
229
223
215
204
205
216
263
337
433
535
630
706
764
801
826
836
835
829
815
796
774
751
729
706
679
651
622
599
571
549
522
495
478
463
453
447
441
436
430
424
413
402
391
378
361
344
327
307
293
276
259
238
221
204
187
170
150
132
116
102
85
68
51
34
23
11
0
4
27
89
180
287
391
474
539
590
621
638
645
638
627
607
588
566
539
515
487
458
426
397
374
351
331
318
311
306
310
320
328
340
354
359
361
365
365
361
359
351
344
338
330
323
317
311
306
299
293
289
283
280
276
286
314
369
453
552
658
747
823
879
920
945
951
955
949
938
921
907
887
864
842
819
791
760
722
688
654
620
597
575
556
545
533
526
515
507
501
494
486
475
464
453
441
426
414
403
388
376
361
350
338
327
316
304
293
283
278
280
317
379
463
565
661
743
811
859
887
903
911
913
906
894
879
862
842
823
801
778
756
722
690
658
626
600
577
558
546
543
539
536
531
529
521
514
507
492
484
473
458
446
433
419
408
395
380
369
354
342
331
320
308
297
290
279
272
261
249
242
233
233
250
306
388
488
593
686
764
823
857
883
893
898
891
880
866
849
826
804
781
757
729
696
661
627
599
577
560
548
535
532
531
526
526
526
525
519
514
502
491
484
473
458
446
433
419
408
395
380
369
355
346
335
328
317
306
294
283
276
270
267
284
331
408
501
599
686
760
808
845
866
879
879
874
862
845
823
805
783
760
736
707
679
645
609
573
543
518
501
491
488
484
484
481
480
478
473
463
456
444
429
418
403
391
379
365
352
340
325
314
303
291
280
270
262
250
245
236
225
219
219
238
290
369
467
567
658
734
790
826
849
859
862
853
836
817
794
771
749
726
698
666
637
611
577
548
521
501
484
473
464
458
457
454
450
444
439
429
418
406
391
378
361
344
327
307
293
276
259
238
221
206
191
174
160
144
129
117
102
86
78
68
83
129
204
303
413
505
582
641
683
706
717
722
710
696
679
656
631
607
577
546
514
490
461
433
410
388
374
359
354
352
350
352
357
358
363
369
369
369
369
365
362
357
355
346
340
330
321
314
303
294
284
273
265
259
262
279
331
406
505
603
690
761
819
852
872
883
881
873
862
843
821
798
774
745
717
683
647
607
565
531
505
487
470
454
448
446
441
440
435
429
423
418
412
401
389
378
365
351
340
328
317
306
290
279
267
256
245
238
228
228
250
300
385
488
597
699
781
840
886
913
930
932
934
927
913
896
883
863
840
818
795
768
734
703
671
641
613
590
575
566
560
556
553
552
546
537
526
519
508
497
486
474
463
452
437
424
412
397
386
375
363
352
342
334
323
317
308
297
291
294
318
374
461
556
655
740
811
856
890
913
918
921
913
901
887
866
847
828
807
783
757
734
700
664
632
601
579
556
543
529
518
516
514
514
504
498
488
477
465
450
439
427
412
399
382
369
358
344
331
318
304
293
283
274
263
253
245
233
228
222
216
240
289
369
471
573
662
737
794
832
855
866
866
859
845
828
809
787
764
741
719
713
664
635
607
583
558
539
524
515
509
505
505
501
501
501
497
487
478
467
460
448
433
422
410
395
384
369
361
350
338
331
320
311
301
291
283
276
267
273
306
372
460
560
649
726
790
832
860
870
879
876
866
849
832
811
788
766
743
715
686
654
618
582
543
516
499
488
478
473
471
467
467
467
460
452
446
435
423
412
396
385
374
358
346
331
320
308
297
286
272
263
252
244
233
221
210
204
205
219
272
355
454
556
648
719
777
805
825
836
834
819
802
784
761
739
709
678
649
615
584
556
524
495
467
440
420
399
388
376
369
368
359
352
341
333
323
310
296
280
263
246
229
214
200
183
166
149
132
119
102
85
70
55
42
27
15
4
0
0
0
19
72
161
267
369
463
533
584
624
641
649
649
641
624
603
584
562
539
511
482
450
427
405
386
371
359
348
344
344
344
345
348
352
354
357
357
357
357
357
350
341
335
330
327
318
310
307
301
296
290
280
274
272
276
300
351
433
537
651
756
840
908
959
986
1003
1010
1013
1004
993
975
955
934
911
889
866
842
811
781
747
713
683
656
637
620
609
597
586
576
567
556
541
526
509
497
477
458
447
433
420
409
397
386
374
359
348
337
325
314
304
296
289
284
296
327
402
490
586
679
761
819
864
890
908
913
910
904
891
874
857
840
821
798
775
750
722
688
654
624
596
570
556
541
532
531
525
522
518
512
504
497
486
474
463
452
440
424
413
402
386
375
361
352
341
327
314
303
291
280
269
257
246
236
231
225
222
242
280
362
461
565
662
747
807
847
873
887
890
885
874
862
842
823
801
775
751
726
692
654
626
600
573
552
535
526
518
515
514
509
509
505
504
498
488
478
470
458
447
436
420
409
397
382
371
357
348
337
325
314
303
294
284
274
266
255
246
244
250
290
361
454
554
648
730
792
838
862
876
881
879
862
847
828
805
783
760
733
707
675
635
601
569
546
524
505
495
487
484
480
482
484
478
475
471
465
457
446
435
423
412
401
389
374
362
351
340
328
314
301
290
282
272
265
256
246
236
228
216
208
205
212
245
310
399
501
597
683
753
804
832
847
856
853
840
826
807
784
761
739
710
679
654
627
601
569
541
515
492
477
463
454
450
447
446
440
435
429
418
406
395
379
368
352
337
323
306
293
276
259
244
229
216
200
183
166
153
138
123
106
92
81
65
51
38
23
14
4
13
44
106
201
311
416
508
579
632
665
682
692
689
678
662
639
617
594
567
542
509
475
447
420
397
375
361
345
337
335
333
338
344
350
358
365
374
374
374
378
378
374
374
374
369
368
362
361
357
354
352
346
341
331
321
316
310
323
362
429
522
624
726
800
864
908
938
955
959
957
945
934
915
896
874
851
825
798
781
727
688
649
615
582
559
536
518
507
492
484
473
461
450
443
435
429
419
410
399
385
376
365
350
338
323
311
300
289
276
259
250
239
228
216
210
204
208
238
303
399
507
614
709
781
838
883
904
913
917
915
907
896
877
857
836
813
791
768
744
716
683
651
622
599
579
570
560
559
556
552
552
549
543
537
532
522
511
499
488
477
465
454
439
427
416
409
397
382
375
363
352
341
330
323
311
303
297
290
282
272
266
261
259
283
337
420
524
626
722
790
846
883
904
921
925
923
911
900
881
862
845
822
800
773
756
705
671
643
614
582
560
549
543
542
539
539
535
532
531
524
515
505
494
482
471
456
444
433
422
410
395
384
372
361
351
342
335
324
316
306
299
290
280
274
274
301
351
433
526
621
703
777
821
852
874
885
885
879
868
853
836
813
791
768
745
720
692
658
624
590
558
532
509
502
494
488
487
484
484
478
473
467
456
447
437
424
410
399
388
374
361
350
338
323
311
300
289
278
266
259
248
239
229
218
210
204
204
215
259
334
433
539
638
720
790
823
852
866
868
868
857
843
821
798
775
753
726
698
672
645
613
584
556
529
509
492
487
481
475
474
471
467
463
460
454
443
431
420
409
397
386
371
359
348
333
321
306
293
279
267
256
242
233
222
211
204
193
184
174
164
159
153
157
180
238
327
435
548
637
713
768
809
835
845
847
839
828
809
787
764
740
715
688
654
620
594
567
545
522
509
495
480
469
457
454
448
443
437
430
422
412
399
385
374
358
344
331
314
297
280
269
255
238
221
204
191
178
161
144
132
117
102
91
79
64
49
41
30
19
10
13
45
108
195
301
406
492
562
613
649
671
679
679
668
654
637
614
592
569
542
514
505
457
435
416
396
382
378
374
374
378
389
397
408
413
416
420
420
418
416
412
409
399
393
391
386
380
372
365
361
358
357
344
333
323
318
324
357
413
504
611
713
804
883
932
969
989
999
1002
998
991
976
964
945
923
900
877
852
819
781
747
713
683
652
624
607
593
582
570
559
552
541
526
514
497
486
475
464
453
441
426
414
403
392
380
365
358
346
335
324
313
306
296
290
293
330
392
475
577
677
764
836
885
917
937
945
951
944
932
917
900
880
862
839
817
794
762
729
696
664
635
607
586
569
556
546
537
526
525
519
514
507
495
488
477
465
454
441
427
416
403
389
378
363
355
344
333
321
310
303
294
289
293
316
378
461
558
658
741
807
857
889
908
917
915
907
896
879
862
840
818
795
773
749
717
683
645
614
582
554
535
518
508
505
501
501
498
492
487
478
467
456
444
433
422
408
395
382
365
352
340
328
318
307
296
284
274
266
255
250
259
284
355
446
543
641
726
785
832
863
879
883
877
866
853
834
815
792
767
743
719
688
654
620
586
552
531
514
505
495
490
488
484
484
480
474
469
458
448
440
429
412
397
386
374
359
348
337
323
310
299
290
280
273
265
255
245
236
229
236
273
340
429
531
632
710
775
819
849
866
870
863
852
836
818
795
773
750
724
692
677
628
594
566
537
509
497
482
471
465
463
463
458
456
450
443
435
424
412
397
382
367
355
340
323
306
289
276
259
242
229
212
200
184
170
157
144
130
119
108
102
110
153
227
327
433
529
615
666
709
734
744
744
739
724
702
679
655
630
603
575
543
514
482
457
433
410
391
374
368
365
361
362
365
369
374
376
378
378
375
369
358
346
335
320
308
297
282
270
255
244
232
225
215
206
200
195
195
212
262
338
429
529
620
692
753
790
815
823
823
815
802
783
760
737
712
683
649
618
594
565
536
518
497
477
458
444
439
437
433
430
424
423
420
416
409
397
391
379
368
357
344
333
323
310
296
284
273
262
250
244
235
225
235
272
340
436
549
649
741
812
870
904
924
934
934
928
917
901
887
866
847
825
802
778
764
717
683
649
624
597
577
556
549
543
543
542
536
531
525
516
505
498
487
471
464
453
437
426
412
399
388
374
361
350
338
327
317
308
297
287
282
280
294
337
408
505
604
696
771
830
870
896
910
913
910
898
887
870
851
832
809
787
764
741
713
679
649
618
590
569
549
539
531
528
526
525
519
514
508
499
488
477
465
454
443
431
416
405
393
378
367
355
344
333
324
314
303
294
284
287
304
352
427
524
620
707
778
836
864
887
900
898
890
879
864
845
823
801
778
756
732
700
666
630
599
565
537
518
497
495
492
488
487
481
480
473
464
454
443
431
420
408
393
382
367
355
340
324
313
301
290
279
267
256
245
238
227
218
208
201
193
183
197
231
297
391
495
594
678
745
802
829
843
849
846
832
819
796
774
751
723
695
666
638
613
586
559
536
514
497
482
471
465
463
458
458
456
450
444
439
429
416
405
395
382
368
352
337
325
314
303
291
276
265
253
246
235
223
216
206
201
191
180
171
166
166
177
216
289
391
501
600
685
756
794
822
836
838
835
823
805
783
760
736
710
683
651
622
594
571
552
531
515
501
484
478
473
467
467
464
463
457
452
446
435
423
412
399
382
369
354
340
323
306
289
272
259
245
229
212
195
183
170
153
140
127
113
102
91
85
102
146
225
323
429
522
607
658
698
722
732
732
726
712
689
666
644
621
594
560
526
497
470
444
420
402
385
369
363
361
357
358
367
374
378
380
382
382
382
382
380
378
369
359
351
340
333
321
310
304
299
293
287
279
272
267
273
293
346
423
518
617
702
773
828
859
879
887
887
879
866
849
828
805
779
751
723
692
658
618
582
543
511
486
463
448
440
437
433
430
424
423
418
412
405
393
386
375
363
352
341
330
318
306
291
280
270
262
250
239
228
216
219
239
289
374
481
594
693
775
845
889
917
934
935
935
925
910
896
879
856
834
811
787
758
730
696
660
628
597
571
548
541
532
526
525
522
518
512
507
497
490
478
467
460
448
433
422
408
395
384
369
357
345
337
327
316
304
293
282
270
259
252
240
229
222
211
204
197
185
178
168
163
153
146
140
144
184
252
352
470
583
679
756
812
857
874
886
891
885
870
857
835
812
790
767
744
717
703
664
645
626
611
590
573
562
552
550
548
548
548
545
543
537
532
522
511
502
492
481
470
458
447
436
424
413
402
391
384
372
365
354
342
335
324
316
310
299
290
284
274
269
263
262
282
331
409
502
607
696
773
828
869
894
904
908
903
891
874
857
840
818
795
773
744
716
683
645
611
577
550
528
514
504
495
492
488
488
488
487
481
475
470
464
454
444
436
424
413
402
391
379
368
357
345
334
323
311
303
293
280
269
259
249
244
233
223
215
208
204
206
225
284
367
467
571
665
734
788
825
849
856
862
857
845
825
807
784
761
739
712
683
645
621
596
573
545
519
501
486
474
463
457
454
450
448
443
437
427
419
408
396
385
369
357
342
327
310
293
280
267
250
233
221
206
191
174
160
144
129
115
102
86
75
59
48
37
25
21
30
68
137
236
348
450
535
603
647
678
692
700
698
688
673
651
628
605
583
556
526
509
467
440
418
395
378
363
352
346
344
344
345
351
357
362
368
374
375
378
378
378
380
382
378
375
374
368
365
361
351
342
331
317
308
297
290
282
272
280
308
365
454
562
662
754
828
883
921
944
955
955
949
938
921
901
879
856
834
807
778
747
709
671
634
603
571
546
522
505
491
480
478
475
471
467
464
454
448
440
429
422
410
399
388
374
365
354
342
331
318
307
297
287
279
267
257
249
238
233
242
263
328
416
526
635
732
807
869
908
934
945
951
947
935
924
908
891
872
849
826
801
773
744
713
679
647
615
590
571
552
539
533
531
531
529
526
518
508
502
492
486
474
463
456
444
433
422
408
399
388
376
365
354
345
335
325
317
306
296
290
280
274
269
267
291
340
416
519
627
717
792
849
891
913
921
925
923
911
896
879
859
836
813
791
764
740
709
675
637
603
573
546
526
509
502
497
492
492
492
488
482
477
471
464
453
441
435
423
412
401
386
378
367
355
344
331
320
310
300
291
280
270
262
255
248
236
225
219
214
208
215
249
318
410
521
628
717
785
836
868
887
896
894
886
874
856
834
811
788
766
739
713
677
645
617
588
565
542
525
509
504
498
492
492
492
492
487
481
475
469
457
450
439
427
416
405
393
382
369
358
348
337
325
314
304
296
284
278
266
255
249
240
233
228
219
216
233
279
352
457
562
658
736
801
845
873
885
887
886
874
857
836
817
794
770
741
717
686
649
615
586
558
535
514
494
480
470
464
463
458
456
450
448
440
433
422
410
399
388
376
361
348
334
323
306
291
276
261
249
233
218
204
187
176
164
149
137
123
110
99
91
89
110
161
238
345
453
548
624
675
713
734
745
743
736
722
700
678
655
632
604
576
543
509
481
454
430
405
386
371
359
357
352
352
357
358
363
369
371
374
374
374
374
374
362
354
344
334
328
318
308
300
289
283
274
263
256
245
238
229
235
263
320
413
518
620
710
785
834
868
887
900
897
887
873
853
832
808
783
756
726
709
654
614
577
543
515
490
471
456
444
437
429
426
424
420
418
408
402
396
391
379
368
357
345
334
323
310
296
284
273
262
250
239
228
216
210
198
187
185
188
216
282
380
497
609
710
798
859
901
930
941
947
947
935
924
904
881
859
836
813
791
764
734
700
666
634
605
582
565
553
543
542
539
535
529
524
518
512
504
492
486
474
463
452
440
429
418
406
395
384
372
361
351
342
331
321
313
301
296
290
289
320
374
450
552
656
743
812
863
900
921
930
934
927
915
900
883
866
845
822
800
773
744
713
675
641
607
582
554
535
518
507
501
497
495
492
488
478
473
463
456
444
433
422
410
395
384
372
361
350
335
323
311
303
293
282
270
259
249
244
233
227
218
221
248
301
386
494
601
692
767
823
866
887
896
900
893
881
866
843
821
798
775
753
747
688
654
620
592
563
543
526
512
501
495
492
488
487
484
480
474
469
458
452
440
424
418
406
391
379
365
357
345
331
318
307
299
289
279
270
259
249
240
233
228
222
229
266
328
416
522
624
709
778
826
857
879
887
887
874
857
840
818
795
773
750
724
717
656
622
594
566
537
518
501
487
475
470
467
463
463
463
458
448
443
437
426
414
403
396
385
374
362
348
335
324
316
306
293
282
272
262
256
246
236
228
221
215
215
229
283
359
458
563
660
730
788
828
853
860
863
857
845
825
802
779
757
734
713
685
654
626
594
565
541
515
497
481
473
467
461
458
454
453
450
446
436
427
420
409
397
386
375
363
348
337
323
310
297
280
267
256
245
233
221
206
195
184
172
161
155
153
161
215
291
391
495
588
662
716
753
777
783
783
777
760
740
717
690
665
637
609
575
535
507
478
450
427
405
391
375
367
365
362
365
369
371
374
369
359
354
344
337
325
310
299
287
272
261
246
233
222
208
195
184
172
161
155
147
140
132
129
136
172
238
327
439
543
632
702
758
794
812
818
819
807
790
768
745
723
696
664
635
603
571
546
518
497
477
458
448
440
437
433
436
437
431
429
424
423
418
412
402
393
386
375
363
352
345
334
327
316
301
293
282
270
259
252
244
233
228
225
246
296
384
497
614
722
819
885
935
972
991
999
1002
995
983
968
951
934
913
890
868
840
812
784
751
722
690
658
637
617
599
587
576
569
558
546
535
528
519
509
499
491
480
470
461
450
439
427
412
405
393
386
375
363
357
345
337
331
320
311
306
300
303
331
385
470
569
668
750
823
873
907
925
935
938
934
921
904
887
869
846
823
801
778
751
717
683
649
617
588
560
539
525
509
499
491
488
482
477
471
464
456
446
435
423
412
397
389
378
367
355
340
333
321
310
300
291
284
273
265
255
248
239
229
223
221
233
266
334
429
532
634
726
783
830
862
880
886
883
876
862
840
822
800
777
754
729
696
660
631
603
576
553
531
518
504
497
491
486
484
484
481
475
469
460
454
444
436
424
410
402
391
379
368
357
350
338
327
316
304
297
287
282
272
261
252
246
236
231
225
219
236
280
358
454
560
651
730
794
835
863
874
877
872
862
843
823
802
779
757
730
702
671
637
609
580
548
526
507
488
478
470
467
463
460
458
453
447
441
431
423
412
401
389
374
358
346
331
318
304
289
273
259
246
231
216
204
191
177
166
153
138
127
113
105
102
112
154
225
327
429
526
605
668
705
730
744
747
736
724
709
686
664
637
609
580
548
518
487
458
435
409
391
375
363
361
357
357
357
363
369
374
375
378
378
378
375
369
362
351
340
334
325
318
313
304
297
290
282
276
269
261
250
250
256
289
350
440
539
638
723
798
842
873
887
893
890
879
864
842
819
796
774
747
712
672
632
594
558
522
495
473
450
437
423
416
410
405
403
397
392
386
379
371
361
355
346
335
321
313
301
290
279
263
252
240
233
222
211
204
193
184
183
185
214
267
362
473
586
688
770
832
879
907
925
927
930
921
908
891
874
852
829
807
783
754
722
688
654
624
599
582
569
558
549
543
542
539
535
533
525
518
511
502
497
484
473
463
452
440
429
414
406
395
384
372
361
354
342
335
325
317
310
300
294
297
328
385
467
569
668
756
828
876
908
928
937
938
931
920
904
883
863
845
822
800
777
751
720
688
654
622
594
569
552
535
524
515
505
504
498
492
490
478
471
460
452
441
429
414
403
392
380
369
355
346
335
324
313
301
294
283
276
269
257
250
240
235
225
222
239
276
350
448
552
654
736
798
845
873
891
891
889
879
862
842
823
801
778
756
734
700
658
630
601
573
548
531
514
502
494
484
484
484
480
478
473
467
460
448
437
424
410
399
386
372
361
345
334
323
307
296
280
273
262
250
239
228
221
210
201
195
184
176
170
184
218
284
379
487
590
673
741
798
825
842
849
846
832
819
801
778
756
729
703
675
647
621
594
569
552
531
508
488
471
465
460
454
453
447
441
436
430
424
412
397
386
374
359
344
328
317
301
284
267
250
238
223
208
191
174
161
149
132
119
106
92
81
68
54
47
54
88
153
248
355
463
542
613
662
693
713
717
716
707
692
669
647
620
596
570
539
524
478
454
431
409
386
375
363
357
355
355
361
365
368
378
384
386
391
392
395
395
395
395
395
391
385
374
367
355
348
337
325
314
303
294
284
280
286
310
372
463
569
672
760
832
881
918
942
948
948
938
925
908
887
864
842
819
798
767
726
686
647
611
575
546
522
499
480
463
461
458
458
457
448
446
440
435
424
413
405
395
385
376
365
351
342
331
320
308
297
290
279
272
261
249
242
236
233
246
290
367
467
579
683
773
845
893
921
941
949
947
941
930
913
891
872
849
826
804
781
751
717
683
651
620
590
567
548
535
525
519
514
512
509
505
499
491
484
473
461
450
439
427
416
403
389
378
362
351
340
328
317
306
294
283
276
265
253
246
236
231
233
265
324
408
515
620
709
781
829
866
886
894
896
889
877
862
843
821
798
775
753
730
700
666
632
599
570
548
528
514
501
495
490
488
487
484
480
474
465
458
452
440
429
418
406
395
384
372
361
350
338
327
320
308
293
286
274
267
257
249
242
231
222
216
205
197
191
201
229
293
384
491
599
692
766
823
852
872
883
883
877
866
847
825
802
779
757
730
698
672
645
613
584
560
533
514
492
486
477
471
470
464
463
461
456
450
443
435
424
414
406
395
380
372
361
350
338
327
320
308
301
290
279
272
262
256
246
239
231
221
215
210
204
197
205
233
300
391
501
603
696
768
817
853
870
879
876
866
853
834
815
792
770
743
715
683
658
630
599
565
536
511
488
469
454
446
435
426
424
418
409
403
393
385
374
362
348
335
320
306
289
278
263
246
233
216
204
187
170
157
140
126
115
102
88
76
61
49
38
34
48
81
155
249
357
458
543
607
654
685
700
705
702
692
675
655
632
610
584
556
526
495
471
448
426
408
388
374
365
361
361
365
376
385
391
401
403
408
408
408
408
408
405
395
393
388
382
375
363
357
345
337
327
316
307
301
296
293
306
350
426
531
638
737
823
880
928
959
978
983
981
974
962
942
924
901
879
856
834
802
764
727
692
654
622
590
567
545
526
515
501
492
481
473
467
460
452
446
436
427
416
402
393
382
371
359
344
333
321
314
303
291
284
273
265
255
248
242
246
276
335
420
528
635
730
802
859
904
921
932
938
935
924
913
894
874
853
830
805
777
741
705
671
634
603
573
550
533
518
512
509
505
505
499
497
491
486
480
469
460
450
440
431
420
405
393
382
371
359
348
341
330
323
311
300
293
283
278
267
261
255
259
287
344
429
535
639
734
805
859
900
917
925
930
923
911
900
881
859
836
813
788
756
720
683
649
613
582
552
531
516
501
495
492
488
487
481
475
470
464
454
443
435
424
412
397
386
371
359
348
337
325
310
303
291
280
269
257
250
239
231
221
210
204
200
221
263
340
439
546
641
722
784
832
853
868
874
872
857
845
822
800
777
754
729
700
678
649
620
587
559
535
516
499
484
478
475
471
470
464
463
458
456
446
439
430
420
410
402
391
379
368
357
350
338
327
320
308
297
286
274
267
261
252
242
235
227
221
236
273
340
435
542
637
719
784
832
855
869
874
872
857
845
822
800
777
753
724
692
664
632
599
566
535
509
482
463
441
429
414
408
402
393
386
379
371
361
350
338
327
310
296
280
265
250
238
221
204
187
176
161
144
129
115
102
86
72
59
47
32
21
21
30
68
134
231
335
435
514
582
621
652
666
672
669
658
641
621
599
575
546
518
488
454
424
399
382
365
350
341
335
335
338
344
350
358
365
369
369
369
369
369
365
363
358
352
344
341
335
330
324
318
313
310
306
303
291
289
290
321
374
469
579
688
781
857
917
961
981
993
1002
996
985
972
952
934
911
889
866
838
809
777
741
705
671
643
617
594
575
560
548
536
525
509
502
491
475
460
448
441
435
423
412
399
388
378
367
355
344
330
321
310
303
294
284
278
272
284
321
389
484
586
682
768
829
874
904
920
925
930
920
911
891
873
853
832
809
787
760
730
693
658
624
593
569
542
525
509
508
505
501
492
490
484
478
470
458
452
440
424
413
399
391
379
365
352
340
328
318
307
296
284
274
266
259
255
266
297
372
463
565
664
751
815
862
890
908
913
910
904
891
872
853
830
808
785
758
733
700
666
632
599
570
539
518
504
498
492
488
488
484
482
477
471
461
453
441
430
419
403
396
385
369
358
344
335
324
313
301
290
282
276
266
257
250
244
252
280
346
435
539
635
723
790
840
874
891
900
897
887
870
853
836
813
791
764
736
707
671
632
599
560
539
519
501
490
478
475
471
469
467
461
456
450
440
431
420
410
402
391
375
363
348
341
330
314
303
291
284
273
265
255
244
235
229
219
216
216
240
294
378
482
587
683
750
804
840
859
868
866
859
845
828
809
787
764
740
715
688
655
624
594
566
537
514
497
482
471
465
457
454
450
447
441
430
422
416
403
389
374
358
346
331
314
297
280
267
250
233
216
200
187
171
157
140
127
113
98
86
75
72
91
136
216
317
422
522
590
647
688
709
723
726
719
705
683
661
638
615
592
560
531
497
460
433
406
384
361
350
341
335
334
334
335
340
342
344
348
348
348
346
344
340
331
328
323
318
313
297
291
283
276
270
262
255
249
244
238
236
256
293
365
458
560
656
733
794
832
857
874
874
869
857
839
817
794
771
745
717
692
652
603
570
539
509
478
458
441
426
414
403
402
396
391
389
380
374
363
358
348
337
328
318
307
296
284
269
257
246
235
223
212
201
189
183
171
160
157
171
205
267
376
492
607
706
788
849
894
920
934
938
935
925
914
897
879
856
834
811
787
758
730
695
661
628
607
587
573
559
550
548
543
541
535
533
528
522
515
504
497
486
474
463
452
440
429
418
406
395
380
372
361
350
338
327
320
308
301
294
283
276
274
291
327
403
497
603
700
783
845
890
915
930
938
935
925
914
900
883
864
842
823
801
775
743
707
673
641
609
583
560
541
526
518
514
511
509
504
498
492
486
474
467
456
441
429
416
402
391
379
368
357
341
330
318
307
296
284
273
262
255
244
232
225
214
202
200
202
231
284
378
486
590
689
760
815
851
870
883
883
877
862
845
825
807
784
758
734
713
685
649
621
593
565
542
522
509
498
490
484
482
480
475
474
469
463
456
447
437
426
418
408
396
385
374
362
351
340
328
317
306
299
287
280
269
257
250
244
235
229
218
212
208
222
256
323
413
521
624
707
775
832
859
876
883
880
869
853
835
812
790
767
741
713
685
654
624
592
563
535
512
492
475
469
460
454
448
443
441
436
430
424
413
405
395
382
368
357
341
330
318
303
291
276
265
253
238
225
208
195
184
172
161
149
134
123
112
103
98
109
146
216
317
424
531
604
666
709
734
749
751
749
734
713
695
672
645
621
593
560
528
497
471
444
419
395
378
363
357
351
345
344
344
346
348
354
357
352
352
352
344
333
321
310
299
287
272
265
253
246
235
223
216
211
205
200
194
191
187
201
232
293
378
482
586
669
740
798
826
846
853
852
840
823
805
783
760
730
699
671
638
613
586
553
522
492
465
446
424
413
402
395
389
384
378
374
371
365
358
350
340
334
325
314
304
296
284
273
262
246
239
228
216
205
194
187
177
171
161
160
183
225
318
429
548
665
758
832
890
927
951
958
964
959
948
934
917
894
872
849
826
801
773
758
713
679
643
614
590
573
562
552
546
543
539
537
529
522
516
511
501
494
482
471
461
453
441
430
419
408
401
389
374
367
355
348
338
330
323
311
303
301
299
316
357
435
531
632
729
805
866
908
937
955
957
957
947
934
917
900
881
859
836
809
784
756
720
683
649
617
588
565
546
529
514
507
495
484
482
474
467
460
452
441
430
419
408
396
385
374
362
351
340
328
317
306
294
283
276
269
257
250
240
235
225
218
210
204
219
256
327
422
529
632
720
788
845
872
889
900
898
890
879
864
842
819
796
774
747
717
683
649
617
588
565
542
522
505
498
490
484
482
477
475
471
469
463
452
443
437
426
414
403
389
380
369
358
346
331
324
313
301
290
279
272
262
256
246
239
231
221
215
212
225
262
330
424
532
634
726
783
834
866
885
890
887
880
866
845
826
804
777
754
732
696
660
631
603
575
546
522
505
488
475
470
461
458
454
452
450
444
439
433
423
414
403
393
385
374
367
355
344
333
321
314
303
291
284
273
265
259
248
239
229
223
218
212
204
210
238
296
386
492
593
683
756
808
847
866
874
874
870
853
836
815
792
770
743
715
683
658
628
597
565
535
507
484
463
443
433
422
413
408
401
392
382
376
368
357
345
334
323
307
293
276
265
250
233
222
208
195
180
166
153
140
126
115
102
88
76
62
54
42
38
44
68
129
216
318
426
516
582
634
668
692
696
693
688
675
655
632
610
587
560
532
501
467
443
418
395
374
354
340
330
324
323
325
334
340
345
351
357
365
368
369
365
365
357
355
352
348
342
334
331
324
313
301
290
282
272
266
263
276
320
396
497
610
715
807
872
920
951
969
978
976
969
958
942
924
901
879
855
829
802
768
734
696
662
628
594
570
545
526
515
501
488
477
469
463
456
447
437
430
419
408
396
385
374
362
351
335
328
317
306
294
280
272
261
252
242
236
236
250
303
385
488
597
693
777
836
881
917
928
934
934
923
911
896
877
855
832
809
784
756
720
683
649
613
582
556
539
525
514
512
509
505
504
498
492
487
481
475
464
456
446
435
423
412
401
389
378
367
355
344
337
325
318
307
296
289
278
269
263
259
270
297
369
463
569
672
757
823
872
903
925
931
934
925
913
896
879
856
834
811
790
758
717
678
641
607
575
543
518
502
494
484
478
475
471
470
464
458
453
447
437
426
418
408
396
385
374
359
351
340
328
317
301
294
283
276
265
253
246
236
231
221
215
221
246
307
392
497
600
690
764
822
856
879
886
889
879
866
849
832
809
787
764
743
712
671
643
614
586
554
535
514
497
486
475
470
467
463
461
456
454
448
443
433
422
413
403
393
385
374
359
351
340
333
321
310
303
291
280
273
262
255
245
239
229
222
214
208
225
265
335
430
537
637
719
784
836
857
872
879
876
864
849
830
808
785
761
736
709
681
649
615
583
554
526
499
480
463
452
443
437
436
430
429
424
422
416
405
396
386
374
359
348
337
325
314
299
287
272
259
245
229
218
204
191
180
166
153
140
129
119
108
99
93
113
167
250
355
463
569
641
698
739
758
770
773
764
747
726
703
681
654
626
594
565
537
512
484
457
435
412
399
385
374
368
365
365
369
369
369
375
375
369
359
351
340
330
321
310
299
287
272
265
253
246
236
228
221
216
214
208
202
200
200
221
261
335
429
533
628
709
771
819
840
852
857
855
840
823
801
778
756
726
692
658
634
609
577
545
514
488
461
441
424
413
405
399
393
388
382
376
371
369
362
354
344
334
325
314
304
296
284
278
266
250
244
232
221
210
198
191
180
171
170
174
208
272
378
499
615
720
800
862
904
932
951
951
948
938
925
908
887
864
842
819
795
767
734
700
666
637
605
586
569
553
545
535
533
531
526
525
516
509
504
498
488
477
469
458
448
440
429
418
406
395
388
376
365
358
346
340
328
317
310
300
294
284
279
276
284
324
392
488
594
696
781
846
894
934
947
955
959
952
938
925
907
887
866
842
817
794
778
730
696
660
628
599
571
552
531
519
508
501
495
490
488
482
477
467
460
448
437
427
419
408
392
380
369
362
351
335
328
317
306
294
283
272
262
256
246
235
227
221
211
205
200
211
245
310
406
516
624
707
778
832
863
886
891
891
886
874
856
836
815
792
770
743
727
682
654
624
593
565
542
519
501
490
478
471
467
464
463
457
452
446
440
431
420
410
402
391
379
368
352
345
334
323
311
300
289
278
269
259
248
239
229
219
214
204
194
188
178
174
177
191
240
320
424
535
637
717
784
826
853
869
874
870
859
842
823
805
783
760
737
709
700
651
626
607
584
559
535
518
504
492
481
475
471
471
469
463
457
448
437
430
419
408
401
389
378
367
355
344
333
321
310
303
291
280
270
262
255
245
236
225
219
211
200
193
187
183
195
232
301
397
508
611
696
764
815
846
863
870
869
860
845
826
804
781
757
732
705
677
648
624
596
567
539
511
486
467
452
440
429
419
413
403
397
392
382
375
363
352
341
330
318
307
293
276
263
249
238
221
206
195
180
166
153
137
126
110
99
88
76
65
54
47
45
65
106
188
284
391
488
570
632
682
707
722
726
723
713
699
677
654
631
605
577
549
521
488
461
439
420
403
386
378
369
369
374
378
384
395
396
399
403
405
408
408
403
401
399
392
386
382
379
368
357
345
334
323
316
307
297
291
289
297
334
402
497
610
717
811
879
932
968
987
996
1002
995
983
968
949
927
904
880
855
828
811
757
722
688
654
620
592
566
548
531
516
505
494
482
471
460
452
441
436
427
420
409
395
386
375
363
352
340
328
318
308
300
289
279
270
259
252
244
238
248
282
344
439
549
649
741
815
874
908
931
942
944
941
930
913
896
874
852
829
807
777
743
705
671
637
607
575
549
535
522
511
505
504
501
497
492
490
484
477
465
454
447
436
429
418
403
395
384
372
361
350
341
331
321
313
301
291
283
276
270
265
272
310
375
467
573
678
760
829
877
913
930
938
934
927
913
896
874
855
832
809
784
756
726
689
649
615
579
548
521
501
480
473
467
463
461
458
454
444
439
433
426
414
399
392
380
369
358
344
335
324
313
301
290
282
272
262
256
246
236
228
221
216
225
250
320
408
514
621
712
777
829
863
883
889
889
883
870
851
832
809
784
760
743
712
666
637
605
577
553
525
505
490
481
471
465
463
458
457
454
450
444
439
429
422
410
399
392
380
369
358
344
335
324
313
301
290
282
272
266
257
250
240
232
229
228
250
293
384
486
590
682
761
815
855
874
887
890
881
870
853
834
811
788
762
739
710
677
637
601
567
539
515
490
475
460
448
441
435
429
424
419
413
408
397
389
378
362
351
335
323
308
293
280
263
250
238
221
204
191
177
166
149
134
123
108
93
81
75
72
85
140
222
327
436
532
603
661
700
726
732
732
726
709
692
671
648
622
594
566
535
497
473
447
420
399
379
365
354
345
344
340
340
344
345
348
348
352
352
352
352
350
344
342
337
331
321
313
306
296
290
280
273
265
255
249
244
242
261
306
386
487
592
692
766
825
866
891
906
908
901
887
870
847
825
802
774
745
713
693
634
594
554
521
492
471
454
437
427
419
412
408
405
399
393
388
382
372
363
352
342
334
323
311
300
289
278
266
259
248
233
225
214
205
195
188
185
200
250
330
437
559
666
760
829
877
917
930
938
942
935
921
904
886
863
840
818
795
768
751
700
662
626
597
573
554
537
526
519
514
509
508
502
497
491
486
475
469
460
450
439
427
416
405
393
382
375
363
348
341
330
323
311
300
293
283
278
267
261
257
267
307
375
471
577
677
760
829
877
913
925
934
934
927
913
900
881
862
840
817
791
764
747
696
662
624
590
560
533
514
501
495
490
484
482
477
475
469
460
454
443
435
424
413
402
391
379
368
357
345
334
323
311
300
293
286
274
267
256
248
242
231
225
221
238
278
352
447
554
654
734
796
849
872
889
896
893
881
870
852
829
807
784
761
734
709
672
637
600
571
548
525
505
488
481
475
471
465
463
458
453
447
441
435
426
416
405
393
382
368
359
348
333
321
310
303
291
284
273
262
255
245
239
229
222
216
221
249
306
391
492
594
688
758
809
849
866
874
874
868
853
836
818
795
773
750
727
700
672
641
607
575
546
522
504
484
467
460
452
446
444
439
437
431
426
420
409
401
391
379
368
357
341
330
318
307
296
280
273
262
246
235
223
212
201
189
178
167
164
174
223
300
399
508
601
679
737
774
798
804
804
794
779
757
739
715
686
662
628
611
565
536
508
480
448
429
408
392
380
369
362
354
348
342
334
327
321
316
306
299
287
276
265
253
242
227
215
204
188
177
161
150
138
132
120
109
102
93
93
106
155
235
340
450
552
637
707
750
777
791
796
790
778
761
739
716
690
662
632
599
565
536
511
484
463
443
429
414
409
408
403
403
408
409
412
412
410
402
395
389
384
374
362
354
344
333
321
310
299
287
276
269
257
242
235
227
221
228
259
327
423
539
654
756
840
904
947
975
989
998
995
985
974
959
942
921
901
879
855
823
794
764
730
696
666
638
615
594
577
565
550
542
531
526
524
514
508
499
492
481
470
463
452
443
433
420
409
399
389
380
369
359
354
348
341
333
331
357
405
480
577
679
764
838
891
930
952
964
968
962
953
938
921
904
883
864
842
815
791
760
722
688
651
620
593
573
552
539
525
514
504
495
484
470
464
454
447
436
424
413
402
386
375
363
352
341
330
318
307
299
289
283
274
263
253
248
255
291
351
437
541
643
730
795
846
874
894
903
904
896
881
866
843
821
798
775
750
722
686
649
611
577
543
518
498
484
475
465
460
458
453
447
441
436
430
420
409
397
386
375
363
348
337
325
310
299
287
280
269
257
250
239
231
221
215
210
204
215
252
323
418
522
624
702
767
811
840
857
862
855
843
828
809
787
764
740
715
688
673
634
603
573
542
514
492
475
463
453
444
441
437
435
433
426
418
412
406
397
386
376
368
357
345
334
323
311
300
293
282
270
263
252
244
233
227
218
208
202
200
212
256
333
429
536
635
722
777
819
849
859
864
862
849
832
811
788
766
739
715
683
654
627
601
573
545
516
488
471
454
441
431
423
416
410
405
399
388
376
365
354
340
327
311
297
284
267
250
233
221
206
191
176
161
149
137
123
106
93
82
72
76
102
157
242
344
446
529
597
654
682
702
709
707
696
683
661
638
615
592
563
535
507
492
446
419
396
374
358
346
335
334
331
335
337
345
352
357
359
361
365
365
365
363
361
357
352
350
340
328
317
306
299
287
280
270
265
276
313
386
484
593
695
785
849
897
930
947
949
947
935
921
900
881
859
832
809
781
747
712
672
632
597
563
531
508
486
471
457
452
450
444
439
433
427
419
412
401
389
382
371
357
344
331
320
310
299
287
276
262
253
242
236
231
221
235
272
340
436
549
649
741
812
862
896
915
925
925
920
904
889
874
853
830
808
785
761
747
700
666
630
599
570
545
531
519
514
509
504
501
497
491
486
475
470
461
446
439
427
416
405
391
378
367
358
348
335
324
314
304
296
289
279
270
263
259
267
293
363
454
556
654
739
802
853
885
904
908
906
900
887
870
853
832
812
790
767
739
705
671
637
599
566
537
522
507
495
492
487
484
480
478
473
467
457
452
441
435
423
412
401
389
378
367
352
344
333
318
306
294
286
276
266
257
246
236
231
225
229
261
318
414
516
620
706
777
819
855
872
879
876
864
853
836
817
794
767
744
717
683
649
615
586
554
526
505
486
471
461
456
450
446
443
437
436
430
424
414
406
395
384
372
361
350
338
327
316
301
293
282
273
263
252
244
233
223
218
208
198
193
191
212
263
344
446
548
645
724
784
819
843
852
853
846
835
819
796
774
751
724
699
671
644
621
594
565
536
509
488
471
458
448
443
441
436
430
424
423
414
403
392
380
369
358
344
327
316
301
284
273
259
246
231
216
200
187
172
157
144
127
115
103
89
76
65
57
64
100
166
263
374
478
560
630
678
705
722
730
726
713
693
671
648
626
603
575
543
535
481
456
429
406
384
369
354
345
340
335
335
340
341
344
348
348
348
348
348
345
340
340
340
335
325
317
310
300
294
284
273
265
259
249
240
233
239
265
318
402
504
611
695
768
823
859
879
887
890
881
866
847
828
807
783
757
726
707
651
611
577
543
509
487
464
446
435
423
416
412
409
403
397
392
386
380
372
365
355
346
335
324
313
301
290
279
267
256
245
233
222
214
204
197
191
187
202
239
310
416
532
645
739
815
879
907
930
942
942
937
925
913
896
874
852
829
807
778
747
713
677
645
637
584
565
548
541
532
526
521
518
514
509
507
501
490
481
471
461
453
441
430
419
408
401
389
374
367
355
348
337
325
318
308
303
293
286
280
276
293
335
412
509
614
709
785
847
896
917
931
938
935
924
913
896
879
857
834
808
785
761
747
700
662
628
594
567
545
522
509
495
484
482
477
475
470
464
458
447
439
429
418
406
395
384
372
361
350
338
323
316
304
293
282
270
263
256
248
238
227
218
212
212
218
250
316
412
522
621
706
781
826
860
874
885
885
879
866
849
828
805
783
756
732
700
671
638
607
577
550
528
505
494
482
475
470
464
463
458
456
454
447
439
429
419
410
399
385
376
365
350
338
327
320
308
297
286
274
267
256
248
238
231
222
212
206
198
191
201
229
289
378
482
590
673
747
802
838
857
862
864
856
840
822
802
781
757
732
705
690
651
628
600
571
539
516
494
475
464
453
450
446
443
441
435
426
420
414
409
399
388
376
365
354
342
327
316
304
289
278
263
250
235
221
208
195
181
170
157
143
132
116
105
93
89
103
136
216
316
424
522
607
666
712
734
747
750
744
734
716
693
671
647
618
590
560
526
492
469
443
416
395
378
365
355
350
348
344
344
348
350
352
352
357
354
352
350
338
327
320
308
301
290
279
272
262
256
250
245
239
233
232
227
221
223
238
276
344
437
548
644
729
794
840
874
887
896
893
883
866
849
828
805
779
751
736
685
641
607
573
539
511
486
467
447
433
424
419
413
412
406
401
395
389
380
369
359
351
340
328
317
301
294
283
272
261
246
238
227
215
204
193
184
174
168
168
195
246
337
454
573
683
781
842
890
925
944
952
955
948
934
917
898
876
853
829
804
777
747
713
679
645
614
586
569
554
543
537
532
526
522
519
518
511
502
497
491
482
471
461
453
441
430
419
408
401
389
382
371
359
352
341
333
327
316
307
301
301
307
340
401
494
594
693
778
853
893
924
942
952
952
947
934
917
900
877
855
832
809
787
760
726
692
658
624
593
560
539
522
505
494
480
471
463
460
454
443
435
429
418
406
395
384
372
361
350
338
327
320
308
293
282
270
263
252
240
233
222
214
204
198
193
187
194
228
293
389
499
611
699
770
823
859
881
887
887
881
866
849
829
807
784
761
734
720
681
654
624
593
565
542
519
501
487
478
471
467
464
463
457
452
446
440
435
424
414
406
395
388
376
365
358
346
335
324
313
306
294
286
276
265
256
250
240
235
225
216
214
221
257
323
416
528
630
717
787
840
870
890
898
900
887
873
853
830
808
785
761
733
700
666
632
599
570
545
518
497
480
467
457
452
450
444
441
437
436
430
424
414
406
395
389
380
365
358
346
340
328
314
306
294
286
276
265
256
246
240
235
225
215
210
208
215
244
297
389
494
599
686
760
807
842
859
866
869
860
849
828
808
785
758
733
705
678
652
615
587
556
526
498
470
450
433
416
403
396
388
382
372
367
357
346
338
327
311
300
284
273
262
246
231
216
204
193
178
161
149
134
123
110
96
85
71
62
51
40
31
30
54
102
178
282
389
480
556
615
654
677
688
692
685
673
658
635
613
590
563
537
531
475
447
424
403
384
374
362
354
352
352
352
357
362
365
369
369
372
374
374
371
365
363
358
352
351
348
340
335
333
331
318
307
297
291
283
276
274
294
344
424
532
649
750
838
904
952
989
1002
1010
1010
1006
993
976
959
948
925
887
863
835
828
768
734
696
666
635
607
584
562
548
536
525
514
501
487
475
464
456
446
436
430
420
409
397
386
379
368
357
345
334
327
316
307
297
290
282
272
266
263
276
308
376
471
575
677
768
829
877
913
931
940
938
931
920
908
890
868
849
826
804
773
739
705
671
637
605
573
550
528
514
504
495
492
488
486
484
477
469
463
453
447
437
423
414
403
396
385
369
362
351
340
330
321
314
303
294
284
278
269
259
249
244
238
235
246
284
354
450
560
656
741
807
849
880
896
904
901
891
874
857
840
818
795
773
745
720
713
652
615
582
554
532
514
494
482
475
471
469
467
461
458
454
448
440
429
419
413
403
392
380
365
358
346
335
324
310
301
290
279
267
256
248
238
232
223
216
206
201
200
214
250
263
412
519
624
710
781
823
855
872
879
883
872
853
832
812
790
762
737
713
685
656
624
594
566
539
516
494
480
469
460
454
448
446
441
440
435
429
419
413
408
401
389
378
371
359
344
333
327
314
303
291
280
269
261
255
245
239
233
229
215
208
202
200
208
250
318
412
522
624
705
774
822
853
869
874
874
863
846
828
817
783
760
732
703
696
647
615
586
553
539
497
470
450
433
424
416
403
397
392
382
378
367
357
345
334
318
311
297
280
269
255
242
227
212
195
183
168
153
140
126
110
96
88
76
61
49
47
27
21
21
49
72
187
287
395
488
543
597
654
673
682
688
683
669
649
631
609
603
553
525
497
482
454
416
397
378
365
357
351
344
345
348
352
355
363
365
369
369
369
368
365
361
355
352
344
340
337
335
331
325
318
308
300
289
284
273
267
263
278
284
392
494
611
720
768
883
937
974
998
1002
1008
1006
993
976
959
949
918
896
873
847
840
781
747
709
677
662
615
593
573
552
543
532
518
505
491
480
474
457
450
439
427
424
409
397
386
375
369
352
341
330
318
310
301
289
279
270
263
259
245
242
245
270
280
409
511
615
712
751
849
890
913
925
930
927
921
908
889
870
860
829
807
783
751
743
679
645
615
583
569
535
519
511
505
501
498
492
491
488
484
480
465
454
447
436
433
418
406
395
384
378
365
354
342
331
323
314
301
291
286
276
272
257
250
246
257
263
355
446
552
651
696
802
849
880
900
904
904
900
883
866
845
834
800
777
753
724
717
656
617
582
549
535
505
488
474
467
463
460
454
453
447
441
439
427
420
413
402
399
379
368
357
345
340
323
311
303
293
284
273
259
253
245
238
233
222
212
206
201
200
193
210
255
335
386
552
651
733
798
832
860
887
889
889
879
870
842
819
796
771
764
713
685
658
626
611
565
537
512
488
480
469
454
453
450
446
444
439
437
433
430
429
414
406
399
388
382
365
354
345
335
327
316
301
290
279
267
263
252
242
235
227
225
211
208
216
246
272
399
508
615
709
760
813
866
886
891
896
890
870
849
826
804
798
757
729
696
662
645
599
566
537
514
492
475
454
443
435
429
426
418
412
406
397
395
379
368
357
345
340
318
306
289
276
263
249
233
216
202
187
180
160
149
133
122
119
95
83
76
81
89
166
252
359
467
535
609
688
720
743
751
750
741
726
707
685
679
638
610
582
567
539
501
474
452
429
416
402
386
376
374
369
371
374
374
378
380
382
386
386
391
380
378
369
359
354
348
340
331
323
317
308
297
293
282
272
267
282
289
385
478
586
685
730
836
874
891
930
934
931
921
908
889
866
855
818
794
766
734
726
665
626
586
552
535
492
465
446
429
420
414
408
402
399
395
391
379
369
363
355
352
333
321
314
303
297
280
269
257
246
238
229
216
205
197
191
189
193
229
299
397
424
624
720
798
851
870
913
925
928
925
917
903
883
860
838
815
802
762
756
696
662
654
600
575
556
536
531
514
508
502
501
497
491
484
478
473
463
458
447
437
426
414
412
396
385
374
362
357
344
333
321
310
306
297
284
274
269
263
263
274
314
388
484
509
689
774
840
883
900
930
938
938
930
917
903
879
857
838
815
802
762
756
700
666
658
594
566
539
518
509
488
484
481
480
475
470
463
457
452
441
437
423
412
401
389
386
367
355
344
333
327
310
299
290
280
272
263
250
245
236
229
229
240
280
358
457
484
664
745
811
853
870
896
900
897
887
874
855
828
805
783
760
745
717
671
631
597
590
542
519
501
486
480
463
458
456
454
450
444
437
431
426
416
412
397
386
379
368
365
345
334
323
311
306
289
278
269
263
255
246
233
223
218
212
210
210
229
284
367
391
573
669
747
805
828
870
883
883
879
870
853
832
809
787
760
745
703
675
645
614
607
553
528
505
484
475
458
447
439
437
433
424
416
410
405
395
389
372
361
350
338
335
314
300
284
273
267
246
231
216
204
195
181
166
153
136
123
117
100
98
108
144
157
306
413
518
603
637
709
740
757
760
760
749
730
707
685
662
648
605
577
552
518
501
456
430
408
386
378
361
351
345
344
340
340
344
344
344
344
344
344
335
328
317
314
299
287
280
270
267
255
249
244
238
229
223
216
216
225
259
294
410
514
613
698
717
817
847
866
872
874
862
845
825
802
785
757
722
689
658
624
609
560
531
502
474
467
437
423
412
402
399
391
385
379
378
374
365
357
346
338
327
323
308
297
290
279
276
256
245
238
227
221
204
194
188
187
200
250
340
454
573
683
726
845
896
931
948
951
959
953
942
925
917
887
864
842
819
798
770
734
699
662
628
614
571
548
536
528
526
512
509
505
504
501
488
478
473
463
454
443
429
419
410
399
393
376
365
354
342
340
324
313
306
300
297
289
299
333
395
463
565
688
770
835
883
897
934
938
941
932
930
908
891
870
847
836
802
785
757
717
692
655
611
583
558
535
526
504
492
484
481
480
470
464
458
452
446
433
422
410
399
391
382
369
358
346
335
330
313
306
294
286
284
269
261
255
249
246
280
340
430
535
611
699
798
846
883
904
907
913
904
893
879
874
835
812
790
767
756
705
666
630
594
569
537
509
492
478
471
469
460
458
453
447
446
436
427
420
409
403
386
375
363
352
344
333
318
307
296
284
279
262
255
248
236
233
218
212
208
214
225
306
391
495
603
666
737
811
842
862
870
869
860
849
830
808
802
762
737
709
681
666
624
590
559
535
514
491
467
452
440
433
429
418
412
406
397
395
379
368
357
345
340
318
306
289
276
263
249
229
216
200
183
176
155
144
129
117
115
95
89
89
117
140
259
362
467
560
611
660
709
724
730
734
729
709
688
665
643
637
592
560
531
515
484
446
419
399
378
369
358
344
344
344
344
345
348
348
352
352
352
351
348
344
342
340
327
317
311
301
297
289
280
270
265
255
252
244
255
294
365
386
558
656
739
801
823
874
889
894
896
883
866
840
818
795
768
753
722
666
627
587
577
514
486
480
441
433
412
401
392
391
386
380
374
368
359
352
348
334
323
316
304
301
282
270
259
253
242
221
210
201
191
183
174
161
164
181
233
282
437
560
666
757
777
880
911
930
940
942
934
921
904
887
870
847
819
795
767
734
717
666
632
607
587
577
548
533
526
521
518
509
505
502
497
488
480
471
461
453
441
436
419
408
392
380
378
358
346
335
324
318
306
294
286
276
272
263
255
265
276
352
397
542
645
733
804
819
890
910
921
923
925
908
894
874
853
836
813
785
761
747
696
678
624
590
562
533
526
498
490
484
478
475
471
467
464
463
450
441
429
419
410
399
393
376
365
354
342
340
320
308
301
290
284
272
261
252
242
233
225
216
221
244
297
344
491
599
692
768
785
864
885
896
897
900
883
866
846
823
807
784
751
726
692
654
637
588
560
533
514
509
481
473
467
461
458
458
453
447
446
437
429
420
409
397
386
382
368
357
348
337
331
311
300
289
278
272
259
249
244
233
225
216
208
202
202
225
255
357
463
569
662
683
798
840
866
876
879
870
857
840
823
807
784
751
727
713
671
655
607
573
545
516
509
475
458
446
436
433
424
419
413
412
408
399
386
376
368
357
350
330
318
307
293
289
269
257
242
231
225
208
197
188
187
170
161
149
143
140
136
149
200
276
380
491
518
678
745
790
819
828
840
838
826
811
798
775
747
723
698
671
656
617
594
567
545
539
509
495
480
474
463
450
446
443
437
433
427
420
414
406
395
391
376
365
354
342
340
316
304
293
282
276
255
244
232
221
212
201
187
176
164
153
150
150
170
208
293
335
522
615
692
744
764
802
811
811
802
790
770
743
719
693
666
651
605
599
542
516
509
463
443
424
409
403
391
386
386
382
378
372
365
363
361
352
348
337
327
321
313
310
294
286
280
269
263
250
244
235
229
221
212
200
198
201
229
263
376
484
590
683
705
809
846
866
876
879
870
856
834
828
794
768
734
705
671
641
627
582
548
519
491
484
446
431
420
410
408
399
393
388
386
382
374
365
355
346
335
331
317
306
294
283
280
261
252
242
236
225
212
201
193
187
183
180
187
227
297
399
460
638
739
815
874
887
942
953
959
957
951
930
911
889
866
849
823
790
774
726
692
675
624
590
573
556
548
524
518
514
508
505
501
495
490
484
480
471
458
448
440
429
423
406
395
388
376
374
358
346
340
328
323
310
303
294
289
284
276
267
282
293
382
431
584
683
767
835
849
918
935
942
942
942
925
908
891
870
853
828
798
774
760
713
695
641
607
579
550
543
509
495
484
482
480
475
470
464
463
454
446
433
423
414
403
399
385
374
362
351
348
328
317
310
299
293
280
269
261
255
246
238
229
223
221
233
253
330
424
533
638
662
795
846
879
886
900
900
893
879
862
845
822
794
770
741
709
692
638
603
570
542
535
497
480
467
457
454
446
440
435
433
429
420
412
402
396
386
380
367
357
348
337
331
311
300
289
278
272
255
245
239
229
225
216
204
198
193
187
195
232
297
392
497
522
682
750
798
829
840
853
851
839
828
815
792
764
740
726
688
671
620
594
567
542
535
490
464
446
430
424
408
397
392
382
378
369
361
351
342
331
324
304
293
278
266
263
238
223
208
195
187
166
154
140
136
119
105
89
76
62
51
47
36
42
71
130
149
328
436
535
609
637
700
720
732
734
726
715
692
669
647
624
609
563
535
528
491
480
436
413
395
389
378
365
361
361
361
365
374
382
384
386
391
392
395
395
391
388
386
375
363
352
341
335
323
311
303
293
284
279
272
287
324
391
441
597
700
773
840
874
944
961
972
970
968
951
932
913
891
874
849
815
781
744
705
686
630
594
565
533
526
488
471
454
444
441
433
427
422
416
412
403
391
380
378
361
355
338
327
316
304
301
282
270
263
252
246
233
223
218
216
233
287
382
495
609
709
745
847
896
923
937
938
941
932
921
904
896
862
839
817
811
764
730
683
649
615
586
573
539
526
515
507
505
495
492
488
487
484
471
464
456
446
437
429
416
405
393
382
376
359
348
341
330
327
311
300
293
289
280
267
265
279
310
365
458
586
686
774
836
857
914
930
938
935
934
913
896
879
856
845
807
783
754
747
696
660
615
582
550
522
512
484
471
467
461
458
453
447
441
436
433
420
409
401
391
382
371
357
345
334
323
317
300
289
282
270
267
253
245
238
228
225
212
208
216
242
289
379
505
611
662
777
801
866
887
896
896
896
876
859
836
813
802
768
740
709
675
649
618
582
549
524
505
497
474
463
457
452
450
444
441
441
436
433
420
413
405
403
386
378
365
355
346
335
330
313
301
294
283
280
263
255
246
242
233
221
216
205
204
233
293
386
498
605
696
730
821
857
873
881
883
876
859
840
829
807
773
744
716
683
658
627
586
558
529
501
488
454
441
426
418
416
402
396
391
384
378
365
354
342
331
323
308
293
276
262
246
239
219
204
191
180
174
149
134
119
103
98
81
70
58
47
42
57
93
167
266
374
423
562
624
671
699
705
717
712
700
683
675
641
614
588
565
539
508
492
452
437
403
395
369
357
348
345
344
341
346
352
355
361
369
374
376
378
378
378
374
374
374
365
359
342
331
327
316
310
294
286
280
270
267
297
351
436
458
620
716
823
879
904
947
951
959
955
944
930
925
891
869
836
822
794
739
719
660
620
594
560
543
490
475
446
440
429
416
412
409
408
395
389
382
378
369
357
351
337
327
318
307
301
289
280
263
257
246
233
229
218
212
202
211
242
279
352
514
624
717
739
836
876
913
923
925
921
915
904
879
862
839
828
794
766
730
715
683
628
620
586
556
526
512
505
491
488
484
482
480
471
467
461
458
446
435
424
419
408
399
389
372
369
352
344
340
321
318
301
297
289
276
272
263
259
257
263
327
372
463
628
724
801
819
896
918
942
942
942
925
917
900
870
853
828
815
777
743
696
678
641
590
575
529
522
488
477
471
461
458
454
452
446
441
433
430
424
412
401
386
380
369
357
351
334
331
314
303
297
279
276
259
255
246
242
229
223
221
211
214
242
276
344
501
605
696
717
811
845
879
881
887
879
870
853
823
807
784
773
734
720
666
649
615
569
554
515
509
480
463
454
441
439
433
431
429
420
416
413
412
399
388
378
372
361
348
345
328
323
306
300
293
274
272
255
250
242
229
225
219
208
198
193
183
183
183
229
300
402
429
590
678
777
821
840
870
872
874
862
853
830
819
785
774
730
715
683
641
630
593
586
539
511
497
458
450
429
423
412
399
395
386
382
369
361
348
345
334
310
303
280
276
255
240
233
208
200
178
171
157
149
127
113
106
85
79
55
49
38
21
13
19
21
76
161
284
396
450
573
600
671
696
705
707
709
692
672
662
634
611
569
554
512
505
467
444
433
410
391
374
359
348
344
344
346
348
362
365
374
375
378
382
382
379
378
378
372
369
363
361
352
350
341
323
321
307
301
289
280
272
280
297
378
441
498
607
715
834
870
945
959
981
982
985
981
955
938
930
907
870
857
829
798
734
724
665
645
611
577
548
505
497
475
469
454
441
440
437
433
423
418
403
401
389
378
371
359
352
341
327
318
307
296
284
273
265
255
245
233
229
218
212
238
266
323
475
504
617
717
828
859
896
921
935
938
935
924
913
896
876
853
830
805
777
747
710
671
637
586
569
542
519
505
495
490
484
478
475
471
465
460
454
444
439
429
422
410
399
388
376
369
358
346
335
324
316
306
294
286
272
270
262
255
245
236
233
236
262
310
408
515
620
716
795
853
893
915
930
932
927
917
898
876
853
830
808
785
758
730
692
658
624
590
558
526
509
494
486
480
474
471
467
467
464
458
453
447
437
431
423
412
405
393
382
372
363
352
341
333
323
316
307
297
287
279
272
262
253
246
239
231
225
240
278
344
439
549
649
734
800
849
880
894
904
897
886
870
849
829
807
784
758
730
700
664
624
592
560
531
504
484
467
454
443
437
431
429
424
420
418
412
406
397
386
380
372
361
350
338
331
320
311
301
290
282
272
262
253
242
232
227
216
211
205
195
197
211
250
324
423
531
634
716
785
829
857
874
876
876
862
845
825
802
779
754
726
696
668
637
603
569
539
507
478
454
427
410
399
388
376
365
355
350
340
334
325
310
303
291
276
265
250
238
227
212
195
183
168
157
144
127
115
99
88
76
61
49
38
31
25
42
83
154
250
358
460
543
604
649
679
690
696
692
681
666
645
622
597
569
541
512
480
447
416
391
372
352
335
324
316
310
311
314
318
328
334
340
344
346
348
348
348
344
338
333
331
325
320
318
313
310
306
296
287
280
272
274
293
340
422
526
644
749
836
906
957
985
1000
1009
1006
995
983
968
945
923
896
872
843
815
785
751
713
678
641
611
583
558
539
522
505
492
481
470
458
446
431
424
414
406
395
384
372
361
354
342
331
320
306
297
286
278
267
256
248
238
228
222
216
227
257
323
419
532
645
733
807
862
897
920
930
934
928
917
900
883
862
839
817
790
761
730
692
654
620
582
559
536
518
502
491
484
478
473
471
465
460
454
448
440
429
419
410
399
392
380
365
358
346
335
324
313
306
294
286
276
265
256
246
240
232
225
216
214
229
273
346
450
562
666
756
819
868
896
911
920
917
906
894
879
856
834
811
788
762
734
700
664
624
594
566
539
518
501
488
478
473
467
461
458
454
448
443
437
427
419
408
396
385
374
362
351
340
328
317
306
294
286
276
265
256
246
236
231
225
215
206
200
195
193
200
242
310
408
519
627
713
787
835
870
887
896
896
889
874
857
835
812
790
762
737
705
675
644
615
587
556
531
512
492
480
469
463
458
453
450
446
440
435
429
423
414
403
396
385
378
367
355
348
337
325
314
303
294
284
274
266
255
245
239
229
223
215
204
198
195
191
210
252
331
431
542
645
729
791
836
857
872
879
876
864
845
826
804
781
757
729
700
668
639
611
582
550
522
494
469
450
433
419
408
397
389
382
376
368
357
350
338
327
316
301
289
278
263
250
238
223
212
200
185
170
154
143
132
116
105
89
78
66
55
44
30
25
24
44
85
161
255
361
460
545
607
652
681
696
705
702
688
675
655
632
610
584
556
528
499
471
444
422
403
388
376
369
361
358
357
362
368
374
375
378
382
382
382
382
378
375
374
367
361
357
355
350
344
338
330
318
311
300
289
282
276
272
284
324
399
499
615
730
821
894
947
979
1002
1010
1015
1012
1002
985
968
947
924
901
879
851
819
785
747
710
675
641
613
586
565
548
535
519
508
497
486
474
458
452
443
437
426
414
408
396
385
374
362
354
344
334
325
314
300
291
284
278
266
255
253
256
280
334
419
522
628
724
807
863
906
930
941
947
947
935
924
908
886
866
845
821
792
760
726
689
654
620
588
560
532
515
505
495
490
484
480
477
471
465
460
450
443
431
424
413
402
395
384
372
361
350
341
331
321
313
301
291
283
276
269
261
250
250
262
297
362
458
565
668
750
819
864
898
917
923
923
913
897
883
862
843
821
794
770
739
705
669
630
594
560
529
505
488
477
467
461
456
450
446
443
437
431
426
416
409
397
391
379
368
361
350
338
327
316
307
297
286
274
263
253
248
238
231
222
212
206
204
204
228
282
369
478
588
688
766
822
862
883
894
900
889
877
862
839
819
798
774
743
713
683
649
620
587
559
531
504
484
467
456
444
437
433
430
429
423
418
412
405
396
391
379
368
361
350
338
327
316
307
297
287
279
267
257
249
238
231
222
212
205
197
191
181
178
187
222
287
378
491
596
692
758
812
845
868
873
874
863
849
828
809
787
760
736
705
679
656
628
594
565
536
509
487
464
450
436
427
420
414
409
399
393
385
378
371
357
348
337
323
306
293
279
267
255
238
225
210
198
183
167
153
136
125
113
98
86
75
64
53
44
42
72
126
204
316
423
518
600
654
692
717
729
730
724
713
696
673
648
624
597
569
535
507
481
454
431
409
391
371
359
352
348
345
348
350
352
357
362
368
369
374
376
378
378
378
374
372
363
352
342
334
327
320
308
293
287
279
272
274
289
335
412
514
624
720
802
866
908
937
951
955
955
947
930
910
887
864
842
819
788
749
713
673
634
599
563
529
501
480
460
446
436
430
429
423
418
408
401
392
386
375
363
357
345
334
323
311
300
289
279
270
259
245
236
225
218
206
195
194
197
221
276
367
480
592
693
777
838
880
908
924
930
930
918
907
891
873
851
828
804
778
751
722
685
649
615
582
556
537
521
509
499
494
488
484
481
475
470
464
454
447
439
433
422
408
399
388
379
369
357
345
335
325
317
306
296
290
284
278
269
259
253
253
267
310
386
488
596
698
781
843
889
917
932
938
938
927
915
900
877
855
832
809
784
756
720
681
645
611
580
548
519
499
484
474
469
463
458
456
450
444
439
429
422
410
403
392
380
369
358
346
335
324
316
306
294
283
272
262
253
246
239
228
216
211
208
204
222
265
344
444
552
654
733
798
845
868
885
891
886
877
862
845
825
802
779
757
730
700
666
637
604
576
552
525
505
488
477
465
458
454
452
450
444
439
433
427
419
412
401
389
382
371
359
348
337
328
318
307
296
284
274
266
255
248
239
229
222
214
208
202
200
221
267
344
450
559
661
743
807
852
879
896
898
896
883
866
845
826
804
777
753
722
688
654
622
590
560
532
505
484
467
454
440
431
424
420
418
408
402
396
391
379
368
361
350
335
323
310
296
280
267
253
238
222
211
200
183
168
153
142
130
115
103
89
81
78
92
132
210
308
416
519
604
666
712
737
751
760
754
739
724
702
679
655
627
599
569
535
501
473
447
420
399
379
365
351
342
335
331
331
335
335
335
335
337
340
340
335
335
327
320
311
306
300
291
284
274
269
263
257
249
238
232
229
225
242
282
357
453
560
662
745
811
857
883
897
904
897
886
870
847
825
802
774
745
717
682
639
603
565
533
505
477
454
437
424
410
403
393
388
382
376
371
361
355
346
340
328
317
310
299
290
280
269
261
250
240
232
221
206
198
191
184
176
174
189
235
314
429
550
658
754
828
883
921
944
955
955
952
938
923
906
883
860
838
811
783
754
722
688
651
615
583
558
535
522
511
501
499
494
488
482
477
471
465
457
446
439
427
420
409
397
391
379
368
357
345
337
327
317
308
297
287
279
267
262
256
246
249
269
314
395
502
611
709
788
853
893
918
934
940
940
930
914
900
879
856
834
811
787
758
726
688
651
615
583
554
531
509
495
484
478
475
471
465
460
458
452
443
433
426
414
408
396
382
374
362
351
340
328
320
310
299
287
276
266
261
250
245
236
225
219
216
229
266
337
437
545
647
739
801
849
879
894
900
904
893
881
866
843
821
798
774
745
713
678
638
607
575
546
522
499
482
467
457
452
446
440
435
433
427
422
412
406
401
395
384
372
365
354
342
331
320
311
301
290
282
272
262
253
242
235
227
216
210
201
195
200
219
267
348
456
569
664
743
802
839
864
874
881
876
862
843
823
802
778
753
726
696
662
632
604
576
543
515
490
471
454
440
433
423
418
416
412
409
403
397
392
386
376
368
361
350
341
331
318
307
297
287
279
267
256
245
238
231
222
212
205
194
187
181
172
170
180
214
276
371
481
594
683
760
815
851
870
879
880
869
853
835
812
790
766
737
709
682
660
637
603
571
543
516
494
475
457
448
437
431
426
416
410
402
395
388
376
365
354
342
331
318
304
289
276
259
246
231
216
204
187
170
153
142
130
115
102
85
72
61
49
38
34
42
68
130
221
331
444
537
611
665
702
730
736
739
730
717
700
679
656
631
607
577
549
522
499
477
450
429
412
395
379
371
361
361
361
361
362
365
365
371
376
378
379
382
382
382
376
369
359
351
344
337
325
314
307
296
289
278
266
263
269
297
348
441
549
658
751
828
887
927
949
964
968
962
951
937
914
896
873
845
819
790
756
717
678
641
603
570
539
509
482
463
446
435
426
416
410
405
399
393
385
378
367
358
348
337
328
318
307
296
284
273
262
250
244
232
221
214
205
200
210
238
297
389
502
615
716
798
857
900
928
938
947
944
934
921
904
883
860
838
815
790
756
726
692
655
620
586
558
535
515
504
497
487
481
480
474
469
458
453
447
441
430
419
412
401
392
382
371
362
352
342
334
327
317
308
297
290
279
267
262
256
250
267
307
382
478
588
692
775
840
891
918
935
942
941
935
921
904
887
866
843
821
798
773
739
705
669
632
599
569
541
518
498
487
480
475
473
467
463
460
454
447
439
433
422
410
399
388
379
369
357
345
335
325
317
306
296
287
276
269
257
246
240
235
229
246
283
352
453
563
666
751
819
866
893
913
921
920
911
896
879
862
840
818
795
768
743
706
671
632
596
560
533
514
497
486
474
467
458
456
454
448
443
433
427
419
412
401
386
378
367
358
348
337
325
314
303
291
280
270
262
250
245
236
225
219
214
208
212
235
293
374
478
586
677
753
811
843
869
879
886
880
870
853
834
811
788
766
739
709
675
645
615
584
560
531
505
488
471
457
450
440
435
433
427
422
416
409
401
395
384
372
365
354
345
335
324
316
306
294
283
276
266
257
246
239
231
221
214
202
195
194
194
216
270
355
458
562
655
730
784
823
845
857
860
853
840
823
802
779
757
730
702
671
641
609
580
556
522
491
458
436
413
395
379
368
357
351
342
331
324
316
310
299
284
276
265
250
238
225
211
200
187
172
161
146
134
123
108
96
81
70
58
47
36
24
21
27
58
115
208
310
416
504
577
628
668
688
696
700
695
683
672
655
637
614
592
569
541
512
488
470
453
437
420
406
395
385
379
378
378
375
374
374
374
374
374
371
369
365
362
361
355
352
348
342
340
331
320
308
297
290
279
267
262
259
267
300
368
471
586
699
798
876
935
981
1002
1016
1023
1021
1013
1002
985
968
947
924
901
874
849
815
781
747
713
679
649
621
603
586
571
560
546
537
526
515
504
488
482
477
471
461
453
441
430
422
412
401
392
382
372
363
352
342
334
323
316
307
301
311
345
403
497
601
700
785
851
900
932
952
964
964
961
951
935
921
900
877
855
832
808
777
743
707
668
637
605
580
556
535
521
509
499
491
484
478
473
467
460
452
441
430
419
412
401
386
378
367
355
344
333
321
310
300
294
284
274
266
259
255
263
293
362
450
556
660
747
811
862
893
913
918
918
913
900
883
866
843
821
798
768
734
696
662
626
586
553
522
497
481
470
458
453
447
441
440
437
433
423
414
403
397
389
374
362
351
340
328
317
306
294
286
276
265
256
246
236
231
225
216
219
242
297
382
488
588
677
751
804
840
857
870
870
866
849
835
815
792
770
747
719
690
658
627
599
565
536
511
488
469
454
446
437
435
433
427
422
416
410
405
399
389
380
369
362
351
335
328
317
306
294
283
276
265
256
246
239
231
221
215
212
233
282
361
467
573
666
751
807
846
870
880
883
879
868
853
832
809
787
764
736
705
671
638
607
573
543
512
488
467
453
441
430
419
416
410
405
399
388
376
365
354
342
331
316
301
289
272
255
238
227
212
195
183
166
153
142
127
110
99
91
85
106
151
229
334
444
539
620
677
722
739
750
756
749
734
713
690
668
645
617
588
556
532
507
480
453
430
408
391
376
365
363
361
357
358
361
361
365
365
365
362
354
348
338
333
327
317
308
301
294
283
272
266
257
250
240
238
255
297
371
463
570
664
743
802
845
870
887
887
883
872
857
836
818
795
768
743
706
671
630
590
556
526
498
475
454
437
424
414
409
399
393
388
378
372
367
361
350
338
331
320
308
297
286
274
263
253
245
233
223
215
204
198
193
195
228
290
386
505
624
722
802
862
904
931
945
951
949
941
925
908
891
870
847
822
794
766
732
692
658
624
594
571
552
539
528
519
514
512
509
505
495
490
480
474
465
450
443
431
420
409
395
386
375
363
352
341
333
323
313
307
297
287
282
289
316
372
454
558
660
747
817
870
904
924
935
938
931
920
908
891
872
849
826
804
781
753
719
679
645
611
582
553
528
514
498
487
484
478
473
467
461
456
446
436
427
416
405
393
378
367
355
344
333
318
306
294
286
276
265
256
246
236
228
221
214
225
263
333
429
539
635
723
790
832
866
879
887
885
874
862
842
819
796
774
747
719
690
654
620
586
552
528
502
484
469
457
450
446
443
441
436
430
424
419
413
403
389
380
369
358
346
331
320
308
297
286
272
263
252
244
233
222
214
204
194
188
183
180
194
233
311
413
526
622
705
768
811
842
853
857
852
840
823
807
785
761
736
709
677
648
620
593
567
543
515
490
471
456
441
433
424
422
420
413
405
399
393
385
374
359
351
340
323
308
293
280
263
246
233
216
204
188
174
157
144
130
119
102
88
81
74
82
119
188
284
395
491
579
645
688
719
730
739
733
722
705
685
662
638
613
582
549
521
484
453
427
399
378
361
348
338
330
327
327
327
327
333
335
340
341
344
344
344
346
348
348
345
335
328
320
314
303
291
284
273
262
250
245
248
272
328
413
518
627
720
794
852
891
917
923
923
913
900
883
862
839
817
790
756
719
679
639
600
560
525
499
475
458
444
429
423
418
412
410
402
395
389
384
378
367
358
348
337
325
314
300
291
280
269
257
242
235
223
216
205
194
191
191
216
263
357
467
586
690
781
849
898
927
942
947
947
938
927
910
887
864
842
819
791
762
730
695
658
624
592
563
539
524
512
505
501
498
488
487
484
480
474
465
458
447
439
429
416
405
395
385
376
365
351
342
331
324
313
301
296
287
280
274
272
289
331
405
501
609
705
785
840
886
913
930
932
930
918
904
887
870
851
828
804
775
747
716
677
637
603
571
539
516
494
480
470
464
463
457
452
446
440
431
424
413
402
395
384
372
361
348
334
323
311
300
289
279
270
259
249
240
229
222
214
208
202
202
225
273
355
463
571
671
751
811
853
879
891
891
887
874
857
836
813
791
768
743
709
679
649
618
586
558
532
509
488
474
463
453
447
446
440
435
429
423
418
412
401
389
382
371
359
348
335
321
310
299
287
276
266
257
246
236
228
216
210
198
191
185
180
183
211
267
352
461
569
671
745
800
836
863
872
874
868
853
836
813
791
764
740
709
679
651
622
599
569
537
509
488
469
454
444
436
429
424
422
416
410
405
399
392
380
374
362
351
340
327
313
301
289
274
259
244
232
221
205
194
178
171
160
144
134
126
127
147
201
284
389
497
594
665
722
760
783
791
790
783
768
747
724
702
675
647
615
586
553
525
497
469
443
424
403
386
374
363
358
357
352
352
344
338
333
327
316
304
297
290
279
267
256
245
233
222
211
200
188
177
166
159
150
140
134
132
132
150
195
272
372
480
582
665
727
773
794
808
815
808
796
777
758
736
709
681
655
628
596
567
539
512
490
467
450
436
424
419
416
408
397
392
391
385
379
374
368
359
352
345
334
327
316
307
297
286
278
267
256
245
233
223
218
208
202
197
200
231
290
382
497
618
722
811
876
925
953
970
976
976
974
959
944
927
904
886
863
836
808
777
747
713
677
645
617
592
569
550
536
531
525
522
518
512
507
501
495
487
475
469
457
446
435
423
416
405
393
382
371
362
352
346
338
327
317
311
306
301
313
340
405
492
594
692
777
840
887
918
942
948
951
947
934
920
904
881
859
836
813
791
760
726
692
654
620
586
560
537
518
497
486
474
463
461
456
450
440
435
424
418
406
395
388
376
365
354
340
331
320
308
297
286
278
267
257
249
242
232
223
212
208
208
216
265
338
433
543
645
726
792
835
866
881
887
883
872
857
840
818
795
773
745
717
683
655
624
594
566
535
509
492
475
463
456
447
441
440
437
433
423
418
408
402
393
382
375
363
357
345
334
327
316
304
293
282
273
263
257
249
238
228
222
212
206
201
195
210
244
306
401
511
611
696
761
811
838
852
862
859
847
832
813
791
768
745
720
692
662
634
607
584
556
531
504
484
463
450
439
433
431
426
420
414
409
403
397
389
378
371
359
348
337
323
314
303
291
280
269
261
250
240
232
221
211
205
200
194
188
178
177
183
212
276
367
467
571
662
734
788
822
845
855
855
845
832
815
794
771
745
722
693
665
637
613
587
565
542
516
492
475
461
450
444
439
433
429
426
420
414
409
399
392
380
369
358
346
335
324
310
297
284
270
259
246
232
221
205
194
183
167
155
140
129
120
115
120
149
212
299
403
505
590
658
709
736
753
760
758
750
734
712
689
662
638
613
586
552
518
492
465
443
420
402
385
374
368
365
361
361
363
365
369
369
374
374
371
365
363
355
348
341
333
327
316
307
301
291
286
276
266
257
246
242
242
255
304
380
475
584
683
760
822
864
891
907
913
908
896
879
862
839
817
790
762
734
696
661
621
582
545
516
492
471
454
437
430
422
416
410
408
403
393
388
382
375
367
357
350
338
327
316
304
297
286
278
267
256
248
238
232
223
216
208
214
233
289
376
488
600
702
790
853
901
930
945
953
955
947
932
921
898
876
853
830
808
781
753
722
688
654
622
594
570
545
531
516
511
509
502
497
492
487
484
475
465
457
446
440
431
416
409
397
391
379
368
361
350
341
331
324
316
306
300
291
284
289
311
361
444
543
649
737
808
862
903
928
934
938
932
921
908
891
870
847
825
802
778
747
713
675
641
603
573
545
518
497
480
475
470
464
463
457
452
446
440
431
420
410
402
391
384
372
357
350
338
331
320
306
297
290
282
272
265
256
246
240
235
233
253
301
378
477
579
679
751
811
853
874
889
891
885
873
857
839
817
794
771
745
717
688
651
615
583
554
522
501
484
471
460
448
446
441
439
437
431
426
420
414
406
395
385
376
365
358
346
331
324
313
306
294
283
276
265
256
246
235
227
221
215
206
200
191
188
195
233
301
391
502
604
692
757
808
836
855
860
857
846
832
815
792
770
747
719
688
662
635
610
582
553
525
497
475
456
441
430
422
416
409
403
399
393
385
374
363
355
344
328
317
301
290
276
259
248
233
221
205
191
178
161
147
136
123
109
93
79
71
55
44
32
17
20
37
76
151
253
365
464
546
615
655
683
700
702
702
688
671
651
628
605
583
552
522
494
471
447
419
399
382
365
352
346
344
344
345
351
357
367
372
378
382
385
386
386
386
386
385
379
378
374
371
361
350
341
331
321
313
301
291
283
280
283
308
357
454
562
666
762
842
896
937
959
972
976
974
964
947
927
904
881
859
832
805
774
734
699
662
624
592
560
535
514
497
480
467
456
446
440
435
429
423
414
408
396
385
374
367
355
348
337
323
314
303
291
280
269
261
250
240
235
225
215
210
200
195
195
208
256
330
433
550
664
751
825
876
913
934
942
942
931
920
904
883
863
840
813
788
756
726
692
654
620
583
556
537
521
509
498
492
488
487
484
480
471
469
463
456
447
437
430
419
412
401
389
382
371
359
348
341
333
323
313
304
293
283
278
267
262
256
246
245
248
276
330
414
518
621
709
785
839
873
896
906
908
900
889
874
853
835
812
790
766
740
713
678
638
603
569
537
514
497
482
471
465
463
458
454
452
446
441
436
424
419
410
403
392
380
374
362
354
344
333
321
310
300
291
280
270
265
255
249
240
229
223
215
208
211
225
267
342
441
552
648
730
798
840
869
879
887
885
874
857
838
815
792
770
743
715
683
654
621
593
560
533
511
492
475
461
454
444
439
437
433
430
424
423
418
412
402
393
386
375
367
357
345
337
327
317
308
297
287
279
272
265
256
246
239
231
225
219
211
212
229
272
344
447
552
649
727
792
836
864
876
879
880
866
849
830
808
785
761
733
705
675
644
611
582
550
522
499
477
458
444
436
429
424
422
412
410
405
399
389
380
369
358
346
335
323
308
293
280
266
250
235
223
212
197
183
166
154
143
127
116
102
89
78
66
55
58
83
132
219
324
429
528
601
654
692
717
730
729
720
709
688
668
645
622
597
569
535
507
480
457
435
412
392
378
365
355
350
344
344
344
348
350
355
357
357
359
361
362
365
365
367
367
361
351
345
340
333
321
310
303
294
289
279
270
272
289
337
412
515
620
717
794
856
896
924
935
938
937
925
908
891
872
849
825
796
768
737
698
658
622
586
552
519
494
471
452
440
433
427
422
416
414
409
403
396
385
378
371
362
352
340
328
318
307
296
284
274
266
255
245
236
221
215
206
200
202
216
259
331
436
548
660
750
823
872
906
925
938
938
934
923
908
887
870
851
828
804
775
747
717
683
649
615
584
560
543
529
518
509
507
505
499
494
488
482
477
471
464
453
446
435
426
416
405
396
386
376
368
357
346
338
327
321
316
306
299
290
284
279
282
310
363
452
556
658
749
823
876
913
938
951
951
947
935
921
900
881
859
836
813
788
764
733
693
658
624
593
560
539
519
501
486
474
471
467
464
454
448
443
437
427
419
412
401
389
378
367
355
344
334
325
314
300
291
280
274
266
255
248
239
233
223
218
221
240
294
374
478
586
683
758
815
853
880
889
891
889
874
857
839
817
794
770
741
713
682
645
615
586
558
531
508
488
475
461
453
446
441
439
433
431
429
424
414
406
399
389
384
374
361
350
340
330
321
310
300
291
280
274
269
259
252
244
238
228
222
225
249
303
382
486
587
683
758
815
853
876
885
887
880
866
849
826
804
781
758
733
705
675
638
599
569
537
509
487
464
446
427
419
412
405
396
386
380
372
365
354
342
331
320
306
293
280
266
250
238
221
208
193
178
161
146
134
119
106
92
76
65
54
47
40
54
85
161
257
365
465
553
615
665
690
705
713
710
700
688
668
645
621
593
565
535
501
475
447
422
399
378
361
348
338
333
331
327
330
340
341
346
352
358
363
365
365
365
365
363
361
357
355
346
335
325
317
306
299
287
276
270
273
293
341
423
526
632
732
815
872
914
942
953
959
955
944
930
908
890
868
845
821
790
756
717
681
645
607
573
539
512
490
471
456
447
441
433
430
424
419
413
403
396
385
378
367
355
348
337
325
314
301
290
280
270
262
250
240
232
221
215
210
208
235
289
369
482
599
700
785
845
891
918
932
942
937
928
913
896
876
853
830
808
781
753
722
688
654
620
590
559
536
518
507
498
492
491
486
480
474
469
463
457
448
437
430
419
408
396
385
378
367
355
344
333
324
314
304
296
284
274
269
259
253
248
238
239
253
297
372
474
582
681
762
828
872
900
917
923
923
913
897
883
862
839
817
790
761
730
696
658
621
590
559
536
514
501
490
480
478
475
471
465
460
458
454
448
437
431
423
416
405
393
386
375
363
352
341
333
323
313
304
293
283
274
267
261
252
242
235
227
221
225
245
293
374
478
586
681
757
815
852
877
887
886
880
870
852
832
811
787
761
739
710
679
645
611
580
552
524
498
480
463
448
441
433
430
429
423
418
412
406
401
395
384
372
365
354
345
335
323
311
301
291
283
272
262
253
242
235
227
216
210
201
195
185
177
170
166
174
195
259
344
454
565
661
734
794
828
853
862
862
853
842
825
802
778
750
726
696
665
641
613
587
565
542
519
492
473
458
446
436
430
420
414
412
408
402
393
386
375
363
352
340
325
314
301
287
276
261
249
233
218
206
191
180
166
149
137
123
110
99
88
81
78
95
136
214
313
420
521
597
658
700
729
747
747
741
730
713
693
671
648
622
594
559
528
501
477
452
424
405
391
374
363
358
352
352
352
357
358
363
369
374
376
378
379
379
374
368
362
352
342
334
327
320
308
297
290
279
272
262
256
263
291
351
437
542
647
739
809
863
896
918
927
930
923
908
891
873
851
828
804
773
743
707
668
624
588
552
518
491
469
454
440
435
429
424
422
412
410
405
399
392
380
374
362
354
348
335
324
314
303
291
280
270
262
250
244
235
225
218
212
221
250
307
399
512
622
726
804
863
904
924
935
942
937
928
913
894
874
853
830
808
781
753
722
688
654
620
586
558
537
522
512
507
501
497
494
488
484
481
471
464
456
450
439
427
420
409
397
386
375
363
352
342
337
327
317
308
297
290
282
272
266
263
280
323
396
492
599
695
777
838
880
908
920
925
925
914
903
887
869
846
823
801
778
751
716
677
641
607
576
548
519
499
488
482
480
475
471
469
467
461
456
446
440
431
424
413
399
391
379
365
352
340
328
318
307
296
284
274
269
259
252
244
233
227
221
221
244
291
374
474
582
679
756
812
853
874
886
891
885
873
857
839
817
794
771
745
717
686
647
615
587
559
531
508
491
475
464
456
450
446
443
441
436
430
420
414
409
403
392
380
369
358
350
340
327
316
306
296
287
276
266
257
246
240
232
221
215
210
204
215
249
318
409
516
624
707
773
823
855
872
879
877
869
853
835
812
790
767
741
713
688
654
624
594
563
535
507
484
467
450
436
429
419
413
408
402
396
386
379
368
357
345
334
323
307
293
280
267
253
238
225
208
195
180
166
153
137
126
110
99
88
76
66
70
98
157
248
352
454
542
615
660
693
713
722
719
709
695
675
654
631
609
582
556
522
492
461
436
412
389
372
357
346
341
335
335
335
335
341
346
352
354
357
361
361
363
365
361
361
361
350
341
331
324
313
306
296
287
276
272
272
284
340
419
522
631
727
802
864
904
930
937
942
938
925
908
891
869
846
823
796
768
734
695
655
615
577
543
514
482
463
441
430
422
416
414
409
403
397
392
386
379
368
357
350
338
327
316
304
297
286
274
263
252
244
233
223
215
208
201
212
250
324
423
543
645
741
819
872
911
930
942
942
938
925
911
896
873
851
823
800
771
739
705
671
632
603
571
548
528
514
505
501
498
497
491
486
480
478
473
463
453
444
433
426
414
403
392
380
374
362
351
344
333
324
318
307
299
293
283
280
280
300
351
433
532
634
734
802
859
900
921
935
938
931
920
904
886
866
845
821
795
773
740
712
679
641
607
573
545
519
501
486
471
467
463
460
458
452
443
437
431
423
412
402
393
382
371
359
348
337
325
314
303
291
284
273
265
259
248
239
229
223
215
208
219
253
314
410
521
628
712
779
832
863
883
887
886
877
862
843
821
798
775
753
726
692
658
628
599
567
535
512
490
471
461
453
446
441
439
437
431
426
420
414
409
399
389
380
369
362
351
335
328
317
310
299
287
280
270
265
255
244
235
229
219
214
208
206
227
276
355
457
565
652
726
781
821
843
853
856
847
836
819
800
777
754
732
705
678
655
628
599
567
535
511
486
467
452
437
429
423
418
416
409
401
395
389
380
369
354
342
331
316
304
289
276
262
246
233
216
204
191
174
161
149
134
119
106
92
85
78
89
123
191
284
391
486
565
628
669
698
709
717
712
700
683
666
645
622
600
573
541
509
480
453
427
399
382
365
348
338
330
327
327
327
331
337
340
344
345
348
352
352
352
352
352
350
340
333
321
314
303
291
284
273
262
250
245
245
263
314
393
492
601
698
781
839
879
908
920
925
917
904
887
870
847
825
802
773
739
705
665
626
586
548
514
488
470
453
437
430
422
416
414
409
408
402
396
386
379
371
361
350
338
327
317
308
297
282
270
259
248
236
229
218
206
200
191
197
216
278
368
480
596
698
781
847
890
917
931
937
938
931
917
900
881
859
836
813
788
760
726
692
658
624
590
565
545
533
522
516
511
505
504
501
497
491
482
475
469
460
450
439
430
420
409
397
386
376
368
357
345
334
323
317
308
301
291
283
276
272
278
297
362
447
548
652
745
815
870
901
925
934
937
930
918
904
887
866
846
823
801
775
751
716
679
645
613
582
552
526
509
497
487
481
475
474
471
467
461
453
446
435
426
416
405
393
382
371
359
348
337
325
314
307
296
284
278
266
259
248
236
229
222
214
204
198
198
212
262
338
441
556
655
739
798
840
874
881
887
887
876
862
845
822
800
777
751
723
696
664
635
607
575
546
522
504
487
471
464
458
454
453
447
446
440
435
429
418
409
403
392
380
369
359
351
340
328
317
306
294
286
280
269
257
250
240
235
225
218
210
200
204
223
276
357
461
573
668
747
811
843
869
883
883
877
866
847
825
802
779
757
730
702
671
641
609
577
552
525
502
480
467
453
446
440
435
433
429
426
424
418
409
399
393
385
374
363
355
344
333
321
310
303
291
280
269
257
250
244
235
229
218
210
200
194
194
212
256
333
433
541
639
726
783
828
857
868
873
870
857
838
815
792
770
743
719
690
662
638
607
573
545
516
488
467
447
429
418
406
399
389
384
378
371
362
352
342
334
323
307
296
280
265
253
238
225
211
195
180
166
153
140
123
110
98
83
72
61
49
42
37
51
89
159
255
365
460
545
611
658
689
700
709
706
696
679
662
641
617
592
569
536
505
480
453
433
412
395
380
374
368
365
369
375
380
386
393
399
403
403
403
403
399
399
399
395
392
386
385
376
365
355
346
340
328
320
310
303
297
306
340
399
492
604
712
807
879
935
976
993
1004
1010
1003
992
976
958
938
917
893
868
840
807
773
739
700
666
632
604
579
556
539
525
509
498
487
480
469
454
441
435
426
416
406
397
386
372
363
352
341
330
318
311
300
293
282
270
263
256
248
246
249
278
327
420
528
632
727
801
853
890
913
930
930
924
913
900
883
862
843
821
798
770
739
705
669
632
599
566
541
518
507
495
484
482
480
475
474
469
463
456
447
441
430
422
412
402
393
382
368
359
348
341
330
318
311
300
293
283
274
267
256
248
242
239
256
293
367
465
573
675
757
819
862
890
908
908
906
896
879
862
840
818
795
773
749
720
688
648
611
577
546
524
501
486
474
463
457
454
450
448
443
437
431
426
420
409
401
391
379
368
357
346
338
327
316
304
289
282
270
263
252
240
233
227
218
208
201
193
187
191
216
272
358
465
577
677
753
815
847
870
883
883
877
866
847
825
802
778
753
726
698
672
641
609
577
548
521
495
471
460
448
441
436
430
429
423
418
416
409
401
395
385
379
369
359
351
340
333
321
306
299
287
280
273
262
255
248
239
233
227
218
212
206
204
208
232
286
374
482
590
692
760
817
853
873
885
883
876
862
840
822
800
773
749
723
692
660
628
594
565
533
501
478
456
437
422
410
403
393
388
382
375
367
357
346
338
327
316
304
293
278
266
250
238
223
208
193
178
166
154
140
127
115
100
89
76
62
51
42
48
68
123
205
310
416
512
590
647
686
705
717
720
713
700
683
662
639
617
590
558
526
501
478
453
429
412
397
386
376
374
374
378
380
386
393
402
408
408
408
408
408
405
403
397
392
386
379
368
361
350
338
331
320
311
301
296
296
306
351
424
522
632
734
819
885
932
968
979
985
989
981
964
947
928
906
883
859
830
802
767
727
688
649
615
586
559
533
509
497
482
471
460
448
446
440
435
429
422
413
403
393
385
374
363
355
344
333
321
310
303
291
284
274
266
259
250
248
250
287
355
446
558
662
751
828
876
908
928
937
938
932
921
904
886
863
840
818
792
768
733
696
662
627
590
560
529
507
492
486
477
471
470
467
463
461
453
446
436
430
420
408
396
386
375
363
352
341
330
318
311
300
289
282
273
267
256
245
242
242
267
314
403
508
615
709
785
840
880
903
913
917
911
896
883
863
840
818
795
773
744
713
679
639
603
569
541
515
497
482
474
471
467
464
458
453
450
446
440
431
424
413
402
391
379
368
357
345
334
323
313
304
293
282
270
259
253
245
238
228
219
212
211
228
267
345
447
556
654
736
798
846
869
883
891
886
870
857
838
815
792
767
739
709
678
645
611
580
552
524
498
480
464
453
446
441
439
433
431
429
424
419
410
403
393
388
378
367
355
344
334
325
314
300
291
280
273
262
250
245
236
229
222
211
204
202
219
255
333
431
539
637
719
781
830
856
870
874
872
862
847
825
802
779
754
730
700
669
645
611
580
552
528
502
480
460
448
437
431
426
420
414
409
403
396
385
378
367
352
340
327
313
301
289
272
259
244
232
216
201
189
174
161
147
132
120
106
93
83
78
76
106
160
238
345
450
543
620
671
705
724
733
734
727
713
696
673
651
628
600
571
543
509
481
454
431
409
391
376
368
361
357
357
361
362
371
378
384
389
395
399
399
399
399
396
386
376
371
361
346
341
331
320
308
297
290
282
276
294
337
416
516
624
726
809
874
921
947
961
968
966
958
942
924
901
879
856
830
802
767
727
692
652
613
577
543
515
492
471
454
441
429
426
424
419
413
403
397
392
382
372
363
357
345
334
323
311
303
293
287
279
267
257
249
242
236
231
229
256
310
395
508
621
722
807
866
913
940
953
959
957
945
930
913
893
870
847
825
798
770
739
700
666
630
599
571
549
526
509
498
492
491
488
484
478
473
467
460
448
437
430
419
408
396
385
374
362
354
344
333
324
314
304
299
289
279
273
272
282
316
374
470
571
675
760
828
870
901
918
925
927
915
904
886
863
845
822
796
773
747
713
675
639
603
573
541
509
488
473
464
458
453
450
446
444
439
433
423
418
408
396
385
374
362
351
340
328
317
306
294
286
276
265
256
246
240
232
225
218
229
263
333
429
535
635
723
790
832
866
879
887
885
874
857
838
815
792
770
743
710
679
645
611
577
543
515
490
471
452
437
429
423
418
416
410
405
399
393
385
378
367
355
344
333
321
306
299
287
272
261
249
238
227
218
208
201
193
183
172
170
166
184
229
310
410
518
620
693
756
798
819
834
836
829
815
798
779
757
730
707
682
649
618
593
569
542
516
492
475
456
437
422
408
399
389
384
378
367
358
352
340
325
314
299
287
276
259
245
229
216
200
183
170
153
140
127
110
98
85
71
59
49
47
59
93
164
259
367
465
556
613
658
688
702
707
705
696
679
658
635
613
590
566
535
505
482
457
433
416
402
386
380
378
378
378
384
386
391
393
395
399
399
395
393
391
386
380
375
369
362
351
335
328
317
310
299
287
280
276
282
306
371
461
569
678
771
845
904
938
959
969
975
968
961
944
925
903
880
857
829
798
760
720
683
649
615
582
552
521
501
484
469
460
454
448
446
441
435
423
416
409
397
386
375
363
352
341
330
318
304
296
284
273
262
250
244
232
225
227
240
284
361
463
573
675
760
828
870
898
913
921
918
908
891
874
853
830
808
785
760
726
692
656
617
582
553
528
509
494
482
475
467
464
463
457
452
441
436
427
420
409
397
386
375
363
352
341
330
318
307
296
284
274
266
259
252
240
229
222
214
208
208
216
259
331
436
548
654
741
811
855
886
900
907
901
891
879
862
840
817
791
768
739
705
671
634
605
573
545
519
501
490
478
471
463
460
458
457
452
446
440
431
424
418
403
395
384
372
361
348
334
323
311
300
289
279
270
259
252
240
229
223
215
208
202
202
225
279
367
475
583
679
760
813
853
879
891
891
887
874
857
836
818
795
768
743
709
679
645
614
586
556
528
509
488
474
463
454
452
450
446
443
437
436
427
420
413
402
395
384
375
365
352
341
331
321
313
301
291
283
272
265
253
242
236
231
225
215
206
204
221
263
335
440
548
649
732
796
840
869
880
883
880
866
849
830
808
785
762
737
709
679
648
615
586
554
526
504
481
467
453
444
437
433
430
424
423
418
412
405
393
386
375
361
348
337
325
314
297
283
272
256
242
229
212
198
183
171
160
144
133
119
106
98
98
110
160
239
340
450
546
628
688
722
743
751
751
743
730
710
688
665
639
611
583
554
531
501
473
446
424
405
386
372
363
361
357
354
357
358
361
365
365
365
361
354
345
340
328
320
310
304
299
289
279
273
267
263
257
246
240
238
233
245
279
344
433
535
632
717
783
828
855
872
879
877
869
853
830
808
785
761
733
705
671
634
599
560
526
497
470
450
433
418
406
399
391
388
382
378
375
365
359
354
348
337
325
318
307
299
289
276
265
255
245
236
225
214
202
195
189
187
195
245
321
424
548
664
751
826
883
921
942
951
955
948
937
921
903
883
862
839
813
785
756
722
683
649
615
586
563
543
531
524
515
509
508
505
501
492
490
480
474
465
454
447
436
424
413
402
395
384
375
365
354
345
335
325
317
310
300
291
289
291
317
365
456
554
658
745
822
870
906
925
934
938
935
925
908
891
874
852
829
807
784
756
722
688
654
620
587
559
535
518
501
484
478
475
471
470
464
454
444
439
429
418
406
395
384
372
361
350
338
327
316
304
293
282
273
263
253
245
238
228
219
212
210
229
272
359
464
573
671
753
811
851
870
883
886
880
870
853
834
811
788
762
739
710
679
645
617
586
556
532
507
492
477
465
458
453
450
446
444
441
437
427
422
412
405
393
382
375
363
352
341
330
318
307
299
289
278
269
259
249
240
233
223
215
204
198
193
187
202
245
314
414
528
628
717
783
832
859
873
879
872
860
845
826
804
781
758
733
705
682
654
624
594
560
535
508
488
475
463
452
446
444
441
437
433
430
424
419
410
399
393
385
374
362
351
344
333
321
310
299
290
280
270
262
255
245
239
229
223
218
208
210
223
263
337
436
543
647
729
794
834
862
879
880
877
862
846
829
807
784
758
730
702
671
641
611
577
548
519
494
471
454
440
429
423
418
412
403
401
391
385
376
365
354
342
327
316
301
289
276
259
246
229
215
204
191
174
161
146
134
123
108
96
81
79
88
123
188
284
386
490
571
641
685
713
730
732
732
717
700
683
662
639
614
586
558
526
492
469
440
416
397
378
361
350
344
340
341
344
348
354
359
361
365
365
369
369
369
369
369
363
357
345
337
327
320
311
301
291
283
276
269
278
310
376
467
577
678
766
836
883
917
934
942
942
934
917
897
879
856
834
807
774
743
705
665
626
586
552
518
488
465
443
433
424
422
420
413
408
403
397
392
382
372
367
357
350
338
327
316
304
297
286
274
267
256
248
238
231
225
221
242
287
369
480
596
700
788
856
908
935
952
964
962
953
942
925
906
883
860
838
811
787
756
722
683
649
620
592
566
543
526
518
514
508
505
501
497
494
488
481
473
463
453
444
433
422
410
399
392
380
369
362
351
344
337
325
318
310
307
310
345
405
492
594
690
773
839
885
913
928
937
934
927
913
896
874
855
832
809
787
760
726
692
654
620
586
556
525
505
488
473
461
446
444
441
437
431
423
416
405
396
386
374
362
352
340
325
314
300
291
280
269
257
246
239
231
225
215
206
212
242
304
391
498
600
692
756
804
836
855
860
857
846
832
811
792
770
747
723
695
671
645
614
582
552
524
501
480
463
450
440
435
433
429
426
420
414
409
403
396
385
378
367
355
344
331
320
310
299
287
276
266
257
246
239
231
221
214
208
208
227
274
357
457
565
658
736
792
832
852
860
866
859
847
828
805
783
760
736
710
683
660
628
599
566
537
514
487
470
454
444
439
433
424
422
416
410
405
395
384
372
361
350
335
323
310
293
276
263
249
233
216
202
187
171
160
144
129
117
102
95
89
93
125
187
280
389
494
586
648
696
726
741
747
743
732
715
692
669
647
620
592
560
531
507
475
450
427
405
386
374
362
352
351
348
348
352
355
357
361
361
361
361
358
352
341
330
323
316
307
301
294
286
276
270
265
255
245
236
233
242
273
327
419
521
624
710
781
828
859
876
883
885
873
857
836
817
794
767
741
709
669
632
594
565
533
505
481
456
441
430
419
412
406
401
395
393
391
386
376
371
361
354
342
331
324
313
301
290
279
267
256
248
238
227
218
208
198
193
187
193
223
284
385
498
620
715
794
857
900
928
938
947
944
934
917
900
883
860
838
811
784
758
726
688
654
620
592
566
548
536
525
518
514
511
509
507
501
497
491
482
475
465
457
446
435
423
412
405
393
382
371
359
352
341
333
323
311
303
297
287
282
276
276
299
348
431
533
641
729
802
857
897
920
930
934
928
917
900
883
866
843
821
798
770
741
709
671
637
599
569
541
518
498
487
480
475
473
471
465
460
454
448
443
433
423
414
403
392
380
369
362
351
340
328
314
306
294
286
276
269
261
250
240
235
225
216
216
225
265
335
433
541
643
730
792
838
866
879
881
883
870
856
840
818
795
768
745
720
688
654
622
590
562
536
509
488
471
463
453
447
446
440
437
433
431
426
416
406
401
391
379
368
357
350
338
327
316
304
293
282
273
263
256
248
238
228
222
212
202
194
187
184
201
233
308
405
514
617
705
768
815
843
857
862
859
849
832
812
790
767
741
717
689
661
632
609
580
552
524
495
475
458
444
433
422
413
408
406
401
395
385
376
365
354
342
331
318
304
289
276
259
246
233
216
204
187
172
161
149
134
123
108
96
85
70
58
47
54
76
127
212
317
420
516
590
649
683
706
722
720
712
696
678
655
632
610
582
548
519
494
471
447
422
403
386
369
357
351
348
348
348
351
357
362
368
369
374
376
382
382
382
382
379
368
361
350
341
331
320
311
301
291
283
276
269
278
306
372
463
573
675
766
836
885
921
938
947
947
942
925
908
891
869
846
819
791
760
722
682
643
603
573
539
509
486
460
450
440
435
433
427
422
416
410
405
395
385
379
369
362
351
335
328
317
306
294
283
276
265
256
246
233
222
216
211
211
233
283
371
480
593
695
785
842
887
917
931
