863
860
850
834
816
794
773
752
726
696
666
634
599
570
538
509
480
457
437
424
417
409
409
409
416
424
429
435
435
429
419
408
397
387
376
365
353
339
329
317
303
293
278
267
257
242
229
213
202
189
173
162
148
136
126
115
104
92
82
72
62
54
48
40
43
64
124
226
361
514
647
754
828
876
895
907
909
903
887
873
855
833
812
786
760
730
706
679
652
622
595
571
546
526
509
497
489
487
485
487
489
489
488
485
481
472
464
453
443
432
421
415
404
397
387
373
365
355
344
333
321
310
301
289
275
265
251
243
233
218
207
193
186
175
168
166
179
233
321
452
594
721
820
895
933
957
967
969
964
955
939
920
899
877
856
830
802
768
730
688
644
602
563
526
493
473
460
449
441
441
441
441
439
433
427
416
409
399
385
373
363
352
337
325
311
301
289
275
265
250
239
229
214
203
189
178
167
152
142
131
120
110
102
92
86
83
100
150
238
369
516
652
762
838
887
919
925
931
923
911
895
879
861
840
818
790
761
730
702
670
634
598
566
538
512
493
477
471
465
461
461
461
461
457
455
449
443
432
421
409
396
385
371
360
349
333
319
305
294
281
265
249
233
221
210
197
181
168
155
144
128
115
104
92
95
116
177
275
401
534
651
742
801
838
855
863
860
850
834
818
798
777
756
730
700
670
634
602
567
530
501
472
449
428
407
393
384
379
377
372
369
369
369
367
361
352
347
337
330
319
309
303
295
289
283
275
269
263
258
253
242
234
225
215
210
213
238
302
405
531
659
778
846
900
931
944
944
935
923
907
887
865
844
818
796
769
738
700
656
614
571
531
493
465
439
421
408
400
397
397
395
393
387
379
369
359
348
337
326
315
305
294
283
273
266
255
245
234
223
213
202
191
181
174
171
189
255
363
501
650
776
871
935
975
1003
1004
1007
999
987
971
955
933
912
891
868
841
814
782
745
706
666
631
598
568
550
530
523
515
509
508
503
501
500
495
489
479
471
461
449
436
425
411
400
389
375
361
345
334
323
309
294
281
269
253
237
225
218
221
249
330
445
578
713
814
887
931
955
967
961
953
939
927
908
891
873
852
830
809
785
758
720
676
638
598
566
538
512
496
481
475
469
465
464
459
453
447
436
425
409
396
381
365
352
337
318
307
293
277
263
249
237
221
205
194
181
168
154
140
128
116
103
88
79
76
88
135
231
369
515
648
762
820
863
883
888
885
875
853
832
810
786
760
734
708
678
642
607
580
550
522
492
469
449
436
425
420
417
417
421
424
425
424
419
413
408
400
389
375
361
349
334
323
309
302
289
273
262
249
237
225
209
193
181
167
156
147
139
128
115
107
96
92
111
152
257
388
530
656
758
822
864
880
887
888
877
867
850
832
810
785
761
734
702
672
642
610
578
546
515
485
461
447
439
433
429
429
429
429
427
421
412
404
393
379
365
349
337
323
309
290
277
265
249
233
217
205
191
177
164
151
140
130
119
108
98
90
80
88
118
181
295
440
582
704
794
859
889
903
907
900
887
871
849
828
806
785
761
730
702
670
638
610
578
550
520
501
485
475
469
469
471
473
473
477
475
473
467
456
445
435
424
409
399
385
373
363
349
333
321
307
297
281
267
257
242
231
217
202
191
181
170
159
144
135
127
124
143
199
293
431
572
702
793
857
895
911
913
907
893
872
850
828
801
774
752
722
690
654
619
582
544
509
477
452
431
413
400
395
393
389
389
389
388
380
373
363
349
337
326
313
297
281
267
253
237
221
205
190
177
160
143
124
108
96
78
60
44
28
16
4
2
0
0
0
0
0
0
0
35
144
281
417
532
626
678
713
730
740
740
734
726
710
690
668
647
622
594
559
530
497
465
441
420
401
385
380
377
377
379
387
393
397
400
401
401
401
397
396
391
385
380
375
373
368
363
357
352
344
333
322
309
297
286
278
269
266
285
333
433
559
698
826
917
983
1013
1021
1023
1023
1023
1023
1015
996
975
953
929
907
880
850
818
781
741
702
663
634
610
588
572
558
551
546
542
535
522
509
497
481
465
448
429
409
389
376
365
351
337
325
309
295
281
269
253
237
226
213
201
190
177
160
148
138
128
124
135
181
270
407
554
688
789
867
903
924
935
932
919
907
889
868
846
824
800
778
746
714
682
646
614
582
552
528
505
495
487
481
481
484
485
489
487
481
471
463
453
437
424
413
399
385
373
357
341
325
314
301
285
270
257
245
230
217
205
189
175
164
148
135
124
110
99
88
74
63
48
43
51
88
166
294
445
590
705
794
845
872
887
884
873
859
837
813
790
765
741
710
682
655
630
602
570
542
512
491
469
452
436
425
424
421
417
417
415
413
407
396
385
379
368
353
343
329
317
302
289
277
265
251
241
229
215
205
190
179
168
152
139
124
114
103
88
78
64
56
46
35
24
18
15
28
80
177
313
471
612
726
801
846
879
884
884
875
855
836
814
788
761
734
706
674
642
619
590
558
528
504
481
467
459
449
444
441
441
441
441
441
437
435
425
415
404
393
383
369
357
343
331
317
302
291
277
266
253
237
226
213
201
190
177
164
154
143
132
122
111
100
87
79
76
86
123
189
318
460
602
722
813
867
896
912
915
907
891
871
848
824
798
772
745
718
693
666
634
600
566
530
499
472
457
443
435
433
429
429
433
433
433
429
424
416
409
403
392
377
371
360
345
334
323
313
302
289
277
265
254
245
233
219
209
194
183
173
158
147
136
130
124
128
166
243
365
505
642
758
836
887
919
928
931
923
905
884
863
841
817
786
760
730
698
663
620
582
546
514
481
455
433
417
408
403
397
393
393
393
388
383
373
367
356
341
330
317
305
293
277
265
249
235
225
209
195
181
166
152
140
124
111
96
84
71
56
46
32
28
34
68
136
253
387
522
632
716
770
801
812
814
808
794
778
756
732
706
674
642
610
578
543
505
473
444
413
388
367
353
339
334
333
334
343
353
359
367
373
372
367
361
357
355
349
343
334
329
323
315
309
299
291
281
274
263
253
242
231
221
211
209
233
290
387
514
648
766
855
909
941
955
961
956
943
921
900
879
856
829
802
774
742
710
667
622
578
540
508
477
456
435
421
408
403
401
397
397
397
392
387
381
371
360
353
343
331
321
310
299
289
278
267
257
242
231
221
206
195
181
181
191
229
314
443
590
729
838
919
965
992
1003
1001
993
979
959
940
919
893
872
846
824
797
766
729
689
654
618
586
558
536
523
514
508
505
501
493
493
493
487
476
465
455
444
429
417
401
389
377
361
349
337
323
309
297
283
269
254
243
233
217
203
189
189
199
245
335
467
606
733
829
899
936
957
963
956
945
931
911
892
871
845
824
802
776
749
718
676
636
598
562
532
509
489
479
473
475
477
481
481
479
469
463
452
437
425
409
393
377
361
349
333
317
305
289
275
261
249
233
217
202
191
181
166
152
136
130
122
120
147
214
329
471
612
734
817
871
899
913
916
907
891
875
855
833
809
782
756
726
698
664
627
594
558
526
493
467
448
433
428
425
421
417
417
413
408
400
389
379
365
349
333
317
305
289
273
257
241
225
209
193
177
160
140
124
108
91
75
60
44
28
12
3
0
0
0
0
0
0
0
8
76
194
341
480
584
666
714
741
758
758
753
742
726
708
686
660
636
610
572
540
514
483
456
429
411
400
393
389
389
397
404
415
421
427
432
433
433
431
429
423
415
409
404
399
393
384
376
365
355
341
325
314
303
289
278
265
253
246
262
301
396
522
666
800
907
979
1023
1023
1023
1023
1023
1023
1023
1017
999
976
952
931
903
871
838
800
760
722
686
654
626
607
596
594
590
587
582
576
568
558
546
527
514
496
475
453
436
415
397
385
369
357
343
329
313
298
287
273
261
247
233
218
205
193
182
171
168
194
258
361
509
651
770
865
921
959
973
981
975
968
955
939
917
896
875
853
829
806
769
734
698
656
622
590
560
542
526
516
511
514
515
518
518
515
504
497
487
473
457
441
428
417
401
385
369
355
341
325
309
293
277
265
249
233
218
205
193
178
164
148
136
123
108
98
87
80
90
135
225
359
503
646
741
813
859
877
885
883
873
855
834
812
788
762
740
710
682
659
632
602
574
542
505
484
463
449
440
435
433
433
433
433
427
419
413
401
388
373
359
348
329
313
299
285
273
257
241
226
213
201
186
173
160
144
131
120
110
99
88
78
67
56
46
35
24
27
48
104
211
356
509
646
748
822
864
885
895
892
879
863
841
820
798
773
746
714
688
655
622
591
562
534
512
496
485
480
477
473
479
481
485
489
487
481
475
464
453
443
432
417
407
393
381
367
353
337
325
311
297
285
269
257
242
231
221
205
191
181
170
159
144
134
120
116
118
150
217
339
484
626
738
824
879
913
924
927
920
907
887
865
844
818
796
766
738
710
672
630
592
558
522
491
467
445
432
427
425
421
421
421
420
415
409
399
385
373
363
349
333
317
301
285
269
253
237
221
205
189
173
156
140
124
108
92
72
56
44
27
11
4
0
0
0
0
0
0
0
0
0
50
151
285
412
519
598
646
678
694
702
705
698
686
672
658
636
615
586
554
522
485
453
421
389
369
353
341
331
326
325
326
331
333
338
341
341
339
337
333
329
326
325
319
314
309
303
298
293
287
282
281
275
270
265
258
250
241
242
255
305
393
527
674
804
905
987
1012
1023
1023
1023
1023
1023
1021
1013
995
972
948
923
900
871
834
793
756
714
676
644
614
594
578
566
556
551
550
544
539
530
518
504
489
473
455
437
419
408
397
383
369
353
343
331
317
302
289
277
265
251
241
225
211
201
190
185
189
222
299
417
559
693
810
877
925
955
964
967
963
949
931
911
889
868
846
824
800
770
738
704
662
623
586
554
532
511
497
488
485
485
489
489
489
483
475
469
459
448
437
423
412
397
383
372
357
345
331
317
302
289
277
265
249
233
217
203
193
177
163
152
138
127
116
100
87
72
62
51
40
44
66
136
254
404
558
689
785
846
881
900
907
900
889
871
849
825
798
772
742
714
682
650
622
590
560
534
507
483
465
451
440
433
429
429
429
429
427
421
415
404
397
387
373
361
351
337
325
314
303
293
281
267
257
242
231
221
206
195
181
170
159
148
138
124
112
102
91
80
70
59
48
39
31
24
43
94
189
322
472
618
713
790
838
865
876
875
863
846
826
804
780
754
728
698
662
627
600
570
538
508
477
456
437
425
416
413
413
409
409
409
404
401
397
392
384
373
359
348
337
322
311
297
286
275
261
249
233
221
206
193
177
164
151
140
128
115
104
94
83
72
66
55
44
38
30
24
15
18
44
107
214
357
508
642
750
820
865
887
899
896
887
865
844
822
800
773
746
718
686
650
614
584
558
530
503
485
467
459
453
449
449
449
453
456
457
457
455
449
443
432
425
419
408
397
387
379
369
359
348
337
323
315
305
294
283
269
258
247
237
226
213
201
190
179
168
158
152
156
191
263
377
516
652
766
850
901
939
949
955
947
935
916
895
873
849
818
790
761
730
696
652
606
559
519
481
451
424
401
391
383
377
372
367
365
361
359
353
343
334
325
313
299
289
274
263
253
237
223
209
197
181
164
148
132
120
106
92
76
60
47
36
20
7
0
0
0
0
0
0
0
22
94
209
341
469
566
639
685
710
725
730
730
720
706
690
668
644
622
595
566
534
501
472
445
424
403
389
379
371
369
367
369
373
379
381
381
385
385
385
381
379
373
372
367
361
360
355
353
349
347
345
334
323
313
303
295
285
273
273
289
337
428
554
697
825
931
1001
1020
1023
1023
1023
1023
1023
1023
1023
1019
1000
979
948
921
891
852
809
766
729
692
654
623
596
582
567
559
554
548
546
542
535
524
514
499
485
469
452
433
417
397
381
365
347
333
321
310
297
285
273
259
249
237
223
213
198
187
177
166
158
164
206
283
401
548
690
798
877
928
959
973
979
975
959
943
923
901
880
855
829
805
774
737
697
654
612
572
538
507
480
457
451
445
445
445
445
445
444
439
433
427
416
401
391
380
365
355
341
329
314
301
289
273
262
253
241
225
213
198
187
177
162
151
136
126
115
100
91
86
96
139
227
349
495
628
742
813
864
891
903
900
891
873
852
826
804
777
750
722
688
658
630
600
570
532
500
469
448
427
413
401
399
397
393
393
389
388
383
377
367
356
349
338
327
317
305
291
281
270
259
249
234
223
213
198
187
173
166
155
140
130
116
104
94
83
72
60
50
40
42
55
112
206
345
493
623
725
802
834
859
871
868
855
838
817
793
770
742
713
686
655
628
598
566
534
501
476
452
425
415
404
393
384
379
373
369
367
365
359
351
341
330
319
309
298
287
277
262
251
237
226
215
205
194
181
168
158
147
136
126
115
104
95
87
76
68
66
80
128
214
333
483
622
734
812
865
891
903
905
903
887
868
846
824
800
774
744
714
686
659
630
594
562
530
497
476
457
449
441
439
437
439
441
441
441
439
433
424
416
409
399
388
377
371
360
349
338
327
321
310
297
285
274
263
253
241
227
217
202
191
181
177
193
229
323
447
586
717
821
887
933
955
963
964
953
943
921
900
875
848
821
798
766
734
698
655
612
570
530
495
465
440
421
405
399
393
389
389
389
385
376
368
357
347
335
321
310
299
289
278
265
253
242
231
221
209
198
189
177
163
152
143
135
124
114
103
92
87
90
112
173
279
421
568
694
794
857
900
923
928
928
915
899
880
859
833
809
778
750
718
686
652
615
582
550
520
497
476
463
453
448
445
449
449
447
445
440
432
421
411
400
385
371
357
345
329
313
297
281
267
253
237
221
205
190
177
160
144
131
116
106
100
112
155
235
353
485
603
702
765
808
830
836
838
826
810
792
770
749
725
694
666
634
598
560
523
489
459
432
409
393
383
373
368
365
365
369
372
373
373
373
365
364
361
357
356
348
345
339
334
333
326
318
309
298
287
277
262
251
241
233
243
273
363
477
610
730
826
891
932
951
959
960
949
939
917
896
875
852
825
798
766
729
686
643
600
558
522
489
465
451
440
433
428
425
421
416
413
409
400
392
381
371
360
345
334
323
313
302
289
277
265
249
237
225
211
201
190
179
177
202
266
381
523
664
794
873
932
967
984
989
987
980
967
947
931
912
891
868
844
818
786
752
710
671
631
594
571
547
534
524
516
514
514
514
514
512
507
497
487
476
465
451
437
425
411
400
385
373
360
345
330
319
309
294
281
265
253
242
233
251
305
401
527
658
770
852
908
947
959
967
967
960
947
931
915
896
875
853
832
810
782
748
706
666
631
598
572
551
534
528
526
522
520
512
509
503
495
485
473
460
445
433
415
397
383
369
353
338
325
309
297
281
265
253
237
225
213
197
185
168
160
160
190
259
373
511
639
746
821
869
903
908
908
903
891
875
859
837
816
794
772
745
718
676
636
598
562
530
501
480
464
453
452
449
449
449
447
441
435
424
413
397
384
369
353
334
317
302
289
273
257
243
229
217
203
189
174
160
148
138
124
112
102
91
80
71
71
100
164
282
425
563
680
778
825
857
875
880
877
867
853
832
810
789
768
742
716
689
662
631
602
574
548
530
509
503
497
497
499
507
509
509
509
505
495
484
473
461
445
433
419
405
389
375
361
345
334
321
305
290
277
265
250
237
225
213
199
189
177
163
152
139
131
136
174
251
369
516
647
754
824
872
895
907
907
899
883
867
846
824
800
774
748
718
682
644
610
574
540
505
477
459
445
437
433
433
433
433
433
429
424
416
405
391
380
369
353
339
325
313
299
285
274
261
249
238
225
213
201
187
177
164
151
140
130
119
108
98
87
76
70
62
64
96
168
293
439
578
698
777
830
863
873
879
875
860
846
826
805
781
758
732
705
678
646
614
586
556
535
514
503
497
493
493
499
505
514
516
518
516
508
497
487
473
457
447
433
421
407
393
381
369
356
345
329
315
305
290
279
265
250
239
225
214
209
217
259
343
465
598
718
814
876
913
935
940
940
927
912
896
875
853
829
802
776
749
718
679
634
590
543
503
469
441
417
401
391
385
385
385
383
377
371
360
349
337
321
305
289
270
257
241
225
205
189
175
160
140
122
104
90
76
56
40
24
8
3
0
0
2
12
84
199
335
469
575
652
702
726
740
746
741
733
714
697
675
654
631
602
570
539
509
481
456
437
425
420
417
421
432
443
453
463
468
469
473
471
465
464
456
449
443
432
425
416
408
397
385
372
361
349
335
325
311
303
297
306
349
425
554
685
806
901
971
1007
1023
1023
1023
1023
1023
1023
1007
988
971
951
932
911
879
844
802
769
732
698
668
647
634
626
623
622
616
611
606
595
582
566
546
530
509
488
467
445
425
412
397
383
369
357
343
329
313
301
287
273
262
257
281
333
435
562
684
788
875
917
949
963
968
968
963
952
939
927
911
895
879
857
836
814
781
744
706
674
644
622
610
602
598
596
591
586
579
566
550
532
516
505
489
471
453
437
421
405
389
373
357
341
325
309
297
281
269
257
241
225
209
195
185
191
226
309
428
564
686
777
841
887
907
915
919
912
899
887
875
859
838
821
800
778
750
718
682
642
610
578
559
551
542
542
544
550
551
551
546
539
526
514
497
484
469
449
433
417
399
385
365
349
333
317
305
289
273
257
241
229
217
201
189
173
159
144
134
126
128
163
249
377
512
638
746
804
846
867
876
876
871
859
842
826
805
784
762
741
720
694
666
634
594
562
532
501
489
479
473
472
469
469
469
467
457
445
432
421
401
385
365
345
329
313
291
273
257
241
222
205
185
168
152
135
116
96
79
63
48
32
14
4
0
0
0
0
0
0
0
0
52
185
337
473
576
643
690
712
722
726
720
706
690
668
647
626
603
574
542
508
476
449
420
399
389
385
391
401
419
435
449
460
468
473
473
471
465
459
448
437
431
420
413
403
392
385
379
371
361
355
344
333
321
307
293
279
271
265
274
319
401
531
664
786
876
943
983
1005
1016
1019
1008
997
987
971
952
935
913
892
867
833
796
758
721
684
650
624
606
598
590
587
586
584
579
570
558
542
526
505
489
473
457
441
425
413
397
381
365
349
337
321
305
293
277
263
249
237
223
213
198
185
173
163
160
173
246
353
489
627
742
822
876
908
923
927
924
915
903
884
867
846
828
806
784
754
718
685
644
610
579
555
542
534
531
530
535
540
546
546
543
534
523
512
501
485
469
449
437
419
401
385
369
353
337
321
305
289
275
261
245
229
217
202
189
177
162
151
136
124
111
100
91
94
136
223
355
501
630
734
810
850
877
887
885
877
863
845
824
802
780
756
730
708
680
654
626
594
558
530
505
489
479
473
469
473
476
477
476
468
457
451
437
421
405
389
377
361
345
329
313
299
289
273
257
241
226
215
201
186
173
156
146
135
120
110
96
84
74
63
52
40
27
16
18
31
84
185
331
485
619
721
798
830
852
863
860
846
826
805
784
762
734
705
678
646
611
578
547
518
489
464
448
433
432
429
433
440
451
453
452
447
437
427
416
405
389
373
357
343
329
313
297
281
265
253
237
221
209
193
181
170
156
144
132
119
108
98
87
76
67
59
48
42
34
24
34
74
156
282
437
578
697
777
834
864
875
879
872
859
838
817
796
774
748
718
686
658
626
594
563
534
509
491
480
477
476
481
485
495
497
501
505
503
497
491
480
465
455
444
429
419
405
393
383
369
353
341
327
317
305
289
277
262
251
241
226
215
201
190
179
168
156
140
128
118
110
108
143
213
325
473
615
730
820
873
903
916
921
915
899
880
859
836
806
778
750
718
686
648
614
578
536
501
473
448
429
417
409
407
401
403
405
405
403
392
385
375
364
353
337
323
309
297
281
269
254
241
225
209
195
181
168
152
136
122
108
96
80
64
52
40
30
20
10
4
0
0
0
4
56
160
301
460
602
710
784
832
855
867
867
859
841
820
798
772
748
718
686
654
618
586
554
522
496
475
461
452
447
449
456
467
481
492
500
505
504
499
489
480
472
461
451
440
425
415
404
393
383
369
357
347
333
321
309
295
285
274
263
253
238
227
217
206
195
185
178
173
189
238
331
461
604
733
834
897
940
963
968
968
955
940
924
903
881
857
830
804
774
742
704
660
618
579
539
505
479
457
441
440
437
437
437
437
437
431
420
409
399
385
369
357
341
329
314
301
285
273
259
245
233
219
209
194
183
173
158
147
136
126
115
108
98
87
76
66
58
52
51
78
136
249
388
538
674
768
834
873
895
907
901
891
871
849
828
806
780
753
726
694
662
630
599
572
546
518
501
485
475
467
465
467
472
477
479
479
473
468
460
449
439
428
417
405
392
381
368
360
345
330
319
305
294
283
269
258
245
233
222
209
197
186
175
164
154
143
132
119
114
112
138
197
289
433
578
706
798
860
895
912
917
915
899
883
863
840
816
790
760
730
698
660
623
586
548
511
477
447
420
401
388
383
377
373
373
369
368
363
357
348
339
329
314
303
289
277
263
249
234
221
209
193
177
164
148
135
120
104
86
72
58
44
28
12
2
0
0
0
0
0
0
0
0
0
0
52
151
285
419
526
602
658
688
706
714
717
710
704
688
670
648
624
598
566
531
489
457
428
401
380
359
345
335
330
329
329
331
337
338
341
345
345
345
345
341
341
341
335
333
329
327
322
317
317
314
309
305
302
297
286
275
269
265
273
317
403
528
674
806
913
991
1015
1023
1023
1023
1023
1023
1023
1023
1015
993
972
947
920
891
855
816
773
730
693
660
630
608
590
578
568
563
562
558
552
542
535
522
505
493
475
457
441
425
405
388
372
361
349
333
321
306
295
285
270
259
245
233
219
205
194
183
177
171
195
249
356
489
630
748
841
903
939
955
959
960
949
935
917
896
875
853
829
802
776
746
706
663
623
586
550
518
489
472
467
465
465
468
473
475
477
473
468
460
449
439
425
413
397
384
373
361
345
333
318
307
293
278
267
253
241
227
213
201
185
173
162
148
136
126
120
120
159
231
353
496
635
750
826
877
911
916
919
911
895
876
855
833
809
786
760
733
702
664
630
594
558
523
493
472
456
441
440
437
437
439
441
441
440
435
425
415
404
393
381
368
357
343
331
321
305
291
277
265
251
237
226
213
201
189
173
160
148
135
124
114
103
92
78
67
56
50
44
52
106
199
333
484
623
726
800
845
871
875
872
863
845
824
798
772
745
714
682
652
622
594
562
530
499
469
445
427
413
397
391
385
381
381
381
377
372
367
361
351
339
329
318
307
297
286
273
261
250
239
229
218
207
197
185
171
160
150
139
128
122
111
96
90
79
68
58
47
40
36
39
60
134
246
393
540
668
762
830
863
883
891
885
871
857
836
810
788
758
730
702
667
630
602
570
538
511
487
469
452
447
441
437
435
441
443
445
445
444
439
433
427
416
405
395
387
377
367
356
345
330
319
309
298
287
273
262
251
237
226
213
201
190
179
168
156
146
136
126
118
116
142
206
313
451
592
726
809
871
907
924
927
923
911
892
871
848
821
794
768
738
702
666
631
594
555
518
481
455
431
413
399
388
381
377
375
373
371
363
357
348
339
329
314
303
293
278
265
249
238
227
213
198
185
173
156
140
124
108
95
80
64
48
32
18
4
0
0
0
0
0
0
0
0
0
32
107
233
365
480
568
630
670
697
706
714
712
706
694
678
662
640
616
590
558
523
485
451
424
401
380
364
349
344
341
337
337
339
341
341
344
345
345
345
345
344
338
337
337
334
333
327
325
321
319
317
313
307
302
301
294
286
281
301
349
433
560
705
830
936
1000
1019
1023
1023
1023
1023
1023
1023
1023
1023
1007
985
961
931
903
865
822
781
741
706
670
638
614
596
583
578
572
570
566
556
551
542
527
514
497
485
469
453
433
415
397
381
365
345
333
319
309
297
283
273
258
247
237
222
211
197
191
191
213
277
384
518
658
776
867
919
953
971
972
969
959
943
927
907
885
864
838
816
786
750
709
668
626
588
554
522
495
476
461
461
461
465
469
469
469
468
460
449
443
432
417
403
392
381
367
353
341
329
315
301
289
273
257
242
231
217
202
189
173
162
151
136
126
112
100
90
79
68
64
80
124
229
368
518
656
761
834
875
896
907
901
891
875
853
829
802
774
745
718
686
654
618
587
558
530
499
469
445
424
408
397
396
393
389
389
387
381
375
367
357
345
334
325
313
299
289
274
263
253
242
231
217
210
199
185
174
163
152
142
131
120
110
99
88
79
71
60
51
46
44
75
139
241
389
531
658
756
822
859
877
885
879
863
846
826
804
777
750
720
693
662
631
602
566
538
508
481
460
441
429
415
407
405
401
401
397
396
393
389
380
372
361
347
335
321
310
297
281
270
257
245
230
217
205
189
175
164
152
136
124
114
103
92
82
71
60
55
52
60
94
171
293
440
587
714
797
856
891
905
911
907
895
876
855
833
809
778
752
722
690
655
626
598
566
536
514
488
472
457
452
449
445
449
452
453
453
453
445
440
435
429
419
408
401
391
380
373
361
348
337
326
315
305
290
279
269
258
247
233
222
211
197
186
175
173
178
210
273
389
526
666
773
856
911
941
952
955
948
935
915
892
865
838
810
778
750
718
680
638
594
548
509
468
433
405
379
365
353
349
347
345
339
334
329
322
311
305
294
281
269
257
243
233
217
203
189
174
163
148
132
116
100
88
72
56
40
24
12
0
0
0
0
0
0
0
0
0
4
34
128
255
387
505
579
635
670
689
700
702
696
685
670
652
631
610
587
558
526
489
455
425
400
381
361
349
338
333
331
331
333
333
335
337
341
341
341
341
341
337
333
330
329
325
322
317
315
313
309
303
298
297
293
290
289
283
289
317
389
501
638
780
895
983
1016
1021
1023
1023
1023
1023
1023
1023
1023
1009
988
963
935
903
871
829
789
746
706
671
638
612
591
574
567
559
554
552
544
538
531
518
505
489
473
457
441
425
409
389
373
357
339
323
309
298
287
273
262
249
237
226
213
201
190
185
185
214
281
389
528
667
782
863
919
959
965
971
967
955
939
919
897
876
855
828
801
770
733
693
650
608
571
534
503
479
457
447
441
445
447
452
453
453
451
445
435
424
413
403
392
381
367
356
345
330
319
305
294
283
269
254
241
229
218
205
193
177
163
152
140
127
120
120
144
205
313
449
598
708
796
855
887
903
903
896
880
859
836
812
786
760
733
702
670
638
606
567
527
489
457
425
401
381
365
357
353
351
349
349
349
345
344
335
325
315
307
297
290
279
269
258
247
241
230
217
209
198
185
173
160
147
136
126
115
104
91
83
72
71
98
148
263
400
542
667
766
826
868
884
887
880
867
846
824
800
774
744
717
686
659
630
598
570
538
505
471
441
417
403
392
381
376
373
369
368
365
361
351
339
329
318
307
293
281
267
253
241
225
213
197
181
164
148
135
124
108
92
76
62
48
32
16
6
0
0
0
0
0
0
20
83
198
333
461
566
642
684
713
722
725
720
710
693
671
650
627
598
570
536
499
465
433
404
381
356
339
329
323
323
333
344
355
365
375
380
385
385
385
381
380
372
369
364
359
353
347
341
337
330
319
309
298
287
277
262
251
241
242
258
305
395
523
666
798
900
975
1009
1023
1023
1023
1023
1023
1017
996
975
952
925
899
871
836
794
752
709
670
632
598
570
544
528
518
508
505
501
492
487
477
467
453
437
425
407
389
375
361
349
338
327
317
305
291
281
269
255
245
230
219
209
194
183
173
174
193
249
349
485
626
749
842
911
943
961
967
964
951
935
913
892
871
844
817
790
764
729
690
647
604
566
530
497
469
448
435
429
429
432
437
437
437
437
432
424
413
403
392
381
371
357
345
334
321
309
297
283
269
257
241
229
214
203
193
178
167
152
140
127
112
102
88
76
66
58
52
62
110
197
333
483
622
738
813
863
887
897
895
883
864
842
820
793
766
738
709
678
644
612
582
550
518
489
463
439
417
403
392
381
381
381
377
376
371
365
356
348
337
326
315
305
294
283
273
263
255
245
234
223
209
198
187
177
166
155
144
134
123
112
102
94
84
74
63
52
43
35
32
47
95
173
313
460
598
712
792
838
867
880
883
871
852
830
809
785
758
728
698
666
639
610
578
546
516
489
467
443
433
423
412
409
405
405
405
405
405
401
392
387
377
371
360
345
338
327
317
306
293
285
274
261
249
237
226
217
205
191
181
167
159
148
138
127
112
106
95
88
79
71
80
120
198
317
464
606
726
806
863
899
915
915
907
891
872
846
824
797
770
742
710
682
654
622
582
544
509
477
447
423
405
392
384
377
373
371
369
364
359
353
347
335
325
314
303
293
281
267
253
241
227
217
202
191
177
162
151
136
124
111
96
86
72
60
50
42
32
27
30
52
123
230
369
523
651
750
816
859
887
892
895
887
869
848
826
801
777
746
714
682
650
618
586
558
528
507
485
471
460
445
444
441
441
443
445
445
445
443
437
431
423
417
408
403
393
384
379
369
363
352
341
334
323
313
302
291
281
270
259
249
238
227
217
207
205
209
242
317
433
570
704
822
895
948
979
988
991
983
965
944
923
900
873
846
820
790
758
724
680
638
591
548
505
472
440
413
392
371
357
347
338
333
327
322
317
306
295
285
271
263
253
237
223
209
198
185
168
156
140
128
114
100
84
68
55
40
24
8
0
0
0
0
0
0
0
0
0
0
3
16
100
221
344
453
536
595
634
652
663
670
670
667
658
646
630
610
587
558
526
492
452
421
396
372
349
333
322
313
307
302
297
297
297
297
297
297
297
295
293
289
287
285
281
277
277
277
271
269
265
263
261
257
253
250
249
261
287
337
448
584
726
859
968
1011
1023
1023
1023
1023
1023
1023
1023
1023
1023
1020
1007
983
955
923
887
849
809
766
726
692
662
632
614
602
591
583
578
572
567
558
548
540
526
509
493
477
465
447
429
413
397
381
364
345
329
311
295
285
274
263
253
239
231
221
218
239
289
399
527
666
785
873
931
964
980
983
984
973
959
937
916
895
873
849
826
798
764
726
688
644
606
570
535
509
489
476
465
459
453
449
449
449
445
440
435
425
415
404
389
379
368
353
343
329
317
306
293
281
265
251
237
226
213
201
186
175
160
146
135
120
114
114
136
201
307
449
590
710
806
864
901
919
919
913
899
877
856
834
808
781
750
718
686
654
616
576
542
504
469
441
415
396
381
372
369
365
361
361
361
356
348
337
326
315
305
294
283
273
262
251
241
229
215
205
194
183
173
159
151
140
126
115
104
94
83
72
62
51
44
34
23
20
30
72
152
285
437
582
698
776
826
856
869
871
860
844
822
801
774
746
720
693
662
628
596
566
535
505
477
449
433
421
412
407
405
405
405
409
409
409
409
404
399
393
383
375
365
356
348
337
326
315
305
298
287
273
262
251
241
230
217
205
194
181
168
156
143
132
120
107
96
87
79
68
71
98
148
263
400
546
671
770
830
872
891
895
896
885
871
849
828
806
776
749
718
688
658
626
594
562
530
493
461
437
420
404
393
387
379
373
372
369
361
352
344
333
322
311
297
286
273
257
246
233
221
210
197
185
174
166
156
146
135
124
115
107
96
91
86
76
86
118
181
286
428
570
697
793
863
895
913
923
920
909
891
869
848
826
800
770
738
706
674
646
612
575
542
509
480
457
441
431
425
424
421
421
421
421
417
413
408
397
391
380
369
359
348
337
326
315
305
293
279
269
257
243
233
222
209
197
186
178
168
178
213
285
399
538
670
780
857
915
944
957
963
952
939
923
901
880
859
832
805
778
746
709
666
623
580
546
509
480
457
443
437
433
433
433
437
437
435
429
423
412
401
391
380
369
355
341
329
317
301
285
273
259
245
229
215
201
186
173
160
146
138
144
190
265
377
514
642
738
806
849
875
881
884
879
863
844
822
797
773
742
714
679
642
610
572
534
493
459
429
404
385
373
363
357
357
357
357
357
353
351
341
334
323
313
306
295
285
274
261
253
243
238
233
226
218
213
211
209
205
206
217
253
323
431
562
679
781
850
891
917
927
929
921
911
895
876
855
833
809
778
746
709
666
618
570
526
493
464
441
428
423
421
427
432
437
441
441
437
432
427
417
404
396
385
375
364
353
347
335
325
314
301
289
278
265
253
247
253
281
368
491
630
764
863
935
983
1007
1023
1023
1023
1023
1016
1005
995
979
963
943
925
904
879
845
808
774
740
710
686
671
663
654
654
654
654
648
640
630
619
606
586
568
550
534
522
505
493
479
468
457
443
429
413
403
389
377
368
363
381
439
535
650
757
845
915
955
981
995
1003
1003
999
993
985
975
964
951
935
923
904
879
850
816
778
746
720
702
692
684
678
678
675
670
663
650
634
622
603
582
560
539
518
492
471
449
432
416
401
385
369
353
338
325
313
297
281
265
253
239
229
237
274
361
477
603
718
801
860
895
913
921
927
921
913
903
891
875
859
842
824
802
774
740
706
668
634
602
575
556
542
536
534
534
530
527
522
511
500
485
473
457
441
421
403
389
373
357
341
325
311
297
281
265
253
238
225
213
197
183
168
158
147
132
122
111
100
86
75
64
54
48
60
123
233
373
523
638
722
781
813
830
836
836
826
814
798
782
761
740
718
697
672
646
623
599
574
544
526
514
505
505
514
515
518
522
522
516
509
501
485
469
453
437
421
401
383
365
345
329
309
291
273
253
237
218
201
181
162
144
128
112
92
76
60
44
28
15
8
0
0
0
0
19
68
205
355
497
606
680
722
749
760
762
765
760
754
738
722
706
685
660
630
591
554
522
489
463
441
428
423
421
428
441
457
469
480
489
495
497
497
493
491
485
481
479
469
464
456
441
431
417
405
395
384
373
357
347
337
326
315
313
334
396
497
622
742
846
909
955
983
1000
1005
1007
1001
996
987
975
961
947
931
915
895
873
849
814
777
742
710
690
676
666
664
662
662
662
659
654
638
624
610
588
567
546
526
507
485
469
453
437
425
409
393
377
361
349
333
317
305
289
275
265
253
237
225
210
199
197
227
297
405
543
668
774
844
892
915
928
933
935
928
917
903
891
875
859
838
820
798
770
736
698
664
630
602
582
566
562
562
564
570
574
574
574
564
556
542
527
514
497
481
465
445
433
417
401
385
367
353
335
317
301
285
271
257
241
225
213
198
185
173
156
143
128
118
107
96
111
162
265
403
547
674
757
816
850
869
875
875
864
853
838
817
796
774
753
729
698
667
638
610
578
543
509
484
468
453
452
449
453
453
456
457
452
441
425
415
401
385
369
351
337
321
305
285
269
255
241
221
205
189
174
163
148
134
120
104
98
87
72
62
51
44
34
26
16
6
0
0
0
3
52
150
299
457
591
690
766
797
818
830
832
829
822
810
794
774
753
729
702
670
635
602
570
538
505
480
464
453
453
459
469
481
497
509
523
528
530
531
520
509
499
488
473
459
448
433
419
405
389
377
364
349
333
317
305
294
281
269
257
243
233
217
203
193
178
167
156
148
154
177
265
385
530
666
776
846
895
919
931
935
932
923
905
884
863
841
817
790
758
724
682
639
596
558
522
489
465
451
440
433
431
433
433
433
433
425
416
408
393
377
361
345
333
314
297
281
262
249
231
213
197
179
163
148
128
110
92
74
60
44
28
15
0
0
0
0
0
0
0
0
0
0
0
0
0
0
0
40
136
294
441
552
630
686
712
728
738
740
737
726
713
692
666
632
595
554
511
463
417
383
353
329
309
298
289
289
291
297
307
318
325
333
335
337
338
341
337
337
337
337
333
330
329
325
322
313
311
309
305
299
291
285
281
278
269
263
271
301
392
515
658
792
888
959
999
1020
1023
1023
1023
1023
1020
1007
991
969
948
927
903
873
842
800
757
718
678
643
618
596
580
566
564
562
562
562
556
550
538
522
509
492
471
453
443
432
417
403
392
381
367
353
337
326
313
297
285
269
257
246
233
217
205
191
181
168
155
144
136
144
181
266
397
550
686
796
871
919
948
959
961
953
943
921
900
879
857
833
806
774
742
706
667
627
586
558
531
509
492
487
485
487
492
497
501
501
501
492
484
473
463
452
437
423
409
393
383
372
357
341
325
313
301
285
269
253
239
229
213
199
185
170
159
148
134
120
104
94
83
72
62
48
44
51
94
173
310
463
614
721
798
846
877
888
887
876
860
838
817
793
766
738
706
674
642
610
578
544
509
477
451
427
409
392
384
381
377
377
377
377
375
369
363
352
341
330
317
305
293
279
265
253
237
225
210
197
185
168
155
140
130
119
104
90
79
68
58
47
36
26
18
8
3
0
0
0
0
0
40
131
265
429
579
698
777
833
863
875
877
875
857
836
814
788
761
730
698
666
630
598
566
530
501
475
453
435
424
421
419
427
437
449
457
461
461
461
457
448
443
433
427
416
405
395
384
377
367
353
341
330
317
305
294
283
269
258
247
237
222
211
201
186
175
160
154
143
132
122
108
100
92
95
116
190
302
449
600
729
818
879
911
927
935
927
911
893
872
850
824
794
766
734
702
670
631
591
554
516
481
453
424
405
389
380
375
369
369
369
365
364
356
349
338
330
321
309
295
285
273
259
245
230
219
209
193
177
160
148
132
116
104
88
76
62
48
32
16
6
0
0
0
0
0
0
0
0
0
0
104
233
373
504
606
670
718
745
762
769
772
766
750
732
710
682
650
618
575
532
489
457
425
397
371
347
333
323
318
317
318
321
325
330
333
337
341
341
341
345
343
341
341
341
341
339
337
337
330
322
317
306
298
289
278
270
261
254
262
293
369
484
630
768
885
971
1015
1023
1023
1023
1023
1023
1023
1023
1023
1001
980
955
924
897
863
824
781
738
697
662
630
603
579
566
556
551
550
546
543
538
528
520
509
495
481
465
449
433
413
403
392
381
369
353
345
334
321
309
297
283
269
257
243
233
218
207
201
199
226
281
401
540
678
793
881
935
964
980
983
980
969
955
933
912
891
869
845
818
792
760
718
675
632
594
558
523
497
483
472
465
460
460
465
465
465
465
456
451
441
427
416
401
391
380
365
351
337
325
313
297
285
269
255
245
229
215
201
186
175
164
150
139
124
112
99
88
83
86
128
210
338
489
628
741
822
871
897
907
904
893
875
853
832
806
780
753
722
688
658
630
598
563
522
484
452
421
400
381
369
361
359
357
357
355
349
344
335
329
318
305
293
282
269
257
245
231
221
209
195
185
170
159
148
134
123
108
102
91
80
70
59
48
38
30
20
10
4
0
0
0
12
51
152
297
453
598
718
785
833
863
876
876
867
845
824
802
774
745
714
680
646
610
571
542
509
483
456
429
417
404
397
399
407
413
424
432
433
433
433
429
424
419
409
400
392
381
371
360
349
343
331
321
310
297
285
274
261
249
237
223
213
201
187
177
166
155
144
134
123
108
98
90
84
90
116
193
306
456
606
726
817
879
908
924
931
920
904
883
861
837
806
780
750
718
684
654
618
580
543
501
469
440
417
397
384
377
369
367
365
365
363
357
352
344
337
326
313
301
290
279
269
257
243
233
222
211
197
182
171
160
150
139
124
118
107
96
86
72
64
58
50
40
30
22
12
7
4
8
40
110
225
373
526
670
758
822
863
881
892
891
879
860
838
816
789
762
732
702
666
631
602
570
543
516
485
465
452
441
436
433
433
433
433
433
436
433
429
428
420
409
400
392
381
375
364
349
343
331
317
306
293
281
270
259
249
237
223
213
202
191
181
170
159
148
138
130
120
119
124
160
237
357
501
646
761
850
903
937
955
955
949
935
917
896
875
848
818
786
758
726
686
643
600
558
522
489
461
436
420
409
404
401
397
397
397
397
393
388
377
371
360
349
338
325
313
302
289
277
261
247
237
221
205
193
178
164
148
132
116
100
90
76
60
50
36
24
10
2
0
0
0
4
54
139
257
392
512
606
671
714
738
744
744
734
722
704
682
656
632
602
570
538
501
469
437
409
380
359
341
330
322
321
326
337
353
365
381
389
397
400
401
404
401
397
396
393
389
381
379
369
359
348
333
326
315
305
294
281
269
258
250
249
258
301
377
507
648
782
899
973
1011
1023
1023
1023
1023
1023
1023
1009
985
959
932
905
879
845
805
762
720
676
638
602
570
546
524
508
497
492
489
485
483
472
465
455
441
429
413
400
385
371
360
349
339
331
321
310
299
285
274
263
249
238
225
217
206
193
181
175
175
193
255
360
497
642
765
859
917
955
979
980
977
967
951
932
911
889
865
838
806
774
738
696
652
614
572
535
501
472
453
441
436
433
437
439
444
445
444
439
433
427
419
409
397
384
373
363
352
341
326
313
297
286
275
261
249
233
221
210
197
185
173
159
148
136
123
112
98
87
76
66
58
64
107
190
313
463
612
726
810
864
891
905
908
899
881
860
838
812
785
758
726
697
670
643
614
582
548
511
481
452
431
409
399
391
385
384
381
381
376
371
365
359
348
333
322
311
301
290
279
269
258
247
237
226
215
205
194
183
173
162
151
140
130
119
108
102
91
80
71
63
64
83
139
233
375
522
658
758
830
871
896
904
903
891
872
850
828
804
778
750
716
682
650
618
586
554
524
493
463
436
413
399
388
381
377
375
369
369
367
361
355
344
337
326
313
301
289
275
265
253
239
225
211
203
193
178
167
152
146
135
124
114
103
92
82
74
68
62
64
88
159
269
409
563
692
786
852
895
919
920
917
907
885
864
842
816
789
762
730
698
662
631
602
570
538
505
477
456
440
425
420
417
417
419
424
425
425
423
421
415
407
397
388
380
369
360
352
341
334
323
309
298
287
277
266
255
245
234
221
209
197
186
177
166
158
156
178
239
345
479
620
750
829
888
927
944
947
943
929
908
887
864
837
810
780
750
714
675
630
586
543
497
453
421
395
373
355
344
337
329
326
325
319
314
305
299
291
281
267
259
249
234
223
213
201
187
173
162
151
140
126
115
104
92
82
72
62
51
40
31
23
12
7
2
4
36
103
209
356
514
642
745
812
859
880
891
887
875
856
834
808
781
750
722
690
654
620
586
558
527
497
473
456
440
429
425
425
429
429
429
433
437
437
437
432
424
413
408
400
393
387
373
365
355
347
337
326
315
305
294
283
273
262
251
241
226
215
201
194
189
189
218
282
393
526
662
778
861
917
951
965
971
963
948
932
911
888
861
834
806
774
742
708
664
622
575
532
489
456
424
397
379
368
361
353
351
349
345
339
329
322
311
301
290
277
265
254
241
229
217
203
189
177
160
144
130
119
104
88
72
56
46
32
16
3
0
0
0
0
0
0
22
76
195
326
453
560
632
682
708
721
726
721
710
690
668
644
618
590
555
522
484
452
421
389
360
333
314
301
293
289
294
305
317
333
345
356
367
369
373
373
373
368
363
357
356
351
345
341
338
333
322
311
301
290
279
269
258
247
249
278
345
449
591
730
855
936
997
1023
1023
1023
1023
1023
1020
1011
989
968
943
916
887
855
820
777
734
692
651
614
582
555
534
516
508
497
493
491
485
479
468
457
445
429
417
401
385
369
359
351
341
330
319
309
294
283
273
262
251
237
226
215
205
199
199
233
307
423
566
700
812
899
944
973
987
989
984
971
949
928
907
885
864
838
805
768
734
692
651
610
571
534
501
480
461
449
441
444
449
453
453
453
448
443
437
427
413
401
391
380
369
353
339
329
317
303
293
278
265
253
238
225
209
198
187
173
160
144
136
135
154
201
302
436
582
704
797
859
899
915
919
912
899
879
861
840
814
792
762
734
701
663
630
592
558
522
489
460
437
420
412
405
401
404
405
405
405
401
395
384
377
367
353
341
329
315
305
293
279
269
254
243
233
218
207
193
182
171
156
146
132
120
110
99
88
76
66
56
44
31
24
18
31
76
170
301
457
594
704
778
826
853
859
860
846
830
809
788
762
732
705
674
658
612
582
550
518
481
453
427
405
387
376
369
364
359
357
352
349
345
339
331
321
310
299
289
273
259
245
234
221
205
193
177
164
148
132
116
100
87
72
56
40
24
11
3
0
0
0
0
0
0
0
28
122
245
373
491
586
643
684
706
717
722
722
712
701
686
664
643
622
594
562
530
495
465
437
416
397
377
367
361
357
356
353
357
361
361
361
361
361
361
360
357
353
352
349
349
345
343
341
335
333
329
327
319
309
299
294
301
333
405
514
658
794
911
988
1017
1023
1023
1023
1023
1023
1023
1023
1023
1017
999
973
949
919
885
848
806
769
729
694
663
636
622
607
599
598
592
590
586
579
568
558
543
530
514
497
481
461
449
431
413
393
377
361
344
325
313
301
287
277
266
258
257
278
339
441
572
704
822
896
952
983
996
999
995
984
971
955
937
916
895
872
848
822
789
749
706
667
627
590
564
543
530
520
515
514
514
511
505
495
484
469
459
448
437
423
409
393
379
368
353
343
329
313
301
285
273
261
245
233
221
207
193
182
171
168
190
254
361
497
631
754
829
888
919
928
931
923
909
891
871
849
828
802
780
750
714
675
632
590
543
505
469
448
427
413
404
399
397
397
395
393
387
379
369
357
341
329
314
301
289
273
259
245
234
223
209
194
181
168
158
147
136
124
114
104
94
83
72
63
58
60
92
167
281
431
575
694
782
841
871
883
885
883
867
848
826
805
784
758
728
701
670
639
610
578
550
523
501
487
473
469
465
468
473
479
481
485
484
476
465
455
444
433
419
405
389
379
368
353
338
325
313
297
281
269
253
239
225
213
199
189
174
160
148
134
123
112
112
128
181
278
417
558
689
785
855
891
909
919
912
899
883
861
840
818
792
762
730
698
663
626
588
548
514
479
452
429
409
399
393
392
389
385
384
379
369
363
352
337
325
309
293
277
261
245
227
209
193
177
160
144
124
108
92
76
60
44
28
15
0
0
0
0
0
0
0
0
0
0
0
0
20
146
282
413
524
599
654
688
706
722
724
724
714
702
684
658
630
595
554
509
469
433
401
372
345
326
313
305
301
298
301
306
311
317
318
323
325
325
325
325
323
321
321
319
317
313
309
306
305
301
298
289
287
282
277
267
265
281
325
419
546
692
822
927
989
1016
1023
1023
1023
1023
1023
1023
1019
1001
980
959
936
909
879
845
805
762
724
686
650
623
599
586
576
571
570
570
570
562
555
544
530
514
495
477
460
441
421
409
396
385
369
356
345
330
319
309
293
279
265
254
241
225
215
207
213
243
318
433
574
705
818
888
936
963
975
975
967
956
943
923
905
884
863
840
813
786
753
713
670
631
594
558
532
511
497
488
483
481
481
484
485
480
475
465
455
444
433
417
401
389
373
360
349
333
317
301
286
273
261
245
229
213
202
189
173
162
148
136
126
112
100
84
74
64
75
112
197
323
476
618
725
802
859
875
883
883
871
855
834
809
788
762
734
705
674
647
618
586
550
518
481
449
420
393
381
368
361
360
357
357
357
355
349
343
331
321
310
299
289
275
267
257
246
235
221
210
199
189
178
164
152
142
131
120
110
99
88
78
67
56
46
35
24
20
28
52
136
257
405
558
684
770
828
860
875
877
869
855
833
812
786
760
733
706
674
642
606
578
546
518
487
460
445
432
427
425
425
425
429
431
433
437
432
427
417
411
400
389
379
368
357
347
333
321
310
297
285
274
263
253
241
227
217
202
191
181
170
159
144
134
123
116
107
110
144
211
329
473
614
732
818
869
901
915
917
912
895
877
856
830
804
774
746
714
679
646
607
567
526
488
456
425
405
387
373
364
359
357
357
355
349
344
335
329
318
305
293
282
269
257
245
231
217
205
191
177
162
151
136
122
111
96
84
71
56
46
35
24
14
6
4
0
0
0
2
10
64
174
323
481
616
721
798
834
859
871
868
855
834
813
792
766
734
705
674
642
604
570
539
509
481
456
435
417
412
409
409
416
427
433
443
448
449
448
443
433
428
423
413
404
396
385
379
368
357
347
335
325
314
303
293
282
271
261
249
235
225
214
203
193
179
171
164
168
201
257
376
512
650
769
855
907
936
952
955
948
937
919
896
872
846
816
789
758
722
685
642
594
548
501
460
423
397
372
353
341
334
326
321
319
314
309
299
294
285
274
263
249
242
231
217
206
193
181
168
152
140
124
111
96
80
64
48
34
20
8
0
0
0
0
0
0
0
0
0
0
11
52
163
291
417
519
594
646
684
702
714
718
721
714
702
684
662
630
598
562
523
483
441
409
380
353
333
317
305
295
290
289
289
289
293
293
293
293
293
293
293
293
293
293
289
289
289
287
285
281
277
277
273
269
266
261
255
253
265
307
391
514
655
794
911
988
1023
1023
1023
1023
1023
1023
1023
1023
1020
1004
979
952
925
899
864
821
782
740
700
662
630
603
586
571
560
554
546
543
538
531
520
509
499
485
469
453
437
421
405
389
373
361
348
337
326
315
305
290
279
269
254
243
229
218
207
201
203
225
293
399
535
674
785
871
927
955
968
975
969
961
943
925
904
883
860
833
806
778
744
706
663
620
578
540
508
481
461
445
437
429
432
433
433
433
429
424
416
409
399
388
377
367
353
341
329
315
305
293
279
269
254
241
229
214
201
185
174
160
144
134
120
108
98
84
72
60
47
36
24
11
4
0
0
0
0
0
0
4
50
156
309
472
610
713
780
826
846
855
850
838
820
798
772
745
718
690
658
622
584
550
522
489
457
429
404
385
369
359
353
349
351
353
357
361
364
365
364
356
345
338
330
325
314
303
297
286
278
269
258
250
241
231
223
213
199
191
181
174
163
148
142
131
124
114
103
96
88
88
104
156
247
373
519
650
750
826
869
895
903
905
899
887
868
846
820
793
766
738
706
666
634
604
574
542
509
481
456
437
425
416
411
405
405
405
409
409
407
405
400
395
389
379
371
361
352
347
337
327
319
309
298
287
273
266
255
241
230
219
209
198
187
177
164
151
140
131
123
112
104
107
132
198
299
433
572
696
790
849
887
899
905
897
887
865
844
818
792
762
730
698
666
630
598
563
522
484
449
417
387
360
341
326
315
305
298
293
289
283
281
277
267
259
249
242
231
217
210
199
189
178
164
152
140
124
112
100
87
72
60
47
32
18
7
4
0
0
0
0
0
0
0
0
64
173
301
433
544
630
690
730
757
770
782
782
774
757
736
710
682
647
606
566
531
501
469
440
413
388
372
357
348
343
337
337
337
337
341
341
341
341
341
345
345
343
341
341
341
337
326
318
313
303
298
289
279
274
265
259
254
257
293
360
469
610
754
871
963
1013
1023
1023
1023
1023
1023
1023
1023
1021
1013
995
968
941
911
883
845
806
765
725
690
654
624
602
582
571
562
552
550
546
536
528
518
507
493
477
465
449
433
417
401
385
371
360
349
338
327
317
305
291
281
270
259
249
238
230
237
282
363
477
615
746
842
912
957
983
993
996
991
980
964
947
925
904
883
856
829
798
764
721
678
636
596
562
531
507
485
473
465
461
456
453
445
437
435
429
423
412
401
391
380
365
355
341
329
318
305
293
281
267
257
241
227
213
198
187
177
162
148
132
122
111
104
95
98
136
211
331
477
620
736
818
868
897
907
909
904
887
865
841
814
788
758
730
716
670
638
599
559
518
480
448
417
392
371
357
344
335
333
329
326
317
311
306
297
286
275
265
254
243
233
221
210
201
190
179
168
155
147
136
126
115
100
94
83
72
62
51
44
34
23
12
6
0
8
52
130
257
407
554
678
764
822
863
873
879
875
861
840
818
797
773
742
714
682
650
608
574
542
511
484
461
441
428
417
416
413
417
427
432
433
433
431
425
419
411
405
396
388
377
368
360
349
338
327
317
310
299
289
278
265
253
242
231
221
209
195
185
174
163
152
139
134
136
168
238
341
485
624
742
826
888
919
932
937
931
915
896
875
852
828
802
772
742
706
663
620
574
540
503
465
435
408
389
375
367
357
353
351
345
344
341
333
323
315
309
298
287
277
270
259
253
242
231
225
214
203
193
182
171
160
151
143
132
123
115
104
94
83
72
66
55
48
46
59
112
205
338
489
626
733
810
852
881
891
893
885
867
845
824
794
768
741
710
678
643
614
582
552
522
493
467
445
425
412
401
393
391
389
389
389
385
380
375
365
355
344
333
322
309
297
285
271
261
245
231
221
206
195
185
174
163
148
138
127
120
110
96
88
79
74
64
54
46
36
31
28
24
36
79
160
290
440
594
705
793
850
883
899
903
900
887
871
848
824
798
772
742
710
678
643
610
582
552
522
500
479
465
455
441
437
433
433
433
433
433
437
436
431
425
416
411
405
399
388
377
371
360
353
343
331
325
314
306
297
286
275
265
254
243
233
223
215
205
194
183
168
163
160
160
190
251
361
493
632
754
837
893
927
945
951
947
931
912
891
868
841
810
782
750
718
679
636
594
547
504
461
429
403
377
357
341
333
323
318
313
307
302
293
287
279
273
262
249
237
226
215
201
189
175
164
152
139
124
110
99
88
72
59
44
34
23
12
3
0
0
0
0
0
0
0
0
6
38
124
245
373
485
567
628
674
696
712
722
724
721
714
701
679
654
626
594
558
520
480
449
419
392
369
353
339
325
318
313
309
307
302
301
301
301
301
297
297
293
293
293
293
289
289
289
289
286
285
283
281
281
279
271
265
261
271
305
389
507
650
790
911
987
1023
1023
1023
1023
1023
1023
1023
1023
1023
1020
1004
983
956
927
895
856
813
774
733
698
666
636
615
598
583
575
570
564
562
558
547
536
526
515
501
485
469
456
441
425
409
393
375
361
349
338
327
313
306
295
281
270
259
253
258
290
353
468
596
726
829
907
959
989
1000
1003
996
983
963
945
924
903
881
860
834
808
778
738
696
652
614
578
546
518
495
481
469
464
459
449
444
436
429
419
408
401
391
380
369
357
344
333
321
307
297
282
271
261
246
233
217
206
195
181
166
152
144
136
144
181
266
387
526
658
762
838
888
909
919
920
909
895
873
852
830
804
774
746
713
672
630
591
551
514
476
441
413
388
369
357
348
343
333
331
326
321
314
303
297
286
273
261
249
235
225
213
199
189
178
167
156
146
135
120
114
103
92
82
71
64
54
43
32
22
16
20
50
116
233
379
526
654
749
810
855
867
875
871
859
840
818
793
769
742
710
680
650
614
582
550
519
489
465
444
428
413
408
405
409
409
409
409
409
407
401
395
387
377
368
360
349
339
331
321
310
299
285
278
267
257
246
233
225
214
201
189
177
166
156
144
131
124
118
131
177
269
397
546
671
773
842
885
909
915
916
905
887
869
848
822
796
766
734
702
667
630
591
551
509
472
437
409
383
359
345
330
322
317
310
305
301
295
287
277
266
255
245
233
219
205
194
183
168
154
140
128
112
96
80
68
55
40
24
11
4
0
0
0
0
0
0
0
0
0
0
0
48
144
273
401
497
572
622
651
667
674
676
671
662
646
627
606
583
554
522
488
451
421
392
368
345
329
315
305
295
293
289
289
289
289
289
289
285
283
281
281
279
274
273
273
270
269
263
261
257
255
253
249
245
242
241
237
247
269
331
428
562
709
848
951
1007
1020
1023
1023
1023
1023
1023
1023
1023
1023
1020
1003
976
947
915
881
841
798
757
717
686
655
628
606
590
579
574
568
563
554
544
536
526
509
496
481
465
449
433
417
401
385
369
353
337
325
311
301
290
279
265
250
239
229
222
217
225
277
363
485
626
754
846
915
957
983
988
988
983
967
948
931
909
885
863
837
810
778
740
697
654
611
568
538
507
483
461
451
443
437
436
433
433
432
427
421
415
404
389
383
372
357
347
335
325
310
299
289
273
259
249
237
223
213
198
187
177
162
151
136
126
115
100
90
79
80
104
168
269
416
563
694
784
845
883
903
905
899
885
864
842
820
796
770
738
704
678
650
618
586
548
511
473
443
416
393
375
361
353
348
343
337
335
330
325
314
303
293
282
269
257
245
231
221
210
199
189
174
163
152
142
131
120
110
99
92
82
71
64
54
46
40
30
27
36
86
168
297
447
591
706
786
840
875
881
887
879
863
844
822
801
777
750
718
689
658
618
586
554
523
496
473
452
436
425
424
419
413
413
413
413
413
411
405
399
391
381
376
368
357
347
335
325
318
307
297
290
279
273
262
249
241
230
217
205
193
182
173
162
151
140
128
126
136
185
273
393
540
671
778
848
896
919
931
928
919
901
880
855
832
805
778
746
714
678
635
592
550
512
475
441
411
384
361
347
335
325
318
310
305
299
294
285
274
263
253
242
231
217
206
195
181
166
152
140
126
112
96
80
67
52
40
24
12
0
0
0
0
0
0
0
0
0
0
0
0
38
136
265
393
500
578
623
652
670
678
675
666
654
638
618
595
571
546
514
479
445
411
384
361
335
319
305
295
290
285
281
281
281
281
281
281
281
281
277
277
271
269
267
262
261
258
253
249
247
245
241
237
234
233
229
229
229
247
293
373
493
640
778
899
979
1015
1023
1023
1023
1023
1023
1023
1023
1023
1019
1000
973
943
915
880
838
796
753
714
678
646
614
588
572
558
548
543
538
528
523
514
503
492
477
467
453
437
421
405
393
377
361
345
333
322
313
302
291
281
270
259
249
238
227
213
207
213
245
318
431
566
701
813
895
947
979
995
996
993
979
961
940
919
897
873
842
820
790
754
713
672
630
592
555
522
495
473
457
448
443
437
433
433
433
433
428
417
411
400
389
379
365
357
347
335
325
313
299
289
277
261
249
234
223
213
198
187
173
162
151
136
127
119
116
135
191
281
419
560
690
786
853
891
915
917
915
904
891
871
849
828
802
780
750
722
684
643
606
568
534
497
467
443
425
412
404
401
397
395
393
392
387
381
371
360
349
338
325
313
301
287
277
266
255
245
230
219
209
194
183
168
158
147
136
126
115
104
94
83
72
62
54
44
34
23
12
0
0
0
0
22
80
206
353
501
631
730
790
828
846
850
846
830
810
789
765
738
706
674
642
608
574
542
509
477
445
415
388
365
349
335
329
323
321
321
322
322
317
311
303
293
286
275
265
258
247
237
226
213
205
194
186
177
166
158
148
139
134
124
115
107
100
94
83
72
66
58
52
43
40
48
78
147
257
403
544
674
765
832
871
892
897
895
884
868
846
825
801
774
742
726
686
658
628
598
570
540
514
487
463
445
432
424
421
417
417
417
417
417
413
412
404
397
392
387
381
375
367
357
348
343
333
322
311
301
294
283
269
262
251
237
226
215
205
194
183
173
162
156
156
183
242
349
481
623
746
837
899
943
955
963
963
951
932
911
889
868
842
814
785
754
720
676
634
587
547
505
469
440
413
401
388
377
372
367
361
356
351
345
334
326
317
305
291
281
266
253
241
226
213
197
186
175
160
144
128
116
104
88
76
60
47
32
20
7
0
0
0
0
0
0
0
0
0
28
112
233
361
473
562
626
663
688
698
698
696
686
668
647
626
604
578
546
518
485
453
423
396
377
361
348
337
331
329
333
334
337
341
349
349
349
349
349
345
344
341
337
335
330
329
325
322
321
317
314
309
307
305
301
291
286
289
319
384
485
626
768
895
981
1016
1023
1023
1023
1023
1023
1023
1023
1023
1023
1015
992
965
935
907
872
830
789
749
710
678
646
622
606
592
582
575
570
566
560
555
546
531
520
509
493
477
461
449
431
413
397
381
369
352
333
317
301
287
277
266
255
245
235
227
229
259
323
421
560
694
806
891
949
979
996
1001
999
987
971
951
929
908
887
861
837
810
782
748
706
664
624
586
555
528
509
495
487
485
481
481
477
472
464
457
448
440
429
419
408
393
383
372
357
347
333
321
310
299
289
277
263
253
241
227
217
202
189
177
166
155
144
158
201
285
412
554
678
778
850
899
919
927
927
920
907
891
871
852
830
804
777
770
708
664
618
575
532
497
461
429
405
385
372
361
360
357
353
349
347
341
334
323
313
302
291
281
270
257
249
238
227
217
206
198
189
178
167
156
147
139
128
118
107
96
90
79
68
58
47
40
39
60
108
214
348
497
630
732
802
849
873
883
885
877
863
849
828
806
784
757
730
698
663
626
592
560
530
499
475
457
444
436
429
425
425
429
431
433
433
432
424
417
411
400
389
379
371
361
351
339
329
315
307
297
286
275
261
254
243
229
218
205
193
182
171
160
148
135
124
115
112
120
163
246
369
515
648
762
829
880
911
924
924
919
905
887
867
844
820
794
768
738
702
662
624
582
543
505
469
443
419
397
383
372
365
361
359
357
352
347
341
331
323
313
299
291
281
266
255
241
230
217
201
190
177
164
152
136
124
108
95
80
64
48
32
18
7
4
0
0
0
0
0
0
0
0
0
30
115
237
369
479
566
620
658
678
690
688
682
670
654
634
612
588
562
528
491
457
421
392
369
344
327
313
307
305
305
314
322
333
338
344
353
353
353
353
352
347
345
341
338
337
331
329
325
323
321
317
313
310
305
301
298
289
283
286
309
368
467
598
740
863
963
1007
1023
1023
1023
1023
1023
1023
1023
1023
1023
1015
991
964
935
903
860
817
774
732
692
654
626
599
582
571
563
558
554
551
546
539
528
518
507
493
477
461
445
429
413
397
381
364
345
329
319
311
301
286
275
265
250
239
225
214
203
197
215
263
361
485
624
754
844
908
951
969
975
979
972
961
947
929
908
887
865
841
814
781
741
698
651
611
570
536
504
481
467
456
449
445
448
449
453
453
449
444
436
425
415
404
393
379
368
357
345
331
321
309
295
285
270
259
245
230
217
201
190
177
160
150
136
124
114
100
88
76
63
52
42
31
24
30
62
136
257
404
558
672
764
822
855
871
875
868
855
838
821
800
774
748
721
690
654
619
586
552
518
485
453
427
405
387
373
361
351
343
341
335
330
325
323
315
305
295
287
277
266
255
241
230
219
209
198
187
181
170
159
148
138
130
120
111
103
92
83
75
64
58
50
40
34
26
20
32
67
144
257
401
550
667
758
818
853
872
879
876
865
850
829
808
782
760
733
702
671
642
614
582
550
518
491
469
453
443
437
433
425
425
425
429
432
433
432
427
421
416
408
401
395
387
377
367
359
353
344
335
325
315
307
297
282
271
261
249
235
225
210
197
189
178
164
152
147
155
185
266
381
518
659
772
855
909
941
959
959
953
943
927
908
887
865
841
814
790
753
702
658
612
566
526
491
457
428
407
385
375
367
361
360
355
353
349
349
345
338
330
321
315
307
301
291
286
277
271
266
257
250
239
233
222
211
205
194
183
173
162
151
140
130
119
108
95
87
76
74
95
136
241
372
514
646
753
822
871
895
907
909
901
891
869
848
822
793
769
738
702
670
638
610
578
546
509
477
453
436
420
409
403
397
397
396
393
393
388
383
373
367
356
345
334
323
313
302
289
277
266
255
245
233
222
213
201
187
177
163
155
144
130
119
108
98
87
80
70
59
52
42
34
24
18
12
16
50
119
233
380
530
658
754
821
867
883
891
891
879
860
838
817
793
766
738
709
678
662
614
582
551
522
497
472
453
437
432
427
421
420
415
413
413
411
405
399
391
381
372
364
353
338
327
317
306
295
285
274
263
253
242
229
221
210
199
189
182
174
164
155
147
140
131
123
112
106
98
88
87
90
116
181
285
425
568
694
794
857
900
927
932
935
923
907
888
867
844
817
786
760
728
694
664
627
590
554
522
489
463
441
425
415
404
397
389
387
385
380
375
365
360
352
341
330
319
313
302
289
277
265
251
241
230
217
205
194
181
168
154
143
128
116
103
88
76
60
48
38
24
12
10
26
64
144
249
369
489
580
650
696
722
738
744
741
730
718
700
678
655
628
598
566
534
497
467
440
413
389
373
361
353
351
353
360
371
385
395
403
409
413
413
413
412
409
405
405
405
397
388
380
369
363
352
341
334
323
313
302
291
289
305
353
433
560
700
834
933
997
1023
1023
1023
1023
1023
1023
1023
1023
1023
1011
984
957
931
911
871
818
776
736
698
662
630
602
583
570
558
554
551
546
540
535
530
519
505
493
481
465
449
433
420
405
385
369
353
337
321
309
298
287
277
266
255
249
251
267
325
425
554
686
797
883
943
977
996
1003
996
985
967
949
928
907
884
860
838
812
782
746
708
667
626
588
556
526
505
492
481
473
473
473
468
460
449
443
432
425
415
401
393
383
369
357
341
327
317
306
293
281
266
255
241
226
215
201
189
175
164
155
158
193
259
375
514
646
753
834
880
909
923
925
920
907
885
864
838
817
793
766
734
700
662
619
576
542
504
472
441
421
405
393
381
379
377
377
375
369
364
356
345
334
321
309
298
287
277
265
251
241
229
215
205
190
179
168
158
147
132
122
111
104
94
80
72
64
70
88
162
271
413
558
678
770
834
867
883
887
881
867
849
828
806
780
750
722
690
658
618
586
556
526
495
471
449
431
417
409
405
405
405
407
409
413
412
407
401
395
387
381
371
360
349
339
331
321
306
295
285
274
263
249
238
225
209
198
185
177
166
152
136
124
114
104
95
95
124
182
289
429
568
692
790
838
873
891
889
879
863
841
820
798
770
741
714
682
652
622
591
559
518
480
445
409
383
359
341
330
317
309
303
298
297
286
278
273
262
251
241
227
219
209
194
181
164
154
140
124
112
96
84
68
52
40
24
11
0
0
0
0
0
0
0
0
0
0
0
0
0
0
0
84
210
338
453
538
602
650
679
698
706
709
704
690
668
644
614
579
536
493
453
419
385
355
327
305
287
271
261
255
253
249
253
255
257
257
259
261
262
265
261
261
261
261
261
261
261
257
257
253
251
249
245
241
238
237
239
258
289
377
495
634
772
887
967
1009
1020
1023
1023
1023
1023
1023
1023
1011
989
968
947
920
891
855
817
777
738
697
656
626
595
571
554
542
531
526
524
519
514
503
492
481
469
453
437
425
409
397
387
373
365
355
344
333
322
311
301
290
279
269
254
243
233
222
214
205
219
265
349
472
614
738
837
907
955
975
983
987
976
963
947
925
904
883
857
833
806
778
741
702
659
616
582
546
514
489
469
459
449
444
441
445
449
447
445
440
432
421
411
400
389
379
365
353
343
329
317
305
291
277
265
251
241
226
215
205
190
177
160
150
139
124
115
107
112
148
226
345
491
624
738
813
864
891
903
903
895
881
860
838
816
789
762
734
718
674
644
607
566
528
493
457
427
403
381
367
356
349
345
343
337
335
330
325
319
311
305
294
286
277
270
262
253
243
235
225
214
203
193
186
175
160
154
143
132
122
111
100
90
82
72
62
56
60
99
171
285
429
571
690
774
830
871
881
884
875
863
844
822
797
773
750
718
689
658
627
598
566
535
505
481
456
435
413
407
401
397
397
400
401
401
399
393
388
380
369
364
356
345
331
323
313
302
291
281
270
259
249
238
227
217
206
195
185
173
159
148
138
127
116
103
95
92
112
166
249
388
532
666
766
838
879
901
909
907
891
872
850
824
797
766
736
706
674
642
607
570
532
492
453
417
385
361
339
321
309
298
290
285
279
277
269
259
254
245
238
227
213
206
195
181
170
156
148
136
120
108
92
79
68
56
40
28
14
3
0
0
0
0
0
0
32
124
242
365
477
566
634
671
696
710
712
714
710
700
689
670
648
627
598
566
550
501
473
441
417
396
377
361
349
341
337
335
333
333
333
335
337
337
334
333
331
329
329
323
321
321
317
314
313
307
302
297
287
279
273
266
277
313
391
508
650
786
901
983
1017
1023
1023
1023
1023
1023
1023
1023
1023
1019
1000
975
944
915
907
848
805
762
725
690
658
628
607
594
583
575
570
566
563
558
548
540
530
515
501
489
473
457
441
429
413
397
377
361
353
343
331
321
310
302
297
319
373
469
594
717
822
903
959
999
1011
1019
1019
1012
999
987
969
951
931
909
888
863
846
793
750
709
671
638
607
580
558
551
546
542
542
539
534
527
514
501
485
469
453
433
420
409
395
381
369
355
344
329
318
305
289
274
261
249
241
243
265
343
452
582
701
797
867
916
937
951
955
949
935
923
904
887
865
844
822
796
769
738
696
652
610
568
534
505
483
469
457
448
443
433
427
419
413
401
385
373
361
345
333
317
303
293
277
263
253
238
227
217
206
195
181
170
159
148
139
131
148
202
298
429
568
686
774
833
871
891
903
903
899
887
871
855
833
812
790
764
734
702
667
627
590
556
527
505
491
483
477
479
484
485
489
489
485
479
468
453
441
423
409
393
377
357
339
321
305
289
270
253
238
225
209
194
183
168
158
147
140
132
138
181
269
403
550
671
765
830
869
893
903
909
904
895
879
863
842
821
800
778
754
720
686
652
615
582
554
530
514
508
505
509
515
523
526
530
527
518
512
504
489
479
465
453
439
425
413
397
384
373
357
344
329
314
303
289
273
259
245
234
223
209
194
183
181
199
258
357
493
624
738
814
868
899
915
917
915
904
891
871
849
828
802
778
762
710
667
624
582
534
493
457
432
413
401
389
387
385
389
389
389
384
376
365
355
341
329
313
297
281
265
251
237
217
201
185
166
152
132
115
96
76
64
46
28
14
3
0
0
0
0
0
0
0
0
0
0
32
163
309
439
538
614
646
670
682
684
686
682
676
668
658
642
623
598
566
528
493
461
429
401
376
360
345
344
341
341
348
359
365
369
372
373
375
377
373
372
369
365
361
359
357
352
347
337
335
330
325
323
315
309
305
302
301
335
408
518
659
788
891
967
1009
1019
1023
1023
1023
1023
1023
1023
1020
1007
991
969
948
927
889
855
814
773
736
702
672
654
642
634
631
626
626
623
618
607
594
582
566
547
526
508
489
469
449
431
417
403
389
377
361
345
329
318
305
289
278
265
253
241
227
225
245
306
409
547
678
782
868
919
951
965
973
975
969
961
947
927
908
887
865
844
818
780
742
702
660
623
590
562
546
534
528
523
526
526
526
526
524
516
505
493
477
465
449
436
421
405
389
373
359
345
329
313
297
277
265
251
237
221
205
193
178
164
148
136
123
108
96
83
76
78
110
189
314
461
606
705
782
830
859
872
875
868
857
838
821
800
774
752
725
694
660
623
590
554
522
485
464
443
425
411
400
397
397
397
397
396
391
385
375
364
349
334
321
309
293
277
261
250
237
221
206
193
181
166
152
140
128
115
104
92
79
68
59
51
40
34
23
12
6
0
0
0
3
56
155
299
457
594
698
774
813
837
846
849
841
826
805
784
762
740
713
686
654
619
590
558
526
497
471
452
437
436
433
441
452
465
477
488
496
493
492
484
473
463
452
445
435
421
409
397
384
373
361
348
333
318
307
297
282
269
253
242
231
217
206
193
185
174
160
148
136
126
116
119
140
209
317
461
606
724
809
871
896
912
919
916
903
887
865
844
818
790
761
734
697
659
622
580
543
501
465
436
405
389
376
365
364
359
357
357
355
353
343
334
325
314
303
293
278
265
253
237
223
209
197
181
164
148
132
120
104
88
72
55
39
28
14
6
0
0
0
0
0
0
0
0
0
0
0
0
76
202
344
473
567
634
678
704
720
726
729
724
714
693
671
646
614
576
538
497
463
429
397
368
345
323
310
301
299
297
301
306
311
317
321
321
325
326
329
329
327
325
325
325
322
321
319
317
313
311
309
305
299
291
281
271
266
261
286
348
449
582
726
842
931
987
1015
1023
1023
1023
1023
1023
1023
1011
992
971
949
925
919
861
821
778
736
693
654
618
588
566
550
539
530
528
526
522
516
511
501
487
473
457
445
429
417
407
393
381
371
360
349
333
319
309
297
283
273
258
247
237
222
211
197
186
178
177
201
254
361
495
636
762
846
908
943
957
963
963
952
941
923
901
880
859
836
809
778
745
705
662
619
579
538
505
481
465
460
457
457
465
468
469
473
473
465
459
448
437
427
416
405
391
377
365
353
339
329
313
297
285
270
259
245
230
219
205
193
179
164
154
140
128
118
104
92
80
70
60
50
39
32
51
104
205
349
501
646
740
809
855
873
884
883
869
848
826
804
777
750
720
693
662
627
598
566
534
501
469
443
419
401
383
369
361
357
355
353
349
347
341
335
327
317
307
299
289
278
267
253
246
235
225
214
201
193
182
174
164
154
143
132
123
115
104
95
87
76
70
62
52
52
63
100
186
311
457
596
709
794
845
872
887
887
881
867
849
828
802
777
750
718
686
656
630
598
566
534
504
483
461
444
431
421
420
417
421
425
428
429
429
427
417
411
403
397
387
376
369
359
348
337
326
315
305
294
283
273
259
251
241
226
215
201
190
179
168
158
147
144
150
187
257
380
522
662
765
842
895
925
936
935
924
911
891
868
844
818
792
762
730
698
660
618
570
524
481
445
413
385
363
349
337
331
326
321
319
317
313
306
295
289
278
270
261
249
238
229
218
207
197
183
175
164
154
143
132
126
115
108
98
87
80
70
62
56
46
38
32
36
63
128
237
384
534
662
758
834
867
888
899
896
883
867
845
821
794
768
741
710
676
639
606
571
542
514
488
467
449
443
435
429
428
428
429
433
436
437
436
431
425
420
412
401
392
384
373
367
356
345
334
323
313
302
289
281
270
257
245
233
222
213
201
187
177
167
162
168
210
287
405
548
679
786
860
908
931
943
943
935
917
896
875
848
821
790
760
730
722
651
606
558
509
464
425
395
368
349
333
319
313
306
301
297
295
287
281
271
263
253
238
227
213
202
191
177
164
148
136
124
108
96
80
67
52
40
24
12
0
0
0
0
0
0
0
0
0
0
0
48
140
269
397
497
575
630
659
675
682
690
690
682
671
658
642
619
592
562
524
487
453
423
396
373
348
331
317
307
305
301
297
297
297
297
299
297
297
297
297
297
294
293
293
290
289
289
289
289
287
285
281
281
278
277
279
298
333
428
554
698
836
951
1003
1023
1023
1023
1023
1023
1023
1023
1023
1023
1020
1007
987
960
931
895
860
817
778
737
700
670
640
619
602
591
583
578
576
574
566
556
548
538
522
505
489
477
461
445
425
409
397
380
361
341
323
310
301
289
275
265
251
243
237
241
275
337
457
591
722
826
904
951
979
992
995
983
969
955
935
916
895
873
849
826
794
760
718
675
632
594
558
523
497
481
468
461
456
453
449
444
441
441
432
424
413
403
392
377
367
356
341
330
317
305
293
277
265
253
239
225
213
197
185
170
159
144
130
119
104
107
131
193
302
444
582
702
788
846
879
895
899
892
876
859
837
813
790
762
733
726
675
643
606
563
520
485
449
417
389
364
348
337
331
329
325
321
318
317
311
303
293
286
275
269
258
247
237
226
218
209
198
190
181
170
159
148
135
127
116
106
95
84
74
63
52
43
35
40
80
158
277
425
570
690
770
824
855
871
873
867
849
828
806
784
757
730
702
667
634
602
567
534
501
472
441
421
405
393
384
376
369
365
365
361
356
351
345
334
323
313
302
289
277
261
247
237
221
205
193
178
164
148
131
112
96
84
68
52
32
16
8
0
0
0
0
0
0
7
52
148
278
409
522
602
652
690
701
706
706
698
682
666
644
623
602
574
544
514
496
448
421
392
373
357
348
343
337
338
341
345
351
356
357
361
361
361
356
353
349
344
341
337
329
326
325
321
318
309
307
302
297
286
275
269
263
282
325
427
558
702
826
931
995
1023
1023
1023
1023
1023
1023
1023
1020
1007
984
955
927
899
867
830
788
745
706
666
634
606
578
562
550
544
539
534
528
523
518
511
497
485
469
453
437
421
405
389
373
355
341
327
319
309
294
283
269
258
247
237
226
215
221
250
319
429
566
697
810
883
936
963
979
979
971
959
943
923
901
880
855
832
802
770
736
693
650
603
566
530
497
471
449
436
431
429
425
428
433
432
427
421
415
404
393
383
369
357
345
331
321
309
293
281
266
255
241
226
213
197
186
173
156
146
132
120
114
130
173
273
401
546
670
769
834
875
891
895
888
875
855
833
812
786
764
734
706
675
646
610
571
531
493
453
421
393
369
353
341
331
326
321
319
314
309
298
287
281
270
257
245
233
219
205
193
177
164
150
139
124
110
99
84
74
63
48
38
27
16
7
2
0
0
0
0
3
24
100
229
389
542
660
749
814
840
853
859
846
828
806
785
761
734
702
672
642
606
574
542
511
481
457
436
417
401
400
397
397
408
419
425
431
436
437
435
427
417
408
403
393
380
372
361
351
339
329
318
307
297
286
273
261
250
239
225
214
203
189
179
171
164
174
219
305
432
568
706
796
865
911
928
936
935
923
907
887
864
837
810
784
754
718
679
636
590
543
497
453
420
388
361
343
329
321
311
306
305
299
294
285
278
267
257
246
235
225
209
195
181
170
156
140
128
112
100
86
72
56
39
23
8
3
0
0
0
0
0
0
0
0
6
67
181
309
435
530
602
644
674
689
694
698
692
680
666
646
627
606
574
542
505
472
437
409
379
355
341
326
315
309
303
301
301
302
305
305
305
305
305
305
302
297
295
293
293
291
286
285
281
278
277
274
269
265
263
261
261
267
302
377
496
638
786
896
979
1023
1023
1023
1023
1023
1023
1023
1023
1017
1003
980
953
927
896
864
822
780
740
698
660
628
602
582
566
558
550
547
546
539
531
526
514
500
485
471
457
441
424
405
385
373
355
341
330
317
305
294
281
269
257
243
233
221
207
201
202
229
293
407
543
686
790
871
927
955
968
971
964
951
935
913
892
871
848
824
798
766
732
690
647
607
566
532
497
469
451
437
429
425
425
425
431
433
429
424
416
405
395
384
373
359
348
333
322
311
297
282
269
257
245
229
217
205
191
177
164
151
140
126
112
100
86
75
64
66
84
144
251
396
542
668
762
830
867
885
891
880
867
846
821
797
770
742
710
702
651
622
590
556
519
485
448
413
385
360
344
333
323
321
317
313
310
305
299
291
281
270
259
249
238
225
213
202
189
177
164
151
140
128
115
104
90
79
68
62
51
36
30
19
12
3
0
0
0
0
0
0
38
124
267
425
570
690
768
818
848
861
863
856
840
818
796
766
738
710
678
646
608
576
546
515
485
457
433
417
405
401
399
405
411
419
425
435
435
433
432
427
421
411
403
393
384
376
365
356
348
337
330
319
305
298
287
273
262
251
241
230
219
209
197
183
173
162
151
144
143
159
213
311
445
594
710
806
875
912
933
939
936
925
907
885
861
834
808
778
746
713
672
630
583
540
497
464
429
397
375
351
337
326
318
313
307
302
297
291
286
277
267
259
249
238
227
213
202
191
177
166
152
140
128
112
100
84
71
60
44
28
16
4
2
0
0
0
0
0
0
0
0
0
0
0
24
108
235
364
481
564
628
670
698
714
722
726
718
702
685
660
634
600
563
526
489
457
425
393
367
345
325
311
301
293
290
289
289
289
293
293
293
293
294
297
297
297
297
297
295
293
293
291
289
289
285
285
285
278
267
257
255
258
285
349
453
590
732
855
951
1001
1023
1023
1023
1023
1023
1023
1023
1023
1013
992
967
940
913
883
844
801
758
720
679
646
614
587
570
555
547
542
534
531
530
523
512
497
487
476
461
445
429
417
401
388
377
365
355
345
334
323
313
298
287
277
266
255
241
230
222
217
226
266
353
472
611
742
842
915
963
983
991
995
984
973
955
937
916
891
868
841
814
786
754
718
675
635
594
560
528
505
485
472
465
457
457
453
448
443
437
432
424
417
407
396
385
375
361
349
337
326
317
301
287
277
262
251
241
226
215
201
190
179
164
152
136
128
118
110
112
154
234
353
500
636
746
826
875
903
911
911
903
889
868
846
824
794
766
738
706
674
636
602
566
524
487
453
424
403
381
367
359
349
348
345
345
339
331
325
314
306
297
285
271
261
249
235
225
214
203
193
182
171
160
150
139
132
122
108
100
90
82
72
62
51
40
31
23
16
8
14
40
107
219
365
514
642
738
801
841
859
867
861
850
833
812
786
764
734
706
674
642
634
574
542
509
481
455
437
419
405
401
399
404
409
415
417
421
420
417
417
408
400
393
387
376
365
359
348
341
330
319
309
298
287
277
265
251
241
229
215
205
191
183
173
158
147
132
126
115
104
94
83
72
62
51
40
30
22
12
7
10
40
98
207
349
499
632
742
796
836
855
863
857
842
821
800
774
742
710
678
642
610
578
547
518
485
449
420
389
369
351
333
323
315
309
299
294
293
286
278
273
267
259
249
239
231
221
214
203
193
182
171
160
150
139
128
118
104
92
80
67
56
44
31
20
11
3
0
0
0
0
0
0
20
91
206
349
489
610
706
764
801
822
828
828
814
797
773
746
718
686
650
608
574
538
505
473
445
420
396
373
361
348
337
335
333
333
337
337
337
341
344
345
344
338
333
327
319
313
307
302
297
290
282
277
271
263
253
243
238
233
229
242
273
357
472
610
752
869
951
1004
1020
1023
1023
1023
1023
1023
1023
1015
993
972
947
921
895
859
821
781
742
701
660
630
600
579
558
546
535
530
528
523
518
508
503
493
479
468
453
441
428
421
411
400
393
383
375
365
355
344
333
322
311
301
287
279
269
265
275
305
395
512
646
768
869
935
977
999
1011
1012
1004
995
977
956
935
913
892
871
844
814
778
736
693
650
610
575
546
516
497
485
479
473
469
468
463
453
443
432
421
411
400
385
375
364
353
343
329
317
306
293
281
269
255
245
233
217
205
190
179
168
154
143
128
118
107
100
110
152
245
367
511
650
750
825
875
893
899
899
888
875
855
833
809
778
752
722
694
664
627
590
547
507
469
432
400
373
353
337
325
317
314
309
305
302
293
287
279
273
262
249
237
226
213
201
189
175
160
148
132
116
102
88
72
56
40
24
12
4
0
0
0
0
0
0
0
0
32
112
241
369
485
576
632
670
694
705
714
709
701
686
670
651
630
602
570
538
505
476
449
419
395
373
355
344
337
333
330
329
330
333
337
337
339
341
337
337
337
331
329
329
327
325
321
317
314
313
309
303
293
286
275
269
269
274
317
396
514
658
786
893
975
1012
1023
1023
1023
1023
1023
1023
1015
995
973
952
927
903
871
834
792
749
706
667
630
594
567
543
522
508
500
497
493
491
481
476
468
453
441
425
413
397
381
365
353
343
333
321
307
297
282
271
261
250
237
221
214
203
189
178
164
160
160
190
249
365
504
646
762
848
907
941
955
959
956
943
927
909
888
867
844
817
790
756
716
678
635
592
554
514
487
465
448
440
437
433
436
445
447
449
449
449
444
437
427
419
409
399
388
377
367
356
345
330
319
309
297
283
269
258
247
233
222
209
197
186
173
160
150
147
164
225
321
453
596
717
810
871
908
931
932
929
915
895
876
855
828
801
774
750
716
666
623
580
542
501
467
433
408
387
365
355
344
337
335
327
321
315
310
301
290
279
269
257
243
233
222
209
197
186
175
160
150
139
132
122
111
100
90
82
72
62
54
48
39
31
24
22
35
76
163
289
441
574
689
774
822
852
863
865
857
842
825
804
778
756
729
698
666
634
606
574
542
509
483
459
437
423
412
409
408
403
401
405
405
401
396
388
377
368
360
345
330
319
305
294
281
265
253
237
225
214
201
185
173
159
148
132
119
108
94
83
72
70
91
132
234
368
514
644
749
818
867
891
899
901
893
883
861
840
818
792
765
738
706
676
646
618
586
558
527
500
481
467
459
457
453
453
457
459
461
461
457
455
449
444
436
425
420
412
405
395
384
377
371
360
349
338
327
317
306
295
285
274
263
253
243
241
253
311
405
526
660
781
867
925
960
975
979
973
963
941
920
899
872
845
818
792
762
726
684
638
590
546
497
457
421
389
361
339
323
309
297
283
277
267
259
253
242
231
221
210
199
185
173
156
144
134
120
104
92
79
64
48
32
16
4
2
0
0
0
0
0
0
28
118
241
369
485
574
642
674
696
706
706
704
690
674
655
634
612
588
558
526
509
457
431
404
381
365
352
341
335
333
333
334
337
341
345
345
345
345
343
337
331
329
325
323
318
313
309
306
301
297
294
289
287
282
277
278
307
377
489
626
774
884
969
1015
1020
1023
1023
1023
1023
1023
1023
1020
1007
984
960
935
907
875
834
792
752
710
676
642
614
592
574
566
556
551
550
543
535
526
514
500
485
471
457
441
425
409
393
377
361
345
333
317
305
294
281
269
253
242
233
225
230
269
347
469
606
730
829
907
943
967
979
979
973
963
945
924
903
880
856
834
808
778
742
700
659
618
579
544
514
492
476
465
456
451
449
445
445
445
439
431
421
411
400
389
375
361
349
338
327
313
302
291
277
266
253
241
229
213
197
185
171
160
150
142
148
185
273
401
542
670
778
840
883
903
912
912
903
885
864
842
818
789
762
736
706
670
631
588
550
512
477
445
420
399
381
371
360
353
349
347
341
334
326
321
309
295
285
274
263
253
242
231
221
210
199
189
178
167
160
150
139
128
118
107
96
86
75
64
56
54
68
119
215
349
497
628
726
794
837
855
867
867
859
842
824
802
780
756
726
696
666
658
590
558
522
493
464
441
421
405
401
396
391
389
385
385
381
380
372
361
348
339
329
313
299
285
274
261
245
234
221
209
198
187
177
164
154
144
134
123
112
103
95
84
78
67
56
59
80
132
234
376
526
656
756
826
868
892
903
896
885
871
849
828
806
780
753
722
694
678
622
590
558
530
500
476
453
433
423
417
416
413
413
417
417
413
408
403
393
387
376
365
353
337
329
318
307
297
281
270
261
249
235
225
214
203
193
182
171
160
154
143
132
123
115
112
124
173
253
389
531
666
766
838
883
912
917
919
908
895
875
853
832
806
778
746
714
680
643
606
567
530
493
463
439
417
399
388
381
377
375
369
368
363
357
347
335
325
314
301
289
277
263
253
237
223
209
194
181
164
148
132
116
104
88
72
58
44
32
18
7
4
0
0
0
0
0
0
0
0
0
40
131
265
392
501
582
634
666
682
690
690
682
666
650
630
607
583
554
522
489
481
417
388
361
341
327
317
307
299
297
301
303
305
307
313
313
313
313
313
313
310
309
305
302
297
295
293
289
287
285
285
281
278
277
271
269
273
298
349
441
570
712
838
940
999
1023
1023
1023
1023
1023
1023
1023
1023
1020
1003
981
957
931
904
875
834
792
752
714
678
648
622
606
592
586
580
575
574
567
559
550
539
528
514
497
481
465
449
433
417
401
385
365
349
335
325
314
301
289
278
265
253
241
233
237
275
348
461
594
720
822
897
943
975
980
983
975
963
947
931
909
885
863
840
813
786
770
717
674
631
591
554
524
503
481
471
463
457
456
451
445
441
439
429
419
411
401
389
376
365
351
339
329
314
303
289
278
265
249
238
225
213
201
185
173
160
147
136
127
130
168
242
365
505
636
744
826
867
891
903
901
891
875
853
832
810
782
753
722
690
655
618
580
543
501
464
429
397
376
355
341
331
323
321
317
314
309
302
291
281
270
257
245
230
217
201
186
173
156
144
131
116
100
84
72
56
40
24
8
0
0
0
0
0
0
0
0
0
0
0
4
47
144
286
420
522
595
640
666
680
686
686
675
664
650
628
607
582
554
522
514
457
425
397
371
347
329
314
306
301
297
297
301
301
301
305
309
309
309
305
302
297
295
293
289
287
282
281
277
274
273
266
261
257
255
253
249
258
287
353
465
602
746
857
948
1003
1020
1023
1023
1023
1023
1023
1021
1008
987
965
944
919
904
861
822
780
737
694
660
626
598
576
558
550
542
539
534
527
519
514
501
488
473
459
445
429
412
393
377
367
356
345
334
321
309
298
287
277
265
251
241
226
215
209
210
239
309
423
559
698
797
875
927
955
968
971
964
951
935
917
899
879
857
836
814
800
757
718
675
632
590
556
524
497
479
465
457
453
453
453
457
457
453
448
440
429
419
408
397
383
372
357
347
335
321
309
293
281
270
257
241
229
215
205
193
177
164
150
136
124
119
122
148
233
351
489
627
740
814
863
887
895
896
885
871
849
828
806
776
749
718
686
654
622
583
540
501
461
427
397
368
349
333
326
318
313
313
310
305
299
291
285
274
263
249
242
231
225
214
203
197
186
178
168
158
147
136
127
119
108
95
87
76
66
55
44
47
74
136
250
392
534
660
754
818
855
873
879
872
859
842
821
797
774
746
714
682
650
634
578
546
511
481
456
437
421
416
411
405
407
409
413
417
417
417
413
408
397
391
380
373
363
349
337
326
315
305
293
279
269
257
243
233
222
211
201
186
175
160
150
139
124
114
100
88
78
67
56
50
52
80
152
265
413
566
686
774
833
865
883
881
873
855
833
809
782
756
726
694
670
638
598
566
534
501
467
437
409
384
363
341
330
319
313
311
303
301
295
290
281
270
262
253
242
231
221
210
199
189
174
163
148
138
124
108
92
76
64
50
36
20
8
0
0
0
0
0
0
0
0
0
0
0
4
50
144
274
405
505
580
634
670
692
705
710
710
705
690
672
651
626
594
556
546
481
449
421
391
364
341
325
311
301
294
289
289
290
293
293
297
297
297
301
301
297
297
297
297
297
297
297
293
293
293
287
285
281
281
275
269
262
275
313
396
516
662
793
903
983
1017
1023
1023
1023
1023
1023
1023
1023
1023
1009
988
967
936
909
903
844
801
758
717
682
650
619
595
582
571
563
562
556
554
550
539
528
518
503
492
477
461
445
425
413
397
381
363
352
341
330
319
309
297
283
273
261
247
241
242
269
329
437
566
702
808
891
947
975
991
995
988
977
963
945
924
903
880
856
834
820
772
730
692
648
606
572
538
509
491
477
469
461
459
457
451
445
441
436
428
417
407
396
385
375
364
349
338
325
309
297
281
269
258
245
229
217
203
193
181
164
152
138
127
112
102
94
100
147
230
353
500
639
742
816
861
887
892
892
883
861
840
818
792
765
734
714
685
646
619
584
546
504
467
433
404
383
361
349
338
333
331
329
329
319
314
309
302
291
281
274
263
257
246
235
229
218
207
197
185
174
164
155
147
136
123
115
104
98
87
72
66
55
48
39
31
44
84
167
293
445
590
706
782
836
867
883
883
875
861
842
822
800
773
746
718
702
650
618
586
554
522
492
465
445
432
421
409
407
405
405
408
413
412
409
405
399
388
381
371
357
345
333
322
313
297
283
273
258
247
237
226
215
201
190
179
168
158
147
140
130
119
108
98
90
84
111
164
265
403
550
682
778
845
891
907
915
915
903
884
863
840
813
782
762
730
686
655
626
590
550
515
481
449
420
397
385
372
365
360
355
353
352
347
341
334
323
313
302
291
281
266
255
245
229
215
201
190
177
160
146
132
120
104
88
72
56
43
28
14
6
0
0
0
0
0
0
0
90
205
333
455
556
626
674
698
710
714
712
702
690
671
650
624
600
570
538
505
469
443
419
393
375
361
353
345
343
341
344
349
353
353
353
357
357
357
357
353
351
345
344
341
341
335
333
333
329
326
325
313
302
293
287
285
297
335
419
542
684
817
935
996
1023
1023
1023
1023
1023
1023
1023
1023
1021
1008
983
960
931
899
860
817
774
736
696
658
630
603
582
568
560
554
550
547
542
535
524
514
501
485
469
455
441
425
408
389
385
357
341
325
314
303
293
282
271
261
249
235
225
227
243
301
393
524
662
781
869
935
965
984
991
988
975
963
945
924
903
880
856
830
802
786
734
692
648
606
570
538
505
489
476
465
460
455
453
448
443
441
435
427
417
405
392
381
367
356
345
330
317
301
290
279
265
250
237
225
214
201
185
173
159
148
132
119
112
118
147
221
335
477
626
732
814
867
895
908
911
904
888
867
844
820
794
768
744
714
697
646
606
567
527
489
457
431
409
391
377
369
361
359
357
356
351
345
335
327
317
311
295
285
274
263
261
242
231
221
210
197
189
178
164
152
140
130
120
110
99
88
75
67
56
46
38
28
36
66
136
257
409
554
678
766
826
857
873
879
868
855
834
824
789
758
732
702
694
634
602
570
538
503
473
447
423
405
393
383
377
372
369
365
361
359
353
347
335
325
314
301
285
274
269
249
237
221
209
197
183
168
152
139
124
118
99
84
70
59
56
38
27
12
3
0
0
3
27
84
173
319
509
638
737
806
825
871
875
877
867
863
829
808
782
754
738
694
670
635
594
570
538
497
476
455
441
437
427
429
435
440
441
447
449
449
448
445
433
427
419
413
405
397
385
375
364
353
349
335
325
314
303
301
282
271
257
246
235
225
214
203
193
185
179
181
221
298
417
487
690
798
873
921
931
960
960
951
933
923
891
868
841
814
794
762
722
684
640
594
571
507
465
428
396
389
353
343
337
331
329
321
315
310
305
297
289
277
265
251
241
234
215
205
190
179
177
152
139
124
112
104
84
68
52
40
28
15
0
0
0
0
0
0
0
0
0
0
0
0
16
80
136
333
445
534
598
626
650
674
675
678
670
663
642
622
600
576
570
518
501
449
423
409
369
352
333
321
317
311
305
305
305
309
309
309
309
309
309
309
307
305
301
299
297
297
293
290
289
285
282
277
275
273
269
267
265
269
294
351
369
572
714
846
948
983
1023
1023
1023
1023
1023
1023
1023
1023
1023
1015
1003
965
939
907
872
863
789
749
710
674
658
618
598
584
574
570
564
558
552
547
538
531
512
497
481
465
461
437
421
405
389
381
357
339
323
313
305
291
277
269
258
253
235
219
209
211
241
253
412
546
682
796
838
931
960
976
979
979
968
951
929
908
887
875
837
810
782
748
738
663
620
582
542
526
485
465
452
441
437
435
437
439
441
441
439
431
421
411
400
397
379
368
353
341
333
313
302
289
277
265
251
237
225
211
201
194
175
160
146
135
132
114
103
100
120
144
281
419
563
694
762
826
887
901
907
903
895
868
846
825
798
790
738
706
674
642
626
574
535
495
453
429
403
373
353
339
333
329
318
317
313
310
309
294
283
273
262
257
241
230
217
205
197
183
168
156
140
124
118
99
84
68
55
52
30
16
4
3
0
0
0
0
0
16
88
221
379
526
642
682
789
818
833
841
842
826
808
786
764
750
710
678
643
610
578
540
497
467
443
421
413
392
385
381
384
385
400
411
417
423
425
429
429
429
425
417
409
397
392
384
373
369
356
345
334
323
321
302
291
281
270
265
249
238
225
213
205
194
181
170
164
168
189
266
381
523
662
694
861
920
951
968
971
963
951
935
915
899
875
842
816
789
758
740
680
638
595
555
546
485
456
433
424
421
417
413
416
417
417
415
409
404
396
385
380
364
353
338
327
325
301
287
273
258
253
233
222
209
197
189
175
160
150
139
128
124
111
100
90
79
76
63
60
68
110
144
313
459
600
722
782
836
887
897
903
895
888
864
842
820
793
786
736
706
674
642
626
582
550
518
485
465
439
413
399
388
381
379
371
369
365
360
357
343
331
321
310
305
285
274
261
245
237
223
205
193
177
164
158
136
120
106
92
88
66
52
36
26
20
4
0
0
0
4
42
116
227
353
469
514
631
674
698
709
710
709
701
686
664
654
622
595
568
538
514
481
445
419
395
377
371
352
349
345
351
353
367
372
377
379
381
385
385
383
381
377
375
369
364
361
357
355
347
337
330
319
317
298
287
277
267
265
273
314
397
518
626
762
915
989
1016
1023
1023
1023
1023
1023
1023
1023
1023
1012
991
963
947
903
868
825
782
750
713
666
634
604
582
575
556
550
544
539
538
528
520
509
499
493
473
457
441
425
413
397
377
357
341
329
322
303
293
278
267
265
241
227
221
217
217
265
347
469
606
702
801
907
945
969
979
979
973
963
945
927
923
884
860
834
808
794
742
700
656
614
586
554
514
493
475
461
459
451
449
445
448
449
444
436
429
423
417
401
391
380
369
361
348
333
321
307
297
290
269
257
242
231
229
206
195
181
170
164
144
134
120
108
104
102
112
173
271
409
481
688
786
852
892
899
916
913
903
885
875
842
820
793
766
742
713
674
640
603
566
548
495
465
440
421
417
399
393
393
393
393
393
389
387
381
373
365
353
344
335
325
319
303
293
286
275
273
254
243
233
222
217
201
190
177
164
156
146
132
123
115
108
114
143
213
327
467
501
716
798
850
879
887
895
888
875
855
838
814
782
752
725
690
674
626
594
559
519
509
448
416
389
369
361
345
337
334
333
329
326
321
315
310
305
301
287
277
271
263
261
246
235
229
222
217
201
191
186
177
168
158
144
135
127
116
111
98
96
106
146
160
345
484
618
724
766
850
877
888
891
887
876
855
833
812
786
773
730
698
667
638
630
578
543
509
479
465
433
419
411
409
405
408
413
413
413
413
411
403
397
391
380
377
359
348
341
330
325
309
298
287
277
269
255
241
230
219
209
202
183
173
158
147
144
132
143
181
266
325
534
638
692
838
871
895
915
912
901
883
872
840
814
788
758
750
694
678
618
576
558
493
456
421
389
369
348
325
314
306
301
298
290
285
279
271
269
254
243
233
222
217
197
186
173
156
148
135
120
108
92
76
70
48
36
20
10
8
0
0
0
0
0
0
0
0
0
8
72
197
333
459
558
590
675
702
721
729
730
728
717
698
676
666
626
591
548
505
481
449
409
379
355
333
326
307
301
297
297
297
302
305
309
310
313
317
317
317
317
317
317
317
315
313
313
311
309
309
305
302
301
286
281
281
301
325
461
590
729
859
931
984
1023
1023
1023
1023
1023
1023
1023
1023
1015
1011
972
948
923
905
871
814
776
736
694
670
638
606
590
576
570
567
559
558
552
544
542
523
509
493
481
473
449
432
413
397
385
372
357
347
341
325
318
299
289
273
259
257
257
286
349
456
518
710
816
891
939
963
973
983
973
965
951
941
915
895
873
849
842
794
757
714
671
650
590
554
524
497
481
468
453
452
449
445
444
439
437
431
420
417
399
388
373
361
353
333
322
309
293
285
271
257
241
227
217
210
191
177
162
148
144
122
111
100
106
116
213
330
477
618
702
780
855
879
889
891
885
864
842
821
797
790
740
710
682
654
638
586
547
507
465
441
409
369
349
335
325
322
314
309
305
302
301
286
275
265
253
245
225
213
197
185
173
159
144
128
112
96
88
64
48
32
16
12
0
0
0
0
0
0
0
0
0
0
51
160
298
365
526
559
647
674
688
693
694
684
670
654
632
622
586
558
526
485
461
432
393
367
343
325
318
299
297
293
293
293
298
301
305
305
305
309
305
302
301
297
297
293
287
285
281
279
274
273
267
262
261
251
249
253
271
293
417
543
688
818
895
961
1023
1023
1023
1023
1023
1023
1023
1013
992
987
948
921
895
879
846
786
744
704
666
642
612
582
562
548
542
540
535
530
524
516
514
491
477
461
445
437
413
396
377
365
357
344
329
318
307
297
290
271
261
249
238
233
221
231
273
363
421
626
748
841
911
939
957
975
968
957
943
933
904
883
857
836
830
788
774
722
680
662
602
566
534
505
489
476
461
456
453
445
447
449
449
443
432
429
411
400
385
373
365
345
334
321
305
297
283
269
253
239
229
222
201
189
174
160
156
134
126
124
146
173
321
455
594
626
778
834
887
897
900
891
883
856
834
813
789
782
734
702
674
644
626
570
531
491
457
433
409
385
371
360
353
352
347
345
339
334
333
314
303
293
287
277
257
246
233
221
213
202
189
178
167
156
152
139
128
118
107
104
86
75
68
58
52
36
28
36
64
120
235
405
550
670
758
782
844
859
863
857
855
821
800
778
752
738
694
662
627
618
566
534
493
467
443
421
416
403
401
399
404
405
407
409
405
403
397
385
379
368
357
349
338
325
313
305
289
283
267
257
246
235
233
210
199
189
178
173
156
146
135
124
120
120
144
215
322
457
524
714
802
861
893
899
911
905
895
873
863
826
800
773
766
722
690
650
608
568
530
512
461
429
408
389
385
367
361
357
356
353
345
339
334
325
317
303
289
277
261
249
242
221
205
189
175
173
144
128
112
104
88
68
52
36
16
8
3
0
0
0
0
0
0
0
48
147
177
400
509
590
638
654
682
690
690
682
670
648
622
600
576
546
530
481
473
417
388
373
337
323
313
311
309
317
322
327
333
337
343
349
348
345
341
339
334
333
327
322
321
311
309
305
301
298
289
283
278
273
269
263
253
255
261
325
379
555
702
826
925
947
1015
1023
1023
1023
1023
1023
1023
1015
995
979
955
923
891
875
818
797
736
694
656
622
614
570
551
538
532
530
522
516
511
509
493
483
469
453
437
421
413
389
373
363
352
349
326
315
305
294
289
269
258
247
237
229
218
205
219
259
345
408
603
734
832
901
915
971
979
983
977
967
943
925
904
883
863
838
806
792
741
698
676
615
578
542
512
505
477
467
461
456
453
453
453
453
449
441
433
421
409
396
385
379
360
349
337
323
317
294
281
265
254
249
229
218
205
189
181
167
152
142
134
140
164
258
377
518
648
678
833
879
903
912
915
899
885
867
846
830
806
774
748
734
682
663
607
566
528
493
485
436
415
401
392
389
381
377
375
373
373
365
353
343
331
321
314
293
281
269
255
253
234
223
209
198
193
173
162
151
148
132
122
108
98
87
76
72
62
72
120
206
233
477
614
726
804
830
875
887
884
875
863
841
810
788
761
734
720
690
642
614
582
574
518
488
461
448
421
397
384
379
377
373
371
365
360
355
345
339
323
313
298
287
285
262
251
237
226
221
205
194
186
177
168
155
140
130
119
108
103
87
80
76
87
92
210
335
485
627
686
818
871
897
911
915
904
883
861
840
814
800
757
726
698
663
654
598
566
534
503
489
449
435
424
417
413
413
413
415
417
417
415
407
401
395
384
381
367
356
341
330
325
309
298
287
277
269
255
241
229
215
205
198
179
168
154
143
140
118
112
112
132
156
293
431
572
606
770
829
883
897
903
895
887
860
838
813
789
782
730
698
666
636
618
558
519
479
441
417
391
361
341
327
317
313
302
297
293
290
289
274
263
253
247
237
221
206
195
181
173
159
144
134
123
108
102
83
72
58
47
44
22
11
0
0
0
0
0
0
0
0
43
136
259
385
489
527
626
658
670
675
678
671
658
642
620
610
578
550
518
485
461
429
389
368
347
329
323
307
305
301
301
301
302
305
305
306
309
309
309
306
305
305
302
297
295
293
289
287
282
277
273
270
269
263
258
253
247
245
257
305
399
530
642
778
931
1001
1023
1023
1023
1023
1023
1023
1023
1023
1016
1000
975
951
935
887
852
809
798
734
697
650
619
595
574
567
554
546
534
531
530
522
511
497
491
477
457
441
425
409
401
385
365
355
344
333
329
315
305
290
279
277
258
247
241
246
257
349
459
592
722
802
880
955
979
989
995
989
973
955
937
916
911
873
852
826
798
782
726
705
640
598
570
551
501
483
477
465
461
451
449
445
435
429
416
408
401
391
385
365
355
344
329
321
307
301
281
267
257
250
229
217
202
189
185
164
154
136
126
120
120
143
237
357
465
599
746
817
846
895
900
911
899
881
860
855
818
794
762
746
714
666
632
595
554
526
488
441
415
391
373
367
353
345
341
338
337
333
327
321
310
305
293
287
269
265
249
238
233
213
205
189
183
173
164
148
138
132
116
106
88
83
72
60
52
58
60
140
255
421
566
630
774
800
864
879
880
872
867
842
821
790
777
750
706
692
643
634
586
554
538
499
469
433
428
409
385
377
375
373
368
365
365
363
357
345
339
321
317
301
290
285
265
257
241
235
225
209
201
190
185
168
158
144
139
128
116
114
100
96
84
92
96
198
249
457
524
714
802
846
879
895
907
899
883
872
850
818
805
765
758
730
682
666
612
594
542
526
493
469
444
417
409
396
393
393
395
397
397
396
391
389
373
363
357
337
329
313
306
293
273
261
245
237
217
201
181
173
156
136
128
104
100
80
67
60
43
40
72
110
243
273
497
626
690
818
859
867
883
891
879
871
844
838
802
776
762
706
690
634
615
578
530
509
483
469
451
440
433
431
425
425
429
429
429
429
427
425
417
409
397
393
385
369
365
355
349
333
322
313
307
297
281
275
259
257
241
227
221
202
197
185
194
213
325
355
483
618
745
833
895
928
944
951
944
920
911
879
852
838
792
778
754
710
670
606
574
528
505
445
411
369
361
345
329
325
314
313
309
303
301
289
281
265
259
249
229
217
206
201
181
175
152
144
128
108
102
80
76
52
39
32
10
4
0
0
0
0
0
0
0
0
0
0
0
0
36
126
193
293
473
551
630
654
662
674
672
670
666
638
616
606
570
540
501
484
449
425
403
368
357
337
318
313
307
305
305
305
307
309
313
313
313
313
310
309
305
302
297
295
293
289
285
282
281
277
274
273
266
261
257
255
253
269
302
439
489
627
766
955
975
1015
1023
1023
1023
1023
1023
1023
1023
1023
1015
995
968
941
911
855
833
758
748
708
666
634
594
582
563
552
546
534
531
526
523
515
505
485
472
465
451
437
421
405
389
373
359
345
341
330
317
309
298
287
277
265
251
233
225
219
213
207
229
285
388
519
662
777
868
931
968
987
991
988
977
959
936
915
899
876
852
826
796
769
730
688
647
606
560
526
505
477
469
461
452
447
445
445
445
445
440
435
425
416
408
397
387
376
361
351
339
329
318
305
293
281
265
253
241
227
217
201
187
177
162
151
140
138
162
213
322
456
598
718
809
867
899
912
915
907
891
871
849
828
802
772
742
714
679
636
594
556
516
477
441
407
377
356
337
325
314
306
301
299
294
289
279
271
261
250
239
225
214
201
185
173
156
144
128
112
96
84
68
52
36
20
8
0
0
0
0
0
0
0
0
0
12
74
189
321
439
538
600
643
666
675
678
682
671
660
646
624
603
582
554
522
485
451
421
393
364
345
325
314
306
301
299
297
297
297
299
301
301
301
297
297
297
293
287
285
285
281
278
277
271
269
265
263
261
257
253
253
261
291
356
457
602
744
871
961
1012
1023
1023
1023
1023
1023
1023
1023
1021
1011
991
965
941
911
879
844
802
761
721
682
646
614
590
574
558
546
539
531
526
519
508
497
483
472
457
441
425
409
393
377
361
341
325
313
302
291
281
269
255
245
234
223
213
198
187
185
205
261
353
488
624
746
836
900
935
952
957
959
947
933
919
897
876
850
824
797
770
738
701
658
615
572
534
503
473
449
435
427
425
427
429
433
433
433
429
420
412
401
391
380
365
355
344
329
318
305
293
278
265
249
237
223
213
201
187
177
162
151
140
126
115
104
108
138
209
325
472
606
721
801
855
884
895
895
884
868
846
825
801
778
752
722
686
659
630
598
560
520
481
445
413
389
364
348
337
327
325
321
313
310
305
298
287
277
270
259
245
233
217
205
194
181
164
152
139
124
108
92
76
62
51
36
20
10
0
0
0
0
0
0
0
0
11
48
156
287
417
520
598
642
672
686
690
684
670
650
628
607
582
554
522
489
456
421
389
357
330
313
294
283
277
274
282
293
303
311
321
326
331
337
335
330
329
323
318
317
310
302
297
295
293
289
279
274
273
267
262
257
251
251
273
333
437
574
714
834
931
992
1019
1023
1023
1023
1023
1021
1013
995
973
949
923
896
867
830
796
753
710
671
631
598
570
546
530
519
511
505
500
495
489
479
468
453
443
429
413
397
379
365
351
339
329
317
306
297
285
271
261
246
235
225
210
199
189
182
182
205
265
372
509
646
764
855
908
943
959
960
960
947
931
912
891
869
848
822
796
764
726
685
644
602
563
526
493
467
448
437
436
433
437
441
444
445
440
435
425
419
408
397
387
373
361
351
337
325
313
299
289
278
265
253
238
227
217
201
187
173
162
156
156
187
257
373
505
642
754
832
883
911
920
923
915
899
880
859
837
813
782
754
722
690
655
610
566
523
483
449
421
397
381
371
363
357
353
351
349
349
347
337
330
322
317
306
295
289
278
270
261
249
235
225
209
195
185
170
156
144
130
119
104
94
83
68
59
51
52
76
140
249
397
544
674
764
822
859
875
875
867
853
832
810
788
764
742
716
686
654
619
590
558
526
496
469
449
433
421
408
403
401
397
397
397
396
391
385
379
365
353
343
329
317
301
287
273
261
245
233
218
205
193
177
163
148
138
127
116
106
95
88
78
67
56
46
40
36
54
102
197
329
487
626
733
810
867
887
895
899
887
871
850
829
805
778
750
721
690
658
626
594
563
534
501
476
455
433
421
408
401
400
395
393
393
391
381
375
364
353
341
327
317
302
289
277
261
247
233
221
205
189
173
156
144
132
116
100
84
71
60
40
27
16
4
2
8
50
122
225
357
480
582
651
700
726
738
741
738
726
710
690
668
647
618
587
558
522
489
457
425
404
383
365
352
347
345
352
363
373
384
392
397
403
405
401
401
399
393
389
387
377
376
368
357
347
335
325
314
303
293
282
274
265
265
275
321
409
538
682
813
917
999
1015
1023
1023
1023
1023
1023
1023
1017
999
976
952
927
896
867
826
784
741
698
660
626
594
572
556
546
536
528
526
522
519
509
499
488
477
461
445
429
415
401
385
368
352
341
330
319
305
294
281
273
262
249
237
225
214
205
206
219
265
353
484
626
749
842
919
951
972
983
981
971
959
937
916
895
872
848
822
794
760
722
679
639
598
560
526
493
473
460
449
440
435
437
441
441
441
435
427
421
412
404
393
379
368
357
343
331
317
306
295
281
270
257
245
234
221
209
193
179
168
158
150
152
181
255
373
508
639
758
825
871
899
908
911
903
889
868
846
822
796
770
740
710
674
635
592
550
511
471
433
407
383
361
347
335
333
329
329
325
319
314
305
295
287
277
262
251
241
230
219
205
198
187
177
166
155
144
134
126
116
104
94
84
74
63
52
43
38
44
83
163
281
436
580
698
782
841
871
883
885
879
863
844
818
797
770
742
712
682
646
615
586
554
526
496
469
451
437
429
421
419
417
420
425
425
425
425
421
412
404
393
387
376
361
355
344
329
318
305
293
282
271
261
250
239
229
218
207
197
182
171
160
155
155
168
238
345
477
619
737
818
876
908
923
924
913
899
877
856
830
804
777
746
714
679
642
598
550
505
464
427
397
368
347
329
317
309
305
299
297
293
283
278
269
262
249
233
222
211
197
185
168
156
146
132
112
100
87
72
56
40
24
11
3
0
0
0
0
0
0
0
0
0
0
0
16
76
203
337
457
539
600
638
664
675
678
679
668
654
636
615
594
566
534
497
461
432
405
379
355
333
318
307
301
293
290
289
289
289
289
289
289
289
289
286
285
285
282
281
277
277
273
273
273
269
265
262
261
257
254
253
262
294
357
463
602
742
865
956
1011
1023
1023
1023
1023
1023
1023
1023
1023
1015
993
967
935
907
875
834
793
753
714
676
642
614
588
572
558
552
547
542
536
531
522
511
500
485
475
459
441
425
409
393
376
357
341
329
318
309
299
291
281
266
255
245
234
223
209
202
194
193
217
273
377
509
648
770
855
913
947
965
971
967
956
943
923
901
880
855
832
808
782
749
709
666
623
583
546
514
487
465
451
440
433
437
440
441
445
445
437
432
424
413
403
392
381
371
357
345
334
323
309
297
283
273
258
247
237
222
211
197
185
171
160
156
162
205
285
405
550
676
776
850
889
911
919
916
905
891
869
848
822
800
773
746
713
675
634
591
548
505
468
433
401
380
359
345
331
326
321
317
314
309
302
294
285
274
263
253
242
229
217
205
191
181
170
159
148
134
123
112
102
91
80
70
59
52
42
31
24
16
22
44
122
234
381
528
656
746
810
842
859
867
861
846
825
804
782
760
730
702
674
639
606
572
540
509
479
455
433
415
404
401
397
400
401
401
401
401
396
388
381
371
360
349
333
319
309
297
281
265
250
237
225
209
195
181
168
155
144
134
120
112
102
91
84
82
106
156
269
408
554
686
780
846
887
908
919
917
907
891
869
848
826
800
773
742
705
672
642
608
571
538
503
476
453
439
431
425
425
428
433
433
436
437
432
427
421
411
403
393
383
372
361
351
339
329
318
307
297
286
275
265
254
241
229
218
205
193
181
170
160
156
167
213
301
432
574
698
794
867
899
920
927
923
907
887
865
841
814
788
761
730
697
659
618
574
526
481
440
405
373
352
330
317
307
299
297
293
293
293
286
278
273
263
255
245
231
223
213
206
195
181
174
163
156
150
139
132
122
114
104
98
90
80
71
66
60
51
46
52
95
178
297
451
595
714
802
861
891
903
905
903
885
864
842
821
797
770
744
714
682
654
624
594
566
536
509
484
463
449
440
435
433
435
437
437
437
435
425
416
408
397
383
372
357
345
329
313
293
277
261
245
229
213
197
181
164
148
132
116
102
88
76
68
76
100
178
285
413
542
651
722
770
794
806
809
804
794
773
752
730
700
672
642
610
575
534
500
465
433
403
373
353
337
323
317
311
309
313
318
321
321
321
318
317
313
310
305
303
301
297
295
290
289
285
282
277
266
258
253
242
231
221
214
225
261
338
453
590
708
809
879
919
945
955
957
949
939
921
903
883
860
833
802
768
725
682
635
590
542
508
473
445
427
413
405
397
400
401
405
405
405
404
399
389
380
372
361
356
348
333
326
315
309
298
285
277
266
255
245
233
219
209
203
206
241
310
433
578
714
824
911
957
989
1007
1012
1009
999
987
971
951
929
908
887
864
837
810
777
740
698
662
630
598
578
564
554
548
546
546
546
543
538
526
515
509
499
488
477
463
452
441
427
416
401
391
380
365
355
341
329
314
301
289
277
263
253
263
298
381
495
626
742
828
889
935
951
959
963
956
943
927
909
888
867
841
817
790
762
725
682
639
596
554
518
488
457
441
428
417
412
404
397
392
387
381
369
356
345
329
315
301
286
275
265
250
239
225
214
203
193
182
168
160
150
139
128
118
110
100
96
102
144
230
367
514
643
745
822
859
885
899
900
897
887
873
855
834
813
792
770
744
714
686
658
623
590
559
535
514
507
501
501
503
511
514
518
518
514
507
496
485
473
460
445
431
417
401
387
373
357
345
331
317
301
285
273
262
249
233
221
207
197
187
185
213
275
388
522
652
760
842
884
913
927
932
929
919
907
891
871
848
824
798
770
738
698
655
610
566
519
481
449
433
420
409
408
405
405
401
399
393
381
368
357
341
325
309
289
273
257
239
221
201
185
166
148
128
112
96
79
60
44
27
11
0
0
0
0
0
0
0
0
3
12
142
283
421
531
611
658
692
708
714
718
716
710
698
682
666
643
616
586
547
509
473
441
412
389
371
357
349
345
345
349
356
364
369
375
377
377
377
377
377
373
371
365
360
357
353
348
343
341
335
330
329
322
311
301
295
298
337
412
538
682
812
916
1003
1015
1023
1023
1023
1023
1023
1023
1023
1023
1023
1017
999
976
952
923
885
848
806
769
737
706
686
672
662
660
658
658
658
655
646
634
620
606
586
567
546
526
509
489
468
449
429
409
391
373
353
337
325
313
297
285
269
255
245
235
233
257
315
425
562
693
800
887
929
961
975
980
977
967
949
928
907
881
860
834
812
788
758
722
685
642
604
570
538
522
505
493
492
487
485
480
475
469
463
452
441
425
409
393
379
365
349
333
317
301
289
270
253
241
225
213
197
181
168
156
143
132
116
103
88
74
63
60
80
139
241
385
527
650
740
804
838
857
865
863
846
830
810
789
768
742
716
689
658
627
598
562
528
493
465
443
419
405
391
380
377
376
373
373
368
360
349
338
327
313
295
279
265
249
233
217
197
178
164
147
128
108
91
75
60
44
26
12
0
0
0
0
0
0
0
0
0
0
0
0
0
6
32
162
306
441
538
607
650
680
694
698
701
693
678
656
635
610
576
539
497
455
412
373
339
310
285
265
251
245
237
239
245
250
255
265
266
269
273
273
270
269
265
265
265
259
257
253
251
249
245
239
234
229
225
222
213
211
209
221
262
339
461
600
734
846
924
975
1003
1017
1023
1019
1008
995
979
957
936
915
893
869
838
805
765
722
684
643
606
574
550
534
523
515
509
505
505
501
495
487
477
471
460
449
439
428
417
407
393
381
369
356
345
333
317
305
290
279
269
254
243
229
218
207
197
199
218
289
396
535
674
785
868
923
951
964
971
964
953
939
921
900
879
856
832
806
773
736
698
655
615
574
540
508
485
469
456
449
455
460
461
465
465
461
455
444
433
423
409
397
385
369
357
341
327
317
301
285
269
254
243
229
213
199
185
173
159
144
132
116
104
94
83
76
79
114
185
315
460
598
713
785
834
859
869
867
860
844
822
801
777
754
726
697
666
638
608
578
540
505
473
441
409
385
369
356
345
344
341
341
339
334
329
322
311
301
289
275
265
253
239
229
214
201
189
174
163
148
138
127
112
102
88
80
70
59
48
38
30
24
15
18
48
108
226
373
522
650
754
812
852
871
876
873
863
841
820
798
774
745
718
688
658
622
583
554
522
495
468
445
435
429
425
428
439
445
449
452
453
452
447
441
435
424
413
404
396
385
375
364
349
338
327
313
302
289
281
269
253
241
229
215
205
193
179
168
155
147
136
128
136
164
253
373
518
655
770
842
891
917
931
928
917
903
881
860
834
804
774
742
710
675
638
594
548
505
464
427
397
368
349
333
322
314
309
309
309
305
295
290
281
274
263
249
242
231
217
202
189
177
162
148
132
116
103
92
72
59
44
26
15
4
0
0
0
0
0
0
0
0
0
0
6
28
142
278
413
520
600
658
696
714
722
726
724
714
702
684
662
634
602
566
530
495
461
428
396
365
345
329
317
309
306
305
305
307
313
314
317
321
321
321
321
321
321
321
321
321
317
315
313
313
309
306
305
298
287
273
266
255
249
253
271
329
431
567
714
837
936
999
1017
1023
1023
1023
1023
1023
1023
1017
999
976
952
927
900
871
834
792
752
710
671
636
606
584
563
550
542
539
538
534
531
526
515
504
489
477
461
445
429
413
401
391
380
369
357
344
333
322
311
301
286
275
261
250
239
225
215
207
209
239
314
429
570
701
810
885
936
963
979
979
971
955
939
923
901
880
859
836
806
778
744
701
658
615
578
542
509
483
461
448
440
437
441
444
449
448
443
437
431
420
409
399
388
377
361
348
337
325
309
297
282
269
257
242
229
213
202
191
177
166
152
140
130
116
104
98
95
112
179
286
425
574
694
786
845
880
903
903
897
883
861
840
814
789
765
734
702
672
646
612
572
534
492
455
421
396
375
353
347
338
333
331
326
325
319
314
309
298
290
281
269
255
245
231
223
213
202
191
181
170
159
152
142
128
120
110
99
88
78
67
56
47
39
28
22
30
60
138
258
413
560
684
778
836
871
883
888
877
863
845
824
798
772
745
718
688
658
618
586
554
518
491
467
445
427
416
413
413
411
409
413
413
413
412
407
401
391
380
369
359
348
333
322
311
297
282
269
257
246
233
217
205
191
181
170
159
148
138
127
116
110
102
92
102
136
209
333
483
622
736
813
871
901
915
919
908
892
875
853
832
810
784
754
722
700
667
630
592
552
522
489
460
437
421
411
401
400
397
397
397
395
389
384
376
361
351
339
325
313
297
285
270
257
241
225
211
197
181
164
148
134
120
104
87
68
52
40
27
12
3
0
0
0
0
0
0
16
68
189
322
449
560
630
678
704
717
726
720
706
686
664
643
618
590
558
526
488
456
425
395
368
345
326
313
309
306
314
329
341
355
365
375
383
385
389
387
385
380
375
369
368
365
361
353
351
345
341
335
321
314
303
289
278
267
261
259
278
321
423
554
698
822
924
991
1023
1023
1023
1023
1023
1023
1023
1015
995
972
945
923
895
863
830
788
745
706
664
630
602
574
558
546
536
531
526
524
519
514
503
492
481
465
449
433
417
404
389
371
360
349
335
327
317
302
291
281
270
259
245
234
221
213
211
235
293
400
534
674
788
876
935
969
983
987
984
971
955
937
916
895
872
845
818
790
758
722
679
636
598
562
530
501
479
468
457
453
453
449
449
449
449
443
432
425
415
401
389
377
364
353
337
323
313
298
285
273
258
247
233
222
211
197
185
168
156
146
138
128
132
167
237
364
508
642
754
829
879
903
913
915
904
891
871
849
828
802
776
749
718
679
642
610
568
531
497
463
433
409
393
380
369
368
365
361
360
355
349
338
330
321
309
295
285
274
263
253
238
227
217
206
195
181
174
163
148
138
127
116
106
95
84
74
66
56
48
54
92
167
295
441
582
697
790
837
869
883
883
875
863
841
820
798
774
745
718
686
651
618
587
558
526
495
468
445
435
421
409
404
401
401
401
401
397
391
383
373
361
348
337
322
309
293
278
265
249
237
221
205
190
177
164
148
132
120
104
91
80
64
51
40
27
19
12
18
55
120
255
405
558
688
784
842
880
899
903
900
889
871
849
828
802
772
745
714
678
646
614
586
554
526
504
485
477
468
463
461
463
468
473
473
473
473
468
463
457
451
440
429
423
412
401
391
380
373
363
352
341
329
318
309
298
287
277
262
251
241
237
242
265
345
457
590
718
828
899
947
971
979
980
969
955
933
912
887
860
833
806
778
744
706
663
620
574
531
488
453
423
399
377
365
355
349
344
338
333
323
318
309
298
287
273
261
245
229
213
197
185
170
156
136
120
107
92
76
60
44
30
16
4
0
0
0
0
0
0
0
0
12
74
199
337
460
559
630
671
701
714
722
722
722
716
702
686
664
640
614
579
536
501
469
437
409
383
364
349
338
333
329
333
335
341
345
348
357
357
357
357
357
357
357
353
351
349
348
345
341
341
341
337
327
319
309
302
294
293
329
401
509
648
788
895
972
1015
1023
1023
1023
1023
1023
1023
1023
1023
1017
999
977
956
927
893
853
810
768
725
690
655
631
610
599
594
590
591
594
594
584
576
566
550
534
518
501
483
465
445
427
409
395
381
369
353
339
329
317
301
289
274
261
249
234
223
209
209
222
273
368
501
638
756
846
915
951
969
975
973
965
951
936
923
903
881
860
834
808
776
738
696
652
614
576
542
514
492
479
469
469
472
477
481
481
481
475
464
449
443
429
413
401
385
373
359
345
333
317
303
293
277
261
249
234
221
205
190
179
164
152
139
124
110
96
88
87
114
173
289
425
566
679
768
822
857
868
871
860
846
830
809
788
762
740
710
682
655
628
598
560
526
489
452
417
389
367
353
341
333
330
329
327
325
321
315
307
297
286
273
257
245
231
217
201
187
173
158
144
128
112
96
80
64
48
32
18
4
0
0
0
0
0
0
0
0
0
0
19
102
229
365
480
578
630
670
698
708
716
718
712
698
682
660
639
614
579
536
501
465
431
397
371
344
321
309
298
293
291
291
297
301
303
305
310
313
313
313
313
309
309
306
305
301
298
297
295
293
289
287
279
277
270
262
253
249
265
309
407
535
674
804
900
971
1008
1021
1023
1023
1023
1023
1021
1011
995
977
956
935
907
875
838
796
753
706
666
631
598
572
554
538
532
530
526
524
519
514
503
489
473
456
443
433
421
408
397
383
372
361
351
339
325
318
307
293
281
265
253
242
229
217
206
203
221
287
392
526
667
780
867
925
957
979
979
976
967
956
943
923
905
884
863
834
802
766
724
680
638
596
559
526
500
481
465
460
457
461
467
472
473
472
467
457
447
436
421
409
393
381
367
356
341
326
313
297
285
271
257
245
229
217
205
189
177
164
151
136
127
127
156
225
339
481
618
730
818
860
889
903
901
893
883
867
848
826
805
781
754
728
698
662
626
591
550
512
477
445
424
405
393
384
379
377
377
375
373
367
359
349
338
327
317
302
291
281
266
255
245
234
223
209
198
187
177
166
155
144
132
122
112
102
91
80
67
62
64
95
164
273
421
560
678
762
824
855
868
873
871
855
841
822
801
780
758
728
698
674
650
618
586
554
524
497
476
455
441
433
431
429
432
437
437
437
435
429
419
408
397
383
369
353
343
329
313
297
281
269
253
237
221
205
191
177
156
140
124
110
99
84
70
59
44
34
28
32
66
143
273
424
571
698
782
841
875
885
891
887
872
859
838
817
796
774
748
718
682
650
615
586
555
528
505
485
475
469
464
461
461
465
468
469
469
469
461
455
447
437
427
416
409
399
388
377
367
356
345
334
323
313
299
291
281
266
255
241
230
219
205
194
181
173
163
160
177
234
333
461
598
718
810
875
904
919
927
921
907
885
864
842
820
790
762
734
700
666
622
574
526
483
443
409
380
361
345
334
326
317
317
317
313
310
299
293
286
273
261
249
235
225
213
199
189
174
160
148
132
116
100
90
76
60
44
28
16
4
2
0
0
0
0
0
0
0
0
0
0
0
19
72
207
341
461
551
615
650
674
688
694
697
692
682
664
643
622
595
566
530
493
461
429
401
375
349
330
317
309
305
305
305
306
309
313
314
317
317
317
317
317
313
313
309
307
305
305
303
298
297
297
294
293
287
285
281
279
271
265
273
313
389
509
654
798
903
983
1023
1023
1023
1023
1023
1023
1023
1023
1023
1015
993
972
947
916
887
846
804
764
722
685
650
622
602
586
578
574
571
570
564
559
554
543
532
522
507
493
477
460
441
425
409
393
377
367
353
345
334
321
309
297
283
273
261
247
237
229
234
265
343
457
594
721
828
903
951
980
987
989
981
967
949
931
911
889
868
842
812
785
746
708
664
622
580
546
514
492
471
461
456
451
449
452
449
453
452
447
437
428
420
409
395
381
365
355
344
329
314
301
289
277
261
249
233
219
209
197
183
168
154
143
132
122
114
116
159
242
361
507
643
746
820
865
891
896
893
883
861
840
818
792
765
734
708
680
650
618
580
542
500
460
429
399
375
353
341
330
325
325
325
321
317
314
305
298
287
273
262
251
237
221
205
193
181
164
148
132
119
104
88
70
52
38
24
8
0
0
0
0
0
0
0
0
0
0
27
124
261
392
501
578
631
658
675
680
678
667
654
634
612
591
570
542
509
477
447
420
393
367
345
329
318
310
305
302
307
313
317
319
325
326
329
329
327
322
321
315
310
309
302
297
293
287
285
281
275
270
265
261
258
249
250
263
301
377
497
638
773
885
971
1007
1023
1023
1023
1023
1023
1020
1007
987
965
941
915
888
859
826
785
745
702
664
630
598
572
556
542
532
530
526
524
519
514
507
493
477
467
451
433
417
399
389
379
365
353
341
327
317
305
291
281
266
255
245
230
219
205
194
189
201
245
333
461
603
729
830
893
936
959
964
964
955
939
920
899
877
853
830
804
774
742
701
660
622
583
543
509
483
464
449
448
445
449
453
456
457
457
455
445
439
428
413
403
389
377
365
352
341
325
311
301
285
271
257
242
231
221
206
195
181
170
159
144
134
120
112
104
107
128
202
314
457
598
716
798
853
880
895
897
887
867
849
828
802
780
750
722
693
658
630
596
562
526
484
449
421
392
373
361
351
343
337
337
337
333
327
319
313
302
294
285
273
259
249
238
227
217
207
199
189
178
167
152
146
135
128
118
104
96
86
78
72
71
98
148
259
396
538
666
757
822
861
880
891
884
871
855
833
809
786
760
733
702
675
648
622
590
558
526
491
464
441
425
415
405
405
405
405
405
403
397
391
383
373
361
348
333
317
301
285
270
257
241
223
205
189
177
160
144
128
112
96
80
64
48
32
19
8
10
23
76
167
293
429
548
639
706
737
756
766
764
750
734
713
689
662
634
604
574
536
499
465
429
397
365
339
321
305
298
293
297
307
321
333
348
359
369
380
385
389
389
389
385
375
364
353
343
331
317
306
295
281
266
255
245
230
219
213
221
261
333
459
600
730
841
913
963
988
1001
1003
996
983
963
941
917
895
868
841
814
781
741
698
654
608
570
535
505
481
467
456
445
444
441
437
431
420
417
411
403
397
385
372
361
351
339
329
315
307
297
282
271
257
246
235
221
210
197
189
181
194
233
323
449
594
722
826
899
948
969
975
977
969
955
937
916
895
872
845
818
789
752
710
671
628
590
548
514
485
463
449
441
437
440
445
447
449
449
444
436
429
419
405
393
381
368
357
345
329
317
302
291
277
262
251
237
225
211
197
182
168
156
142
134
136
178
261
377
524
658
762
841
881
907
915
909
899
881
860
838
817
790
762
734
702
662
624
587
550
508
471
437
408
389
369
359
351
341
339
337
337
331
323
317
306
295
285
274
263
249
238
227
217
203
195
185
170
159
148
142
131
120
110
99
88
78
70
60
54
54
72
139
246
385
538
663
758
824
864
887
887
881
867
849
828
802
777
753
726
694
662
630
599
570
538
503
476
453
436
420
405
400
397
393
392
389
385
380
375
365
353
339
329
313
297
281
266
255
241
225
209
193
181
162
144
132
114
100
84
68
52
36
23
12
14
30
84
175
301
433
548
636
702
733
752
762
760
746
730
709
688
666
638
608
578
543
500
465
429
397
369
344
325
309
307
305
309
321
337
349
360
371
377
383
385
381
381
379
373
364
356
345
330
319
305
298
285
273
262
249
237
226
215
213
237
298
397
536
675
798
895
953
991
1005
1013
1007
996
983
963
941
917
895
867
837
806
768
725
678
636
596
558
524
503
481
467
459
453
452
449
445
435
424
417
412
407
397
387
376
365
355
344
333
318
307
297
282
271
257
246
235
221
209
193
181
170
162
160
181
242
341
485
627
746
840
893
931
944
949
947
936
920
899
877
853
830
804
774
742
704
660
618
576
536
505
476
457
441
433
431
429
431
433
437
439
436
433
427
416
405
395
384
373
361
348
337
322
311
301
286
273
257
246
233
217
206
193
181
170
156
144
132
119
108
96
83
76
78
107
181
301
448
598
708
793
850
883
896
895
888
875
855
832
808
782
756
726
694
662
627
594
562
530
497
465
436
413
393
377
369
365
363
361
356
351
345
339
331
321
306
295
285
270
259
245
234
221
209
198
185
173
162
148
136
126
115
104
95
87
76
67
59
52
55
82
136
257
399
546
667
766
826
868
884
887
884
873
859
837
816
790
760
733
706
672
638
606
578
546
518
492
471
449
435
424
421
417
417
417
417
417
413
404
399
389
379
368
353
343
329
313
301
285
273
257
241
225
209
195
185
168
152
136
122
108
96
82
74
64
84
132
217
338
477
598
697
761
802
822
830
826
814
796
774
752
725
694
666
634
598
560
526
489
457
425
397
368
347
329
317
309
305
305
305
301
297
294
289
283
275
265
259
251
245
234
223
217
211
206
201
195
190
185
183
181
177
171
166
160
159
181
217
306
421
554
675
774
838
880
896
899
900
887
867
845
824
802
772
745
714
676
636
590
543
500
461
431
401
377
363
352
345
339
337
337
337
337
337
327
322
317
311
303
293
286
275
269
262
251
241
230
219
209
198
190
181
168
155
144
136
136
152
209
313
453
607
746
855
928
976
999
1011
1013
1007
991
975
955
933
912
887
857
833
802
769
732
690
652
615
582
555
531
518
504
499
497
495
497
501
501
499
493
484
476
465
455
444
429
419
408
397
387
373
361
347
333
321
309
295
285
273
259
249
235
230
237
281
364
481
619
742
838
907
949
967
975
975
967
951
935
915
893
872
846
824
797
766
732
689
646
604
564
530
499
472
457
443
435
429
423
417
413
408
400
389
376
368
353
338
325
309
298
287
273
261
245
233
222
209
197
185
171
160
148
135
124
111
103
92
91
118
173
289
428
570
692
788
842
876
892
895
888
877
859
836
812
790
760
733
702
675
646
614
586
551
514
481
449
429
415
404
393
388
385
385
384
379
373
363
352
341
326
315
301
289
273
257
241
225
213
197
181
168
152
139
124
108
95
80
66
55
40
30
22
20
58
132
253
403
552
670
762
816
850
865
871
867
855
838
818
793
769
742
714
682
650
612
578
546
515
488
469
455
444
441
444
452
461
463
465
469
469
467
457
452
444
433
423
412
405
395
381
373
363
349
337
326
315
305
293
279
269
254
243
233
223
218
225
282
376
501
636
757
842
905
940
955
959
956
947
925
904
883
861
837
810
784
752
714
671
626
578
535
492
457
423
396
373
357
349
345
344
341
337
327
322
313
301
287
273
261
247
233
217
201
189
173
156
140
123
107
92
76
58
40
26
12
4
0
0
0
0
0
0
12
74
193
327
456
566
638
684
710
721
726
718
706
688
666
644
620
594
566
534
501
469
437
409
384
365
349
343
337
337
343
351
361
371
376
377
381
381
381
380
377
373
368
363
357
353
351
345
339
331
321
310
299
289
275
267
257
255
279
329
440
576
718
838
935
995
1023
1023
1023
1023
1023
1023
1012
996
975
949
925
903
875
840
798
760
717
678
642
610
586
566
552
546
540
538
534
528
520
509
499
485
469
452
433
417
401
388
373
363
349
337
326
313
297
285
271
261
249
235
221
207
199
193
202
242
313
447
583
714
814
887
927
949
957
959
947
933
915
893
872
850
829
805
778
750
716
674
632
592
554
523
496
473
459
451
449
455
457
461
461
459
449
440
432
421
407
396
381
369
356
341
329
313
301
289
273
261
245
231
221
209
193
181
166
155
140
130
122
120
152
225
337
476
618
726
809
860
887
897
900
891
873
852
830
809
785
758
732
702
670
638
603
562
520
483
449
420
399
377
367
359
353
352
349
349
344
335
329
322
309
293
282
271
257
242
229
217
201
185
173
156
143
128
112
96
80
66
52
36
20
10
0
0
0
0
0
0
4
51
166
305
437
544
626
675
705
718
721
716
702
685
663
638
611
582
554
522
489
457
425
396
365
338
317
301
295
293
301
311
325
341
356
367
377
379
381
381
380
375
369
365
363
353
348
343
337
325
311
301
287
279
269
254
243
233
234
258
321
425
562
698
814
900
963
995
1013
1019
1012
1001
987
969
948
927
905
881
850
817
777
734
690
644
606
570
538
514
492
479
469
468
465
461
456
448
437
432
424
413
407
396
385
375
361
353
343
329
317
305
291
281
269
255
245
234
221
209
198
187
177
179
206
269
383
524
662
782
868
927
957
971
975
964
953
935
913
892
871
849
822
790
757
720
682
639
596
558
522
492
469
453
445
445
447
452
457
461
459
457
451
440
429
423
412
397
383
372
361
347
333
317
305
291
281
265
251
241
226
215
201
186
175
160
148
135
124
115
118
156
234
360
505
639
749
830
875
901
911
909
901
883
861
840
818
796
769
742
714
679
646
607
567
526
488
456
425
404
385
373
364
359
357
353
351
345
339
331
321
310
297
285
273
257
245
233
219
205
193
179
168
154
143
132
118
107
92
82
71
60
50
39
32
22
14
4
0
0
0
22
91
209
357
512
642
738
802
846
859
864
855
841
820
798
776
749
726
694
664
634
602
570
538
507
477
453
432
416
405
405
405
409
416
427
429
428
423
417
411
400
389
379
368
353
338
325
313
297
281
265
253
237
221
205
189
177
162
148
132
120
107
96
86
75
64
52
50
56
94
171
289
444
591
714
802
861
891
907
909
907
889
868
846
825
801
774
744
714
682
651
622
590
562
535
509
488
467
453
445
445
445
448
453
457
457
457
453
448
440
429
423
412
401
395
384
373
363
349
341
330
317
305
294
283
273
262
251
241
226
215
205
194
186
177
190
230
309
432
574
694
793
860
907
928
939
935
923
904
883
861
837
810
784
754
722
689
648
606
558
509
465
427
389
361
339
323
313
303
298
293
287
282
277
271
263
249
242
231
217
206
193
181
170
156
144
132
119
108
96
83
72
58
44
32
16
6
0
0
0
0
0
0
0
0
0
0
55
156
285
408
509
586
636
663
682
690
693
686
675
662
646
624
600
574
544
507
465
433
404
377
355
330
317
307
299
297
293
293
297
298
301
305
305
305
305
305
305
305
299
297
297
295
293
289
289
286
285
279
274
269
267
265
261
267
297
369
481
626
774
891
973
1023
1023
1023
1023
1023
1023
1023
1023
1023
1019
996
972
947
920
891
855
816
776
734
697
664
634
614
595
586
576
571
570
566
560
550
543
532
518
501
485
469
453
437
417
401
385
369
351
339
329
314
303
293
282
271
257
250
239
229
233
257
329
436
572
706
816
893
947
971
984
991
980
969
955
937
919
899
877
856
830
806
774
742
700
659
618
584
555
534
515
504
497
493
491
489
488
483
477
471
460
449
439
425
413
401
385
373
361
348
333
321
307
297
282
269
257
242
229
213
202
191
177
166
155
160
190
262
377
519
650
758
833
884
907
919
916
907
893
872
850
828
801
774
746
714
682
639
596
554
511
473
437
407
383
361
344
335
329
325
322
317
315
307
301
290
277
265
254
241
225
209
195
181
164
148
132
118
104
84
68
52
36
24
11
0
0
0
0
0
0
0
0
38
128
267
401
509
595
648
682
697
705
706
700
686
670
652
631
610
583
554
522
493
461
429
407
383
361
344
335
329
325
325
333
334
337
341
343
345
345
341
341
341
335
333
329
327
322
317
313
310
305
301
295
281
274
263
257
265
302
385
501
643
778
884
961
1007
1017
1023
1023
1023
1023
1019
1001
983
963
940
916
891
861
824
782
740
697
654
616
584
562
542
528
522
514
511
509
504
496
481
471
457
441
425
409
389
375
364
353
341
327
313
301
287
277
262
251
241
226
215
201
189
175
168
173
197
273
384
523
662
772
849
903
927
937
943
932
921
903
885
864
842
821
800
774
745
705
666
627
584
542
508
479
461
452
447
441
447
452
453
457
457
449
444
436
425
415
401
389
377
361
349
337
323
313
297
283
273
258
245
233
217
203
189
178
167
152
143
138
152
202
298
429
570
693
786
845
883
903
909
901
891
873
852
830
808
784
758
730
698
666
627
587
546
508
473
441
420
399
385
376
371
369
369
367
361
356
348
341
329
313
301
289
273
261
245
231
221
205
191
181
166
152
140
126
115
100
94
83
72
62
48
40
30
22
12
6
0
0
2
12
68
173
319
473
608
713
790
826
848
855
850
834
818
797
773
750
722
693
662
628
591
558
523
493
461
432
408
385
375
369
365
365
371
373
379
384
385
379
371
361
351
339
329
314
301
289
274
261
245
234
223
209
194
181
168
158
144
132
120
110
100
90
79
68
59
54
48
47
74
124
239
379
526
656
758
822
864
883
891
888
877
859
837
816
794
768
741
710
679
652
622
590
558
530
507
483
465
451
440
433
431
436
441
441
441
445
444
439
433
427
416
405
399
388
377
367
356
345
334
323
313
301
290
281
269
255
245
230
219
209
198
187
177
177
190
237
330
459
594
717
810
879
911
929
935
928
912
891
868
841
814
788
758
726
698
660
618
574
523
477
435
397
365
338
319
305
295
290
285
281
278
273
267
262
253
246
235
221
210
197
185
174
160
144
132
119
104
92
76
60
46
35
20
10
2
0
0
0
0
0
0
0
0
16
72
195
334
469
572
652
706
742
758
762
766
758
738
717
690
658
624
587
546
503
463
425
393
367
341
321
307
297
289
289
289
290
295
301
306
309
313
313
313
313
313
313
313
309
309
305
305
305
297
287
279
269
262
251
241
234
223
217
234
277
365
491
635
774
879
953
1003
1017
1023
1023
1023
1023
1015
997
976
955
933
912
887
864
834
798
760
720
678
644
612
586
566
552
546
538
535
534
528
523
514
503
489
473
459
448
441
431
417
405
393
383
373
361
348
337
322
311
301
290
279
265
254
243
233
237
261
333
437
568
702
808
