760
758
744
724
695
663
623
578
532
485
434
396
368
344
328
315
305
294
283
267
251
239
232
243
303
402
518
627
706
763
797
811
814
801
782
755
724
690
649
602
558
509
465
425
392
368
346
328
311
295
282
267
247
233
239
281
369
481
597
689
760
793
814
821
817
798
776
752
720
687
644
598
550
507
463
425
395
374
352
336
319
299
287
271
255
248
259
319
418
531
639
714
768
801
815
818
805
787
766
736
704
666
623
574
528
485
442
399
368
342
323
303
286
269
255
235
216
206
218
275
372
480
582
671
718
751
764
764
756
736
712
679
643
598
550
501
454
414
384
358
340
328
310
291
271
259
240
222
210
218
275
365
484
598
689
754
788
807
813
805
787
763
736
702
662
615
566
520
473
434
404
380
354
336
319
302
283
267
247
230
226
256
332
441
552
649
728
770
797
809
807
797
776
754
724
691
648
605
558
515
472
437
402
375
352
334
315
295
279
260
243
225
222
259
330
438
550
640
708
752
772
780
780
764
746
720
687
653
611
566
518
473
442
412
384
354
336
315
298
282
267
247
230
222
228
273
364
475
582
675
724
762
780
784
779
764
741
712
679
636
593
546
503
465
437
411
387
364
348
332
315
299
283
267
253
256
303
388
501
611
701
766
805
823
829
825
809
790
764
732
697
655
611
565
518
471
427
392
366
348
328
311
295
279
259
243
235
256
318
421
534
636
720
767
799
813
811
803
784
763
736
704
665
621
574
530
484
441
406
379
356
334
315
295
279
260
243
224
213
230
289
383
493
594
673
728
756
770
772
760
741
716
683
645
602
554
508
465
429
396
372
346
328
307
290
273
259
239
222
214
220
265
356
472
585
683
737
780
801
809
803
784
763
736
704
661
617
570
523
483
449
414
387
364
346
328
307
295
279
263
245
243
275
346
457
574
671
747
797
817
827
829
817
798
772
744
709
671
627
578
530
481
435
404
375
356
336
319
306
291
271
255
247
247
290
372
479
586
679
732
770
788
794
791
776
755
730
700
662
621
578
530
484
441
406
376
352
330
311
295
279
260
243
224
213
222
265
352
465
572
655
716
747
768
776
770
754
732
704
669
631
586
540
497
458
429
404
388
372
352
336
322
307
287
271
263
264
310
400
518
636
744
806
849
869
873
865
845
821
791
760
721
675
627
582
536
489
449
414
384
357
330
307
286
267
251
233
225
247
306
403
518
619
694
748
772
783
788
778
762
740
713
683
647
604
561
522
481
449
421
391
369
348
326
307
291
271
252
235
221
240
299
395
503
611
678
729
760
774
776
768
747
722
695
657
613
570
522
476
437
406
379
356
334
315
299
287
271
255
236
225
230
273
357
465
577
666
732
771
793
801
794
778
756
732
697
659
616
573
526
507
453
425
399
380
364
348
334
323
307
291
279
276
306
380
483
593
695
758
801
825
834
834
825
803
779
752
714
674
631
582
534
485
445
410
380
358
342
328
315
299
283
268
255
259
302
386
489
592
675
732
766
782
788
778
762
740
712
679
643
600
556
509
467
423
388
358
337
315
294
277
263
243
224
206
194
200
243
334
442
554
633
693
732
750
752
744
726
705
675
637
597
554
509
461
421
387
365
348
337
326
315
309
295
279
268
255
259
302
386
497
582
674
768
807
826
833
829
810
788
764
729
691
653
607
558
535
465
429
392
365
344
328
314
299
279
260
247
237
256
319
422
538
647
720
774
805
818
818
809
787
766
740
706
666
623
580
558
489
450
421
396
375
356
340
329
313
295
279
263
259
281
345
441
548
640
716
758
787
797
794
780
760
737
705
667
624
581
534
509
434
396
365
338
315
299
283
267
251
237
226
214
220
255
337
445
562
645
710
752
771
782
776
763
741
720
686
648
607
564
542
485
454
427
404
383
364
348
336
319
303
289
275
275
307
383
489
608
708
784
829
856
865
868
860
841
819
795
764
730
690
651
615
580
546
515
488
465
443
425
408
387
365
348
336
338
372
449
548
655
725
782
817
830
833
825
811
790
768
736
704
667
625
585
546
505
471
433
403
379
352
334
313
291
268
241
226
226
275
364
473
576
659
714
750
764
767
756
736
714
685
647
608
562
514
493
434
404
375
353
332
315
302
291
275
259
243
225
220
239
306
406
522
611
678
724
747
755
752
734
713
687
654
613
570
527
505
445
410
386
364
348
329
307
291
272
255
239
222
218
237
294
388
503
608
691
741
771
784
787
776
756
730
704
667
624
581
534
511
443
408
378
350
328
306
287
271
251
232
214
197
194
218
295
403
526
616
689
736
759
770
768
751
729
704
670
632
590
542
518
445
404
369
340
318
299
283
267
248
230
210
192
178
174
204
271
383
499
602
675
729
756
772
770
752
730
706
671
636
593
546
501
455
416
383
364
352
345
337
328
322
314
307
298
295
311
378
472
586
677
752
801
829
843
841
827
806
784
752
717
675
632
589
542
495
454
421
390
365
344
323
310
295
279
263
255
256
297
376
487
594
683
742
780
801
807
802
784
763
736
704
670
629
586
562
487
449
412
383
360
342
326
311
295
282
267
252
239
239
279
357
461
562
645
704
741
760
764
762
746
724
701
671
635
592
548
505
463
426
400
375
353
332
311
293
275
255
236
222
210
226
279
379
489
594
675
729
764
780
780
772
751
729
700
665
621
574
531
485
453
423
404
384
366
350
336
319
301
283
268
255
263
314
406
526
632
721
784
821
834
837
827
806
784
751
716
679
635
589
542
505
465
412
380
350
323
307
289
271
251
232
218
209
233
295
406
519
623
695
750
776
793
790
776
755
733
704
669
625
582
534
509
449
412
383
356
329
305
287
267
251
235
216
202
198
225
290
388
500
600
679
728
760
772
774
760
740
716
683
643
600
554
501
480
418
388
362
344
328
311
293
275
259
240
226
214
222
263
358
469
582
669
730
768
793
793
784
767
746
716
682
641
598
550
526
461
425
395
372
345
323
307
287
268
251
230
214
210
240
315
429
547
649
728
776
806
813
814
801
780
758
728
695
653
609
562
522
479
433
406
379
356
340
323
307
291
272
259
247
252
287
374
479
586
670
734
772
798
803
797
784
766
736
708
670
627
582
558
485
447
412
380
354
336
319
299
283
267
251
235
222
232
275
352
459
562
651
710
751
764
772
767
752
729
700
667
624
581
538
518
458
429
403
382
360
344
328
311
299
281
267
255
260
291
376
484
598
686
754
793
818
823
817
799
778
752
720
685
643
598
574
501
454
416
384
358
340
323
307
291
275
256
243
230
248
307
400
518
623
704
762
797
809
811
803
788
766
738
712
673
629
586
564
499
457
425
395
368
350
329
311
295
287
259
243
232
239
297
386
493
596
674
728
764
780
784
772
754
732
704
669
627
584
538
493
476
427
404
379
362
348
332
318
303
289
275
263
264
305
376
488
596
687
748
791
809
817
811
793
771
747
716
677
633
590
547
504
461
423
391
368
356
340
323
307
291
279
264
259
275
345
445
554
648
724
768
799
810
809
797
778
752
725
695
655
612
569
522
475
437
404
379
360
344
328
311
295
281
267
255
255
290
360
467
569
659
720
766
784
791
783
768
747
722
691
657
613
570
523
483
473
402
366
336
315
297
279
259
243
226
210
197
194
236
314
421
535
629
695
741
763
768
762
748
728
700
665
623
580
534
485
445
412
388
366
353
344
333
319
303
289
275
263
261
294
364
479
592
691
762
810
833
845
840
825
803
779
748
709
666
623
576
530
485
442
404
372
350
329
311
295
279
263
247
236
243
301
395
514
619
705
764
801
817
821
809
790
764
737
708
667
624
578
534
487
443
408
382
360
344
323
307
291
276
263
243
235
248
291
391
499
598
678
734
764
776
779
772
751
726
700
666
625
582
535
492
457
419
387
356
336
317
299
279
263
251
233
217
210
232
297
396
511
608
683
734
759
772
774
760
740
713
683
643
600
554
509
473
441
416
395
376
360
344
328
311
297
283
267
259
277
328
435
548
655
733
784
813
825
825
817
795
771
744
709
666
623
574
526
477
430
392
356
334
315
299
283
264
251
235
221
218
256
337
445
561
658
728
778
797
805
802
788
768
746
716
683
640
594
550
508
471
433
404
378
356
336
317
299
283
267
247
232
232
255
342
445
554
645
716
756
779
787
784
767
746
720
687
649
607
558
509
469
437
404
372
352
333
315
295
279
267
251
237
226
241
298
388
505
613
695
752
782
797
799
788
768
746
716
683
640
594
546
504
467
433
404
378
360
344
328
311
297
283
267
257
265
299
394
504
615
705
770
805
822
827
825
803
782
756
724
689
647
600
554
505
458
421
384
362
344
328
307
291
275
257
241
230
251
310
404
522
627
708
763
790
805
807
797
776
754
724
691
653
607
558
511
468
425
392
365
340
319
301
283
267
251
230
214
204
210
273
365
477
578
659
712
741
758
760
752
733
708
679
644
602
555
509
461
421
391
364
348
334
323
311
295
283
267
251
239
243
286
364
481
592
683
754
788
809
817
809
793
770
740
708
669
623
578
530
481
437
400
374
352
332
315
299
283
267
251
235
229
243
321
423
542
644
728
776
805
818
821
805
786
760
732
697
659
616
570
522
479
441
404
382
357
340
323
307
295
279
263
247
249
287
360
473
584
679
751
788
809
817
811
797
774
744
712
677
633
590
540
489
441
403
370
344
323
305
287
268
255
235
218
208
198
236
311
412
522
619
683
726
748
756
754
737
716
687
655
615
572
526
481
441
411
384
368
354
344
333
319
307
293
279
263
260
287
352
459
573
675
752
798
825
833
833
821
799
772
740
705
662
619
572
526
477
434
399
368
342
321
303
289
275
255
239
228
226
281
369
481
594
689
748
790
809
813
809
790
768
741
712
675
632
586
534
487
449
412
386
361
344
323
307
295
279
263
247
240
253
303
402
509
611
698
755
788
802
805
797
775
751
724
689
645
602
554
505
461
418
383
352
330
309
291
271
255
235
217
201
186
202
256
348
463
572
651
705
737
756
758
747
728
705
675
635
592
548
501
454
414
404
360
346
332
322
314
307
295
279
263
256
264
307
403
519
627
720
779
817
830
835
829
811
790
760
726
689
647
598
550
501
454
416
380
358
340
323
305
291
275
257
241
230
261
329
433
552
658
732
780
807
821
818
805
784
762
732
695
657
613
566
518
472
433
404
378
356
336
317
303
286
264
243
226
221
235
305
402
514
613
686
736
766
779
780
767
746
724
690
653
611
566
518
469
427
395
368
342
321
303
283
267
247
230
214
198
202
237
315
426
544
639
708
751
776
786
783
768
747
720
683
644
598
554
518
477
429
403
382
364
344
328
315
299
283
263
247
244
267
344
451
566
674
750
801
829
840
837
823
802
780
748
713
671
627
578
534
487
446
408
379
357
340
325
311
295
277
261
247
255
295
376
485
598
683
751
788
813
817
811
793
771
747
716
678
637
594
558
512
453
411
379
352
332
313
299
282
263
247
229
216
214
253
326
429
540
627
687
728
752
764
758
741
720
695
661
619
576
532
522
451
422
400
380
366
356
341
328
307
286
267
247
244
268
332
437
552
647
721
770
801
810
807
797
775
751
720
686
645
602
566
520
461
429
399
376
356
340
328
310
291
275
257
247
251
301
387
497
608
691
752
790
806
817
809
790
768
746
716
683
640
594
582
500
457
425
398
374
356
337
323
307
290
271
251
240
245
287
369
480
578
663
722
760
776
784
780
763
741
712
678
637
594
562
516
465
427
392
364
342
321
307
290
271
255
237
221
210
229
286
380
495
594
671
726
756
772
772
764
744
720
687
655
612
569
526
493
458
421
400
387
372
357
344
328
311
295
279
275
286
336
429
544
647
736
793
829
844
847
841
823
802
776
744
706
663
620
574
522
480
445
412
382
357
344
328
311
295
279
265
259
287
349
445
558
655
728
774
801
813
807
794
772
750
720
687
644
601
590
500
451
408
378
353
332
311
295
279
263
247
230
218
210
226
282
379
485
580
655
704
733
744
748
734
713
691
659
627
586
543
500
489
423
394
372
357
344
336
329
315
299
287
273
259
275
323
412
471
637
724
783
815
821
835
827
809
784
768
720
677
633
590
554
508
453
412
380
352
329
315
299
283
267
247
235
226
251
325
435
550
648
724
776
802
813
809
791
770
748
716
683
643
600
554
542
463
426
392
370
349
336
319
303
287
271
255
239
241
268
340
445
555
647
717
760
768
794
791
772
751
726
695
661
617
570
534
488
437
400
368
340
319
303
283
267
251
235
222
209
210
243
318
425
535
629
700
737
762
772
766
750
728
714
671
631
588
544
534
463
434
412
394
380
368
353
340
328
315
302
283
286
310
380
434
598
700
771
817
825
851
848
833
811
801
756
722
682
639
602
551
493
451
416
388
376
344
332
315
299
295
267
256
259
303
392
505
615
701
764
793
811
825
814
798
776
763
722
691
648
605
594
505
459
425
394
380
348
332
315
299
287
268
247
232
229
267
310
447
554
637
700
712
756
764
756
734
724
687
654
613
570
534
488
465
396
369
348
338
311
291
275
261
259
230
217
206
226
251
384
496
598
683
724
754
780
778
767
748
734
694
659
616
570
558
479
441
412
391
380
356
340
323
311
299
286
267
253
256
303
350
504
615
702
764
776
819
825
817
799
788
748
720
682
639
607
561
501
454
414
384
374
344
328
311
298
295
267
253
243
259
283
412
526
631
716
756
788
817
814
801
780
767
726
720
648
605
594
508
457
412
376
360
319
302
283
267
255
241
222
204
196
202
232
340
453
554
640
659
734
751
756
747
736
700
671
636
594
562
514
457
421
391
368
360
338
328
322
314
311
287
273
263
269
283
384
491
601
700
752
793
829
833
827
809
798
763
732
693
649
639
562
514
469
429
412
372
352
336
319
307
294
275
256
248
263
295
411
526
629
710
728
798
811
813
799
788
756
728
693
655
623
574
509
462
422
388
375
340
323
307
291
287
263
244
226
216
218
287
380
491
594
651
702
752
763
766
752
742
710
679
644
601
590
509
458
412
382
368
328
311
295
275
263
247
226
210
192
182
197
264
364
473
578
602
714
747
760
758
752
724
701
671
635
602
560
501
458
421
392
384
360
348
338
330
328
307
291
275
267
267
332
422
540
651
716
778
833
848
851
841
831
799
772
738
698
687
611
586
514
471
449
396
370
346
323
311
298
279
263
247
239
257
333
441
554
657
679
786
815
829
826
821
793
770
740
708
675
632
578
534
485
441
425
382
360
344
328
323
299
281
263
248
243
259
319
419
530
602
678
752
780
791
793
784
758
732
704
666
655
580
531
485
443
425
376
350
329
307
295
282
263
247
230
218
221
245
319
422
535
562
706
752
780
788
788
772
751
724
691
663
620
562
520
485
457
443
406
384
368
354
352
328
311
295
282
279
295
360
462
578
655
730
809
833
844
845
837
810
784
756
721
712
635
586
538
489
465
408
376
346
323
311
298
279
259
240
226
229
256
332
442
552
578
717
760
784
793
793
772
751
726
700
671
631
578
527
484
449
431
380
352
326
305
299
267
248
226
205
194
178
200
267
368
449
546
651
697
726
736
733
720
700
675
640
631
558
509
461
419
400
352
330
311
295
287
279
271
260
247
235
230
230
275
366
480
509
686
748
788
806
809
801
779
758
728
700
659
607
562
538
473
455
404
380
358
340
336
311
295
279
263
255
243
275
350
461
550
649
756
801
827
837
833
817
797
772
740
732
665
621
574
530
505
445
408
379
356
344
330
311
295
279
263
259
253
287
370
481
509
678
742
788
806
809
805
787
766
740
716
678
627
582
558
481
459
398
364
338
319
315
283
267
251
230
222
202
196
228
291
368
476
602
665
710
732
734
737
720
698
671
663
604
561
514
492
449
400
375
353
340
332
323
311
299
283
267
261
251
267
325
422
449
639
720
776
809
817
821
811
790
768
744
712
663
619
594
526
501
434
404
379
360
356
329
315
299
283
275
251
252
287
364
445
558
687
750
798
821
823
826
813
791
767
760
706
666
623
580
558
493
455
421
392
376
360
340
323
307
291
285
263
267
315
396
421
616
705
768
806
817
829
821
802
780
760
730
687
644
601
554
530
459
416
384
354
348
315
299
283
267
259
230
217
220
247
303
406
538
621
686
724
733
755
752
734
713
708
654
613
570
527
505
445
415
394
372
364
353
336
323
307
295
289
267
263
286
348
368
556
654
728
776
793
813
814
798
776
760
728
687
644
601
558
532
459
416
387
362
356
328
311
295
279
271
247
233
239
275
336
446
586
674
738
776
784
803
797
779
758
752
704
669
627
582
558
489
451
416
388
368
349
328
315
299
283
275
251
239
244
287
303
476
578
667
725
744
780
787
779
764
748
721
683
644
601
558
535
471
429
396
366
360
319
301
283
267
259
239
222
209
206
239
322
364
550
641
704
722
768
772
770
754
748
709
679
643
600
578
514
496
447
425
412
402
388
376
362
352
345
323
311
310
342
356
524
632
724
793
817
853
864
856
841
825
801
768
734
694
651
628
558
514
472
439
433
382
357
340
318
307
275
255
241
243
283
369
497
602
689
748
763
801
805
794
778
772
729
700
667
624
602
534
487
449
416
396
372
348
332
315
299
291
267
251
241
249
255
378
483
586
667
700
756
774
779
780
756
732
700
667
629
586
564
496
457
419
384
376
330
309
291
271
263
235
217
198
186
190
236
323
435
540
623
649
720
740
747
736
732
698
671
635
613
570
505
458
418
388
368
352
332
322
314
303
299
286
271
261
267
271
390
500
615
709
744
813
835
844
837
825
803
772
740
705
663
640
594
526
489
451
433
379
357
340
323
315
291
275
259
247
255
309
404
522
629
712
736
801
817
821
813
809
774
747
716
682
663
598
555
512
469
445
415
388
372
364
344
336
311
291
275
264
263
329
418
522
619
659
748
778
794
797
793
774
748
720
687
647
625
558
514
467
426
416
352
325
307
287
279
251
233
214
210
194
213
267
376
492
594
631
728
756
770
772
772
742
716
683
644
623
554
507
463
429
408
387
364
352
336
319
311
287
271
255
244
243
310
407
526
580
687
784
822
839
841
837
818
788
762
732
691
670
602
558
511
471
461
400
374
352
333
328
303
287
271
251
247
268
323
431
544
647
681
770
797
809
809
809
779
758
732
700
683
623
574
526
481
449
416
376
356
337
319
310
283
267
249
233
230
235
289
376
484
538
663
713
746
760
764
754
732
709
695
643
623
561
518
471
435
429
384
368
352
336
328
307
295
279
263
255
257
283
362
465
574
619
737
780
803
811
813
791
770
744
712
695
635
592
548
538
473
438
396
376
360
348
341
319
303
286
269
267
271
328
421
536
590
716
770
802
817
821
807
784
763
736
704
685
625
582
546
503
481
415
380
356
346
328
307
291
275
259
247
241
259
329
426
538
582
706
756
780
791
793
775
754
732
704
687
631
588
542
530
461
426
384
361
337
319
311
287
267
255
239
230
209
222
275
366
421
574
649
701
732
740
742
740
718
697
667
648
589
546
503
462
453
407
386
368
357
352
336
321
307
291
279
271
271
321
356
518
569
712
772
806
822
825
818
802
780
752
736
683
640
594
582
518
472
421
390
365
344
336
314
299
282
263
259
241
257
319
421
477
635
709
758
768
797
797
788
767
746
720
704
649
607
574
528
505
441
411
384
364
356
336
319
303
283
271
255
235
253
307
396
447
598
675
725
755
760
771
758
736
724
700
651
612
569
526
489
443
392
365
341
323
314
287
267
251
235
230
204
198
222
287
336
505
612
687
744
764
775
780
767
746
720
704
649
607
570
524
501
429
402
380
365
360
336
319
303
287
275
259
239
257
314
412
472
644
732
791
823
829
844
833
813
790
776
728
689
645
598
562
538
461
421
404
364
356
332
315
299
283
279
255
247
267
336
384
550
648
724
776
797
807
817
803
782
760
746
700
663
620
574
562
481
435
400
369
356
328
310
291
287
259
243
222
214
225
279
328
479
578
659
710
720
755
758
748
726
716
675
641
601
558
522
484
437
411
390
372
365
346
332
321
307
303
285
273
275
299
348
493
602
691
760
788
810
829
818
805
784
771
728
691
648
605
594
511
468
429
399
388
372
352
346
332
307
294
275
268
282
336
386
542
643
700
751
776
807
807
797
775
764
728
695
658
615
582
534
473
433
400
372
362
336
323
307
291
287
263
249
239
260
287
421
527
621
695
732
759
780
778
772
744
732
694
663
624
581
570
491
469
412
386
372
332
314
295
275
263
247
226
212
201
214
247
362
473
574
655
671
741
755
756
744
736
704
674
636
627
562
514
457
425
398
376
368
346
336
323
307
303
275
259
247
249
263
376
487
600
700
748
788
825
825
819
805
793
755
724
685
641
631
550
501
457
439
404
368
350
332
319
307
291
271
256
251
267
303
430
550
654
734
752
822
833
833
821
813
776
750
720
683
651
608
554
507
463
429
415
380
360
348
334
328
303
285
267
255
255
315
403
511
615
671
722
772
783
788
776
766
730
704
670
629
619
538
492
449
408
392
352
330
311
295
283
269
251
235
226
214
229
294
392
504
604
627
729
759
772
770
764
736
709
679
643
611
568
514
473
441
412
404
380
364
349
336
332
309
295
279
267
267
323
414
530
558
700
759
813
823
826
813
803
771
744
712
677
667
590
542
493
450
429
380
354
336
315
303
290
271
251
235
226
239
298
396
509
612
635
742
775
788
786
780
752
729
702
671
643
600
546
503
462
425
408
360
336
310
289
283
247
228
206
186
178
174
217
301
412
493
582
671
710
732
740
734
713
691
671
636
619
546
500
453
412
396
356
336
322
311
303
295
287
277
272
263
261
275
336
434
550
578
728
782
813
822
825
809
786
759
728
700
659
639
558
534
465
446
408
364
348
340
328
307
291
271
263
247
243
269
375
489
574
666
712
795
809
821
814
801
784
752
720
704
643
600
542
518
469
412
399
361
356
328
314
295
279
271
243
240
243
247
360
473
530
694
754
788
794
805
797
787
755
728
704
663
643
578
554
469
450
412
360
340
321
311
283
267
247
239
222
198
202
235
247
388
447
550
648
708
744
746
748
728
712
682
667
615
569
509
488
445
396
383
348
344
328
319
315
295
287
267
261
251
267
311
411
461
631
712
788
801
825
829
826
799
788
744
706
687
612
590
514
489
441
388
368
349
340
315
299
279
275
259
230
235
269
283
433
548
607
746
772
813
814
817
797
780
754
740
691
673
598
576
530
465
447
399
392
364
350
344
323
315
295
289
275
275
299
380
421
578
665
752
768
801
813
809
790
784
752
722
708
640
619
554
531
485
457
415
369
356
332
315
295
287
271
251
245
237
239
315
412
461
629
667
736
744
763
764
756
737
728
687
655
611
590
550
518
479
441
437
421
410
404
392
384
368
364
350
348
364
426
457
619
718
825
847
890
918
919
916
914
881
857
845
787
768
712
690
647
590
566
539
526
497
481
457
447
429
396
391
372
368
402
531
578
732
764
825
833
849
845
837
815
805
764
734
695
674
631
566
555
496
477
433
414
404
372
364
336
328
311
287
279
309
323
441
492
647
673
724
756
759
759
756
728
701
687
633
615
550
538
492
449
384
344
323
279
260
251
233
214
194
172
154
142
150
214
247
430
481
598
612
661
671
670
662
643
620
572
554
499
453
372
350
307
283
239
222
214
192
186
170
166
152
133
125
125
158
232
353
485
601
693
760
782
793
793
775
751
724
694
654
611
552
501
465
404
378
364
340
332
319
313
299
283
271
247
239
235
261
340
473
586
659
726
770
797
802
799
784
763
738
712
679
644
602
560
516
477
446
419
400
384
370
360
348
334
319
303
290
287
315
388
489
590
677
744
775
794
801
793
776
756
716
700
663
620
577
530
481
433
388
348
318
295
279
263
247
235
218
202
189
183
210
275
380
497
593
666
716
740
748
748
734
713
687
655
617
574
530
484
449
418
391
372
357
349
340
333
322
307
287
271
263
269
323
421
535
643
736
784
819
833
831
821
801
772
740
708
665
621
574
522
471
425
384
352
328
310
291
275
263
247
230
212
201
226
293
400
526
632
713
768
797
805
805
791
770
748
716
681
643
600
554
505
467
437
412
395
376
360
348
334
323
307
289
275
264
281
336
427
532
635
702
751
780
794
794
784
763
741
712
678
637
594
551
508
465
425
390
356
334
315
299
289
275
259
243
226
222
233
287
376
485
585
663
709
738
752
755
747
728
705
675
639
596
552
505
463
426
400
379
360
348
332
318
303
287
271
255
243
248
291
383
496
615
700
764
801
818
823
817
795
774
748
714
677
635
590
542
493
443
406
376
350
332
315
303
287
271
255
236
226
237
294
388
504
612
700
751
786
801
807
797
776
755
728
695
662
621
578
534
488
453
416
387
364
342
323
307
291
272
251
232
218
218
263
344
449
554
640
708
746
767
772
764
746
724
695
663
623
580
536
489
446
416
388
366
348
328
317
303
287
276
263
251
244
263
315
416
530
635
716
772
805
821
818
809
787
763
732
697
654
611
566
515
469
430
403
380
360
346
332
315
302
287
268
255
251
290
368
477
589
686
756
799
823
829
825
806
784
760
728
695
653
609
562
518
472
429
396
366
344
332
315
299
283
267
255
241
244
275
361
472
586
678
746
784
809
811
805
791
770
744
716
681
639
594
546
497
455
418
384
357
336
319
299
283
267
247
230
214
208
235
291
399
507
602
673
721
740
752
750
736
713
686
655
616
573
530
481
435
400
370
349
332
321
313
303
293
279
267
252
241
243
290
374
485
596
690
752
793
809
813
805
786
760
732
697
655
612
566
522
475
434
400
374
354
340
323
307
291
275
259
239
230
249
303
412
528
635
714
771
797
809
806
793
771
747
720
687
649
607
560
516
473
431
399
372
352
338
323
309
295
283
267
253
247
272
337
437
551
651
724
775
799
809
806
790
768
741
712
679
636
590
542
492
443
404
372
345
328
307
291
275
260
247
230
214
204
206
264
353
461
565
651
708
741
758
760
748
729
704
671
636
594
551
505
461
425
395
372
360
349
344
337
323
311
299
286
275
279
322
400
514
627
720
791
829
853
861
853
837
815
788
756
722
682
639
592
551
509
476
443
416
395
374
356
336
319
299
283
272
271
325
414
522
624
708
760
793
806
809
801
782
760
733
704
667
628
585
542
499
455
412
386
361
344
333
319
307
291
275
259
248
253
287
372
475
570
657
708
744
758
763
756
738
717
691
658
620
578
534
485
441
407
375
344
321
297
279
260
247
230
214
198
182
190
225
303
412
526
615
683
724
748
751
742
724
702
675
639
600
554
509
462
422
388
366
348
336
326
318
311
305
294
279
267
261
283
358
463
578
686
756
805
829
840
833
819
798
772
740
705
663
620
574
526
477
434
396
365
341
319
305
291
275
257
239
218
221
253
332
442
561
655
728
771
797
801
795
780
759
734
704
671
633
590
543
503
465
433
400
372
352
333
319
302
283
263
245
226
210
235
297
392
505
602
679
730
760
776
771
760
740
716
681
647
604
558
509
461
421
388
366
345
328
313
299
283
268
255
239
228
228
263
337
447
562
659
732
780
801
809
805
787
766
736
704
666
623
578
530
485
453
421
396
376
357
344
333
319
299
283
269
259
276
328
425
542
649
736
791
823
841
835
822
801
778
748
716
677
633
590
540
489
445
404
372
344
325
311
299
283
267
247
235
226
243
298
398
514
624
702
760
790
801
801
787
766
736
704
671
631
586
535
481
443
403
368
337
310
291
275
259
239
222
209
194
179
179
222
299
412
522
613
678
724
736
744
736
718
694
667
632
589
546
499
455
412
382
357
340
326
321
315
310
302
291
281
269
267
290
357
465
581
681
760
811
839
853
847
830
809
778
748
708
665
621
574
530
484
445
412
380
356
334
315
303
287
273
259
244
239
275
352
465
574
667
734
780
793
801
797
779
758
732
700
665
623
580
536
493
451
416
388
364
348
336
321
310
295
283
267
255
256
286
364
465
573
663
722
763
784
788
783
768
746
718
687
649
609
566
518
472
433
396
364
340
319
303
287
271
257
243
226
210
202
224
289
388
492
586
663
704
728
740
737
724
704
679
647
611
568
524
481
439
407
380
357
344
332
326
321
311
299
283
267
260
271
323
414
530
639
718
775
809
819
825
813
791
767
740
708
670
627
584
540
493
451
414
384
362
344
332
315
302
291
275
259
251
264
326
425
535
640
728
771
803
817
814
801
780
758
730
700
662
621
574
531
488
445
407
386
364
348
334
319
307
294
279
265
257
275
334
431
542
639
714
768
788
799
801
787
766
740
712
677
639
594
548
501
454
411
380
354
333
311
295
282
267
251
235
218
206
214
255
337
442
550
625
685
720
737
740
732
714
690
659
621
584
542
497
451
412
379
357
340
329
321
311
306
298
283
268
255
255
287
362
469
588
687
764
805
831
841
834
818
797
768
733
695
653
607
558
514
468
433
396
366
344
328
314
299
287
271
255
243
248
287
370
481
598
682
744
784
802
805
797
779
758
736
702
667
627
584
540
497
453
418
388
366
348
332
321
307
291
275
256
247
248
283
356
461
564
651
710
748
764
771
763
744
721
691
659
624
581
538
489
441
404
370
336
307
282
263
247
226
210
194
178
162
158
184
249
352
463
561
635
683
713
720
721
705
683
655
623
582
539
493
445
400
368
344
323
310
295
289
281
275
264
253
247
245
267
319
422
540
655
737
799
837
853
853
841
819
795
764
730
690
647
602
554
509
471
433
400
374
349
332
319
303
287
272
259
255
277
340
437
550
649
728
780
810
817
818
805
784
760
730
700
665
621
578
530
484
441
410
383
356
340
323
307
290
268
251
233
217
214
265
346
449
551
632
691
730
744
748
736
717
691
665
632
590
546
497
453
406
368
340
314
298
283
272
256
239
224
210
194
186
202
247
350
463
574
663
725
760
778
783
776
755
730
704
669
625
582
539
499
461
431
415
400
394
386
380
369
356
344
333
325
323
370
454
562
673
767
837
884
908
914
916
906
890
872
851
829
801
768
736
702
667
635
608
586
570
550
534
518
501
485
469
454
454
481
560
651
744
822
876
906
923
928
922
904
883
861
833
801
764
722
685
643
600
560
522
495
468
441
418
391
368
342
318
291
281
291
340
433
532
615
682
720
740
748
742
724
701
671
643
609
569
526
479
435
392
365
341
323
313
302
291
282
276
267
260
252
247
293
368
469
574
669
728
766
784
788
776
758
736
704
669
631
588
542
497
454
416
384
358
337
319
309
295
283
265
247
230
220
230
279
378
488
590
677
730
760
772
772
764
742
718
691
658
617
574
526
480
441
408
382
360
340
323
311
297
286
271
253
237
222
239
295
388
504
612
691
746
778
793
790
776
756
732
700
663
624
581
534
491
450
408
376
346
319
299
283
271
255
239
218
202
192
186
221
294
396
504
590
655
694
713
724
716
697
675
645
608
570
527
481
437
395
365
340
321
310
299
290
285
279
273
265
251
247
263
319
416
535
635
716
770
801
811
814
801
779
755
724
690
649
607
564
518
469
431
399
376
356
340
328
317
303
287
271
257
251
282
354
457
574
671
744
793
817
829
822
809
788
764
732
700
661
617
570
516
468
429
398
374
356
341
328
315
299
286
271
259
253
279
352
454
562
658
728
776
797
805
801
783
762
736
704
669
627
582
534
481
434
396
364
337
313
295
279
263
247
229
213
198
189
197
247
332
442
542
623
679
720
730
733
724
702
678
647
612
569
526
479
443
412
387
365
352
338
333
328
322
314
299
287
276
279
318
399
509
620
714
784
821
840
849
839
822
801
774
744
708
665
621
574
527
484
445
414
387
364
349
336
323
307
294
279
269
275
319
404
520
631
713
772
817
823
829
821
803
782
756
728
693
651
608
562
514
471
427
392
364
348
332
315
299
283
267
251
239
244
276
360
465
573
663
721
759
776
775
764
744
721
694
663
624
581
534
485
439
404
372
340
315
294
275
259
243
229
214
198
184
178
200
264
364
472
566
647
687
714
728
724
708
687
663
631
590
547
504
457
415
383
356
333
322
311
306
298
287
282
276
267
259
267
323
412
526
635
720
782
817
831
837
825
803
779
748
714
677
635
590
544
497
455
418
388
362
341
328
315
302
287
267
251
243
259
315
412
522
624
712
755
787
801
798
784
764
742
718
687
649
609
566
519
476
441
407
383
360
344
330
315
305
291
275
260
247
259
302
388
493
586
665
720
750
766
772
760
741
720
691
657
619
576
532
485
445
410
376
346
325
303
286
269
255
239
222
206
194
200
239
322
430
546
629
694
736
754
759
752
734
713
683
645
605
562
519
476
441
411
390
372
361
353
344
333
319
303
289
275
271
299
375
477
592
691
768
809
835
845
843
826
805
780
748
712
673
629
582
538
489
449
412
383
360
338
322
307
291
275
259
243
245
279
357
465
586
677
747
793
811
819
813
795
774
752
720
685
643
600
554
505
457
425
396
370
352
336
325
311
295
275
256
239
228
247
303
403
508
607
677
725
752
764
762
748
726
702
671
636
593
550
505
454
416
386
358
336
318
299
283
267
251
235
220
209
206
229
294
392
505
605
683
732
762
768
770
754
732
708
675
639
596
552
505
462
433
408
388
375
360
349
338
323
307
291
279
267
281
323
423
536
651
732
791
829
845
845
837
815
794
764
732
697
655
611
562
514
471
430
396
369
345
328
311
298
283
267
251
239
251
305
396
514
619
704
758
793
805
806
793
772
750
722
691
653
609
566
515
475
433
402
375
352
336
319
303
287
271
255
233
217
214
260
338
445
550
639
700
741
760
764
758
741
720
691
657
615
572
526
481
439
404
376
350
329
311
295
279
263
248
235
222
212
214
247
336
443
554
645
716
752
774
779
772
755
730
704
670
629
586
539
499
465
435
414
392
380
366
352
340
323
311
299
286
283
310
380
485
600
700
772
822
844
853
851
837
817
790
760
728
689
645
602
554
505
461
427
398
372
352
333
319
305
291
271
260
260
279
362
468
582
678
748
788
811
819
817
799
778
752
724
689
651
608
562
514
467
429
396
375
356
340
323
307
291
273
255
235
229
248
299
399
507
602
679
728
756
764
764
752
734
710
679
644
601
558
509
463
425
396
369
352
332
313
299
285
271
255
240
229
218
249
314
408
524
629
700
748
772
784
782
768
748
720
687
651
608
562
518
476
443
416
395
374
356
341
328
315
303
287
271
264
272
315
411
524
631
722
779
817
830
833
825
803
782
756
722
685
647
604
558
509
462
425
388
362
344
332
317
306
291
275
261
247
261
313
400
514
624
704
762
794
813
814
803
784
762
732
695
658
617
574
524
473
421
387
354
328
307
289
275
259
243
222
205
192
186
220
290
388
501
593
663
704
725
736
729
713
691
667
632
594
551
505
453
411
379
352
332
318
307
298
293
287
283
275
259
255
268
315
407
520
627
716
770
805
819
822
813
791
767
736
702
662
619
576
530
481
443
408
384
364
348
340
329
315
299
283
269
263
291
356
457
574
671
744
794
821
833
826
813
793
768
736
704
665
621
574
524
476
433
396
369
348
333
319
307
291
275
259
247
239
263
332
434
546
643
716
764
790
801
801
783
762
740
708
675
635
592
543
489
447
410
376
345
321
303
286
267
251
235
218
202
193
198
247
330
438
542
624
681
720
730
733
724
706
682
651
617
577
534
484
441
404
378
353
336
322
314
307
303
298
283
272
264
263
290
357
461
573
670
748
795
819
829
822
806
784
758
728
691
648
605
558
515
472
433
402
375
360
345
332
319
307
294
279
265
268
311
392
508
619
706
768
809
821
826
817
799
778
752
720
685
643
600
556
509
462
422
388
360
344
328
313
302
287
275
259
247
252
285
364
468
573
663
721
759
776
776
771
752
729
702
671
636
593
546
499
455
416
380
348
323
303
287
267
255
241
226
210
194
190
213
281
380
488
582
663
704
728
740
732
716
695
671
639
602
560
516
469
429
399
372
353
342
332
326
321
311
306
295
283
276
287
344
434
550
659
738
793
825
835
839
825
803
782
752
720
685
643
600
556
514
472
434
404
375
356
336
323
310
295
279
263
255
272
337
437
546
648
732
775
807
821
817
801
780
758
730
700
661
617
574
531
488
445
408
379
356
341
330
315
305
291
275
256
245
259
302
388
493
590
669
724
752
763
768
756
737
716
687
653
611
568
522
477
437
402
372
342
321
299
283
269
255
239
222
210
198
206
247
330
438
550
629
689
728
746
748
740
722
701
675
641
604
562
519
476
445
415
396
384
374
365
356
345
334
319
305
291
295
328
403
505
619
713
788
829
853
861
859
843
821
794
764
732
693
649
607
562
516
477
441
411
388
370
352
336
315
299
283
269
269
303
380
483
598
682
747
788
806
809
801
787
766
740
712
679
639
596
552
505
459
422
396
375
356
340
329
315
299
287
268
255
244
265
323
418
518
615
681
726
752
763
758
748
726
702
671
636
593
550
505
457
425
395
370
348
326
310
295
279
265
251
236
225
222
245
307
400
508
605
675
724
751
756
754
737
716
691
659
627
584
540
497
454
425
400
383
369
360
349
338
323
311
295
283
271
282
319
415
526
635
716
772
809
825
825
813
791
770
740
712
677
635
592
548
505
462
425
392
365
346
332
319
306
291
276
263
251
260
309
392
505
608
687
744
776
788
790
776
756
733
706
675
640
597
554
508
471
433
400
370
348
336
319
303
291
272
255
237
221
218
251
321
421
524
613
675
720
736
740
737
721
700
673
643
602
560
514
469
427
392
364
338
322
311
299
286
275
260
247
235
224
224
251
334
437
546
636
704
744
766
771
764
747
722
695
663
625
582
539
499
465
435
414
392
380
366
352
341
328
315
299
286
279
299
358
453
570
675
752
807
831
841
843
829
809
786
759
728
694
654
607
560
514
469
435
403
376
356
340
328
317
303
287
271
263
275
344
438
550
649
725
772
799
810
809
793
774
748
721
691
655
612
569
526
483
439
400
374
349
332
315
297
283
265
247
226
214
217
251
340
442
542
629
686
720
734
740
732
714
690
663
629
589
546
497
451
412
380
353
336
321
310
299
289
277
263
248
237
226
241
290
376
485
596
675
729
762
776
779
771
752
728
695
659
620
577
534
491
455
425
404
386
368
353
340
328
317
303
287
276
276
299
379
481
594
693
758
805
827
835
829
815
791
764
736
701
663
620
574
530
483
445
408
378
353
336
321
310
295
281
267
251
253
281
348
455
569
659
728
771
797
801
795
776
754
724
691
654
613
570
522
473
421
387
352
323
303
285
271
255
239
222
206
193
182
194
240
328
434
534
615
670
702
724
722
712
691
669
639
607
564
520
477
433
395
364
344
330
319
311
309
303
299
297
287
286
289
319
392
497
607
702
772
821
837
845
841
823
802
772
740
708
667
624
578
534
491
453
421
391
369
352
334
315
303
287
273
259
263
295
376
485
596
687
748
786
809
809
803
784
762
734
708
674
633
590
546
500
457
416
387
364
345
332
319
305
294
279
267
253
247
277
345
445
546
635
704
740
762
772
766
750
728
697
667
631
588
544
501
463
426
388
357
330
311
294
275
263
247
233
222
212
206
222
277
375
481
580
653
712
732
742
744
730
709
687
659
624
582
538
495
457
430
406
388
375
366
364
353
342
332
319
306
295
303
344
429
536
641
732
784
819
837
834
823
805
782
755
724
689
645
602
558
512
465
425
390
364
338
319
299
287
273
259
240
229
235
271
357
469
581
673
740
771
787
793
780
762
740
713
683
651
612
566
522
485
453
425
396
380
364
349
338
323
313
299
283
269
264
295
364
463
570
651
713
756
775
780
776
759
734
704
671
633
590
542
491
441
398
357
328
298
276
255
237
221
206
194
178
166
156
178
239
334
445
554
621
673
704
713
713
704
682
658
627
589
548
501
458
415
380
350
332
319
305
297
287
282
273
267
257
252
267
321
418
534
641
730
793
826
843
845
833
814
793
764
729
691
648
605
558
514
465
429
398
370
348
336
322
311
295
279
267
255
263
311
403
511
623
697
754
784
798
801
793
771
747
720
687
653
611
568
524
481
442
412
388
368
354
340
329
318
303
287
271
259
256
291
360
459
560
647
706
744
764
771
766
748
726
700
667
632
589
546
501
453
416
384
354
328
306
287
271
255
236
218
204
190
186
224
297
400
511
602
671
714
738
744
740
721
700
671
639
598
554
508
461
418
388
364
344
330
319
313
302
295
287
268
255
247
263
315
418
534
647
728
782
813
829
829
817
795
771
740
708
670
627
584
535
493
454
416
384
362
346
336
323
310
295
281
267
259
275
332
425
538
637
716
764
794
801
802
791
772
750
722
691
657
613
570
527
484
441
410
383
360
344
328
311
295
279
263
245
229
226
268
344
445
548
635
695
733
752
756
746
729
708
681
648
611
568
522
477
437
404
376
354
333
315
299
283
267
252
241
230
222
230
263
356
461
566
653
717
748
766
771
768
751
726
700
666
625
582
535
492
457
427
406
384
372
356
340
328
311
299
283
269
267
294
364
465
580
679
752
802
823
833
830
817
797
770
740
708
673
629
586
543
500
457
425
395
372
356
342
328
313
302
287
272
269
287
366
469
578
674
744
784
807
815
813
797
778
752
724
691
655
612
572
530
487
446
408
380
353
336
319
301
287
269
251
230
220
230
275
365
471
566
644
695
724
737
740
732
710
689
659
625
585
542
495
449
404
372
345
328
309
298
283
264
253
243
226
216
206
232
294
388
505
616
691
744
771
784
782
768
748
721
691
655
612
566
518
477
447
416
396
378
360
349
336
323
311
295
283
271
273
311
402
515
627
720
782
821
840
845
837
819
798
772
740
705
667
624
578
534
487
449
412
386
361
348
333
322
307
290
273
259
263
298
376
484
592
675
738
774
797
799
791
772
751
729
700
667
629
586
543
497
453
421
394
368
348
329
315
299
283
263
245
229
214
237
294
388
492
584
655
700
724
740
734
724
704
681
651
619
576
532
489
441
403
372
350
332
319
306
301
287
272
261
247
236
236
263
336
441
554
651
724
772
794
805
805
787
766
736
704
666
623
580
534
489
455
423
396
376
360
348
337
323
307
290
273
263
275
323
412
530
637
724
783
818
841
840
829
809
786
756
728
693
649
607
558
512
469
429
396
368
345
332
319
303
287
271
259
248
255
303
395
509
617
701
764
797
813
817
805
786
764
737
708
671
628
585
538
489
443
400
369
342
319
302
283
267
249
230
214
200
194
218
285
390
497
592
662
716
736
744
740
726
702
675
645
605
562
518
469
425
392
365
344
325
314
307
302
294
279
268
257
251
259
297
380
491
604
700
763
803
821
821
815
801
778
748
716
677
633
586
538
492
449
414
387
368
353
340
323
311
295
279
264
256
271
323
423
538
643
726
788
815
829
829
817
798
776
748
716
679
636
593
546
501
455
421
387
368
352
337
326
311
299
283
267
259
267
319
408
519
623
698
752
784
799
802
788
771
750
724
691
657
615
572
526
477
435
398
368
342
323
303
287
273
259
243
224
210
208
237
303
403
508
607
665
708
728
736
730
720
698
674
647
609
569
522
475
437
404
376
360
344
334
329
319
309
298
283
272
261
267
310
394
497
605
691
752
782
798
805
793
774
748
721
689
651
608
562
514
471
430
400
379
360
348
336
322
311
299
283
271
261
281
336
434
550
659
728
782
813
822
822
813
791
770
740
708
673
631
588
544
501
457
422
388
366
350
336
325
314
299
283
267
263
272
323
408
519
621
700
750
779
793
794
780
760
737
708
671
636
593
546
501
450
408
372
342
319
298
282
267
251
232
214
200
186
182
205
269
368
473
562
631
671
698
704
700
681
659
631
598
558
515
472
429
388
353
323
303
290
279
273
268
263
257
249
243
241
260
307
407
520
635
717
779
817
833
835
825
803
776
744
710
670
627
582
534
489
450
412
380
358
342
332
315
302
287
272
259
247
264
323
416
530
635
716
768
801
813
814
803
784
760
730
704
666
625
582
539
493
449
418
391
368
356
342
328
317
303
291
276
265
271
323
407
509
608
689
744
775
788
788
776
758
736
709
679
643
600
556
514
467
423
384
357
333
315
299
283
267
252
239
222
212
212
230
305
402
505
597
667
708
730
738
736
720
701
675
643
608
566
523
483
449
419
398
376
365
357
352
349
336
323
309
298
291
306
360
449
565
667
744
799
826
841
843
829
809
786
759
728
694
654
607
558
512
469
435
403
376
356
340
328
313
299
283
267
259
267
330
422
534
636
717
764
793
806
809
791
770
748
721
691
655
612
572
530
487
446
408
387
365
348
337
323
311
299
283
263
251
253
283
362
462
558
640
694
732
747
755
748
730
709
683
649
612
570
527
481
437
395
365
340
317
293
275
259
243
230
213
197
182
184
217
291
400
516
611
681
726
752
756
751
736
714
687
655
616
573
530
487
449
416
395
379
368
358
350
344
336
319
303
287
282
295
361
461
578
689
770
821
855
868
865
852
830
809
780
746
708
665
619
574
530
487
449
418
394
372
350
332
311
295
279
263
257
271
323
419
532
631
709
758
784
795
795
784
763
741
716
683
651
611
568
522
473
441
408
380
358
337
319
303
287
267
245
226
210
213
240
311
411
514
602
663
704
728
729
726
708
686
659
627
592
548
505
457
411
372
341
317
299
285
273
267
260
249
235
224
213
214
257
341
453
564
658
728
770
791
797
790
774
752
724
691
651
608
565
518
480
450
429
408
390
376
365
352
340
323
310
295
289
302
360
453
564
667
748
799
833
840
840
829
807
783
760
732
697
655
612
566
518
476
438
408
379
357
336
321
307
291
279
263
251
261
310
404
512
615
695
748
780
797
795
784
764
742
718
687
655
617
574
531
488
449
416
384
360
338
319
303
286
267
251
230
214
206
229
297
396
499
588
663
700
724
736
732
713
691
665
635
598
555
512
465
423
386
356
333
319
307
297
289
279
267
253
239
229
229
267
342
450
566
662
732
776
797
805
797
779
758
732
700
662
619
574
528
489
457
425
400
380
364
348
336
322
311
295
279
271
282
333
429
539
647
744
793
827
841
841
833
817
794
767
736
702
662
619
576
532
485
446
416
388
366
350
336
325
311
295
281
269
279
322
408
522
629
716
776
810
826
829
817
798
776
752
720
683
644
601
558
509
461
425
388
356
332
315
299
283
263
247
226
209
204
222
289
386
497
588
661
708
730
741
740
726
705
679
647
612
570
526
477
433
398
368
344
328
314
303
297
283
267
256
243
230
226
256
319
426
539
639
709
758
784
797
794
780
759
734
704
669
625
582
540
500
469
439
415
392
380
366
356
344
328
311
297
286
291
336
416
530
636
725
788
826
845
845
837
818
797
768
736
704
661
617
574
527
484
441
408
379
352
332
313
295
279
260
247
232
232
263
348
455
570
658
725
764
790
795
788
775
754
728
701
671
631
588
544
509
473
441
408
387
368
352
336
322
307
289
275
255
247
260
299
398
505
611
690
747
780
797
799
797
775
754
728
694
657
615
568
524
481
449
419
396
380
366
352
340
323
311
299
286
279
299
358
453
564
663
740
795
819
833
835
825
809
786
759
728
689
645
607
564
523
485
453
426
400
380
366
356
341
328
311
297
297
319
403
505
615
706
776
817
840
851
849
833
814
788
764
732
695
654
616
574
535
497
461
434
410
388
368
349
328
311
295
279
275
302
368
477
590
687
759
799
821
829
821
805
783
762
736
706
669
627
584
538
493
446
408
376
346
325
307
286
267
247
229
210
194
202
243
319
426
528
602
658
693
716
718
710
695
674
649
619
581
540
497
454
419
392
370
349
332
321
310
303
298
293
291
281
275
287
336
416
522
621
694
748
778
791
793
780
762
740
712
677
639
596
550
505
462
425
396
376
360
348
338
330
319
303
287
271
267
286
344
439
550
643
717
766
793
802
802
797
775
754
728
700
667
627
582
534
481
439
404
376
354
333
319
305
291
275
257
241
226
240
291
380
485
582
659
710
740
756
755
744
724
702
678
651
616
573
530
484
441
404
378
353
336
315
299
279
261
243
222
202
186
178
200
261
360
465
556
627
674
701
716
713
702
683
661
633
598
555
512
465
423
391
364
344
328
319
310
305
295
290
285
279
273
273
307
378
483
590
682
747
797
813
821
817
803
779
752
724
686
643
600
556
518
476
438
408
383
361
348
337
323
307
295
276
263
268
301
384
495
605
695
758
795
817
818
815
801
779
758
732
700
665
623
580
536
493
453
421
396
382
368
356
340
326
311
295
276
271
299
369
469
572
661
736
767
786
797
793
776
756
729
700
667
624
581
534
485
437
388
349
319
291
265
241
218
197
175
154
133
115
117
156
240
344
451
540
607
645
667
675
667
648
627
594
556
514
469
418
368
322
285
255
233
214
202
192
183
178
172
167
162
156
175
230
329
450
574
663
733
780
803
811
805
787
766
740
708
675
635
592
548
505
468
446
425
408
395
380
368
354
340
321
307
303
318
375
469
580
682
760
810
840
853
856
848
829
807
783
752
720
682
639
594
548
509
473
443
421
399
380
360
340
326
311
298
290
303
354
443
554
651
732
788
822
841
845
839
822
801
778
751
720
682
641
602
560
519
485
454
427
400
380
361
344
328
309
291
276
273
291
356
445
542
624
686
728
754
759
756
742
721
700
667
635
594
551
508
465
427
392
364
342
323
307
295
282
267
252
239
226
229
261
323
437
547
643
712
758
776
784
779
760
737
710
683
640
597
554
507
467
433
407
386
364
353
342
328
317
303
291
275
261
259
305
386
497
608
702
764
806
825
829
821
802
780
754
724
687
648
602
554
507
463
421
387
360
344
328
314
303
289
275
259
248
245
263
346
451
562
658
730
772
799
807
805
787
763
736
708
673
631
582
534
485
442
402
364
337
313
291
271
255
239
222
206
190
178
180
210
295
398
501
589
645
679
693
693
679
657
627
594
551
505
457
403
352
307
273
244
222
202
189
182
172
167
162
156
151
146
171
230
328
449
565
651
710
746
760
762
748
728
700
667
631
588
542
493
446
403
360
340
323
311
302
294
287
277
269
259
252
247
259
321
418
530
639
717
776
806
819
821
807
786
764
736
704
671
628
585
542
495
454
416
396
378
364
349
338
328
315
299
283
277
286
328
418
528
631
712
766
801
815
818
809
791
770
740
708
673
631
586
538
485
442
402
368
342
321
307
291
275
259
241
225
210
204
217
275
366
472
566
637
686
720
725
725
716
694
667
635
600
556
514
469
423
380
349
325
311
298
290
283
277
272
263
252
241
239
271
344
453
569
666
740
786
810
821
813
794
772
744
712
675
632
586
538
499
455
421
399
378
364
349
336
323
311
295
279
268
265
303
379
489
598
691
756
801
817
825
817
799
778
752
724
691
651
608
565
522
479
435
400
368
352
340
323
310
295
283
264
251
245
264
336
434
547
647
716
762
788
794
791
776
759
734
712
679
641
598
554
508
465
425
390
364
338
319
303
286
267
251
230
212
202
201
239
315
419
522
615
669
709
728
732
726
708
685
655
623
584
540
493
446
406
372
342
323
311
297
286
275
269
259
243
232
221
230
275
366
481
593
682
744
779
801
809
798
782
760
736
704
667
624
581
542
503
473
449
427
408
392
382
370
360
344
330
319
310
329
384
481
594
704
772
826
857
871
868
857
840
815
788
755
717
675
632
589
542
493
458
425
395
370
348
330
309
287
265
244
235
239
285
364
479
584
671
730
766
780
787
779
760
738
712
679
644
601
558
511
468
433
400
370
344
318
299
283
267
248
230
214
198
190
206
260
352
459
556
635
683
716
728
729
718
700
675
643
611
568
524
477
437
404
376
356
342
328
321
315
311
305
291
279
269
269
287
365
465
578
677
752
797
822
830
825
811
790
764
736
701
659
616
568
518
475
434
400
379
362
348
332
318
303
289
275
259
257
290
360
475
588
679
748
794
813
821
815
801
778
751
724
691
657
615
572
528
485
446
408
376
356
342
328
313
299
287
271
257
251
272
337
433
547
644
720
770
791
797
798
782
760
733
704
671
628
585
542
492
443
404
370
341
315
295
276
259
244
230
210
194
183
178
216
289
388
493
588
651
693
712
720
717
701
679
651
619
582
539
496
453
421
391
364
352
338
332
326
321
315
311
306
295
290
303
352
450
561
663
750
803
833
847
849
837
815
794
768
734
697
655
612
566
518
475
437
404
378
353
332
313
299
283
267
253
239
255
309
400
518
628
708
762
794
809
811
803
784
763
738
708
674
636
594
551
505
457
429
402
380
360
344
332
317
303
283
267
256
255
303
384
493
604
687
748
782
798
805
797
778
756
732
700
667
624
581
538
488
445
412
386
361
344
325
311
299
283
267
251
240
235
247
299
388
493
586
659
712
737
748
752
740
721
700
667
635
594
551
508
465
427
398
376
357
346
336
325
311
299
283
269
259
263
293
368
473
586
683
754
797
825
826
823
805
783
756
724
689
645
602
556
508
465
423
388
360
341
330
315
301
287
271
259
243
239
271
346
457
573
670
740
786
810
821
814
798
776
750
720
687
648
605
558
514
468
433
402
375
360
344
328
315
303
290
275
260
255
275
332
431
538
636
709
764
784
793
788
775
751
728
700
665
627
582
536
493
450
407
376
346
325
303
287
271
255
243
224
206
197
192
222
291
394
501
590
655
700
718
724
720
702
681
655
621
584
542
499
455
416
386
361
348
333
322
315
310
305
295
289
277
271
286
337
433
543
651
740
788
823
837
835
825
809
786
759
728
690
649
607
564
520
477
442
412
388
362
346
332
321
307
291
272
261
275
325
416
526
628
712
768
797
807
813
799
778
756
733
704
667
628
585
538
489
443
412
383
364
344
332
318
307
291
275
259
247
249
283
356
458
566
645
708
748
766
768
760
742
721
695
663
628
586
543
500
453
412
380
348
322
301
279
267
251
235
218
202
190
179
198
251
350
458
558
639
693
724
740
740
728
706
682
651
617
577
534
491
447
416
387
368
352
345
337
328
322
317
303
289
275
275
315
396
509
621
718
788
827
852
857
851
834
813
784
752
720
677
633
590
543
503
461
429
399
372
354
333
315
303
287
271
256
253
279
358
461
570
662
729
768
793
795
788
771
750
724
695
663
623
580
534
489
453
421
388
366
348
332
319
306
295
281
269
255
248
272
328
430
535
627
697
746
768
780
775
764
741
717
691
658
617
574
531
491
449
412
383
352
336
317
299
285
271
259
243
226
214
218
259
328
430
532
615
671
704
720
726
716
700
677
647
615
576
532
489
450
410
376
350
334
323
314
309
299
289
277
263
248
243
255
328
427
546
658
744
797
825
839
841
823
802
780
748
713
671
628
585
542
495
454
416
391
369
352
341
328
315
303
287
275
269
289
340
439
552
655
732
780
809
817
814
805
783
762
740
708
673
635
592
546
501
462
425
396
376
362
352
338
330
319
305
294
279
290
336
416
523
625
700
754
783
797
798
787
768
746
718
687
649
609
566
523
480
441
403
368
336
305
281
263
245
226
210
194
183
174
202
267
364
473
570
643
687
712
728
722
709
687
663
628
590
547
501
457
423
391
368
348
334
323
314
309
303
297
283
267
261
272
319
412
531
635
724
783
821
835
839
833
811
790
764
732
697
655
612
569
526
488
453
425
402
378
364
353
340
328
310
291
275
282
322
408
516
619
704
763
795
817
815
805
784
763
736
708
674
636
594
550
504
461
425
392
368
349
336
323
309
295
279
263
249
251
282
352
453
554
640
704
740
759
768
758
744
724
697
670
639
596
552
509
467
429
396
374
344
323
307
291
275
259
245
235
220
214
226
277
372
481
581
662
724
750
763
768
760
741
720
691
659
623
580
536
497
467
442
421
406
395
384
369
356
340
328
311
299
299
323
400
503
613
712
779
822
845
849
841
821
798
771
740
702
662
615
570
522
473
430
387
356
326
302
279
252
230
210
190
171
166
192
269
388
511
616
700
740
764
776
774
760
740
713
686
655
612
569
522
479
435
400
374
360
348
342
337
332
332
332
328
322
319
344
407
504
611
701
771
821
841
852
853
841
822
801
778
746
708
669
623
574
526
480
445
408
379
356
329
305
283
263
247
230
214
214
247
317
411
514
589
648
687
705
710
704
690
669
643
611
578
542
500
462
429
395
374
360
349
341
332
326
321
315
309
295
291
311
374
473
588
693
776
826
856
865
863
847
825
802
772
740
701
658
615
573
532
497
462
435
412
391
375
360
342
321
307
294
289
307
369
463
578
669
741
788
811
822
821
807
786
764
740
710
679
640
597
550
503
462
429
398
374
356
345
334
319
307
291
279
271
282
328
418
520
619
690
741
764
776
774
760
738
714
687
659
621
582
539
496
453
410
372
340
313
291
275
259
243
226
206
190
174
167
192
247
350
458
550
619
665
683
690
682
663
639
607
566
522
471
416
361
318
279
247
217
194
182
163
146
124
103
81
55
36
24
27
67
146
259
369
457
516
543
550
551
535
514
487
457
425
392
357
328
309
298
291
285
276
271
264
253
247
249
287
368
481
602
716
784
839
869
879
879
869
852
830
809
775
740
700
658
620
582
542
509
481
455
431
408
387
365
344
322
301
279
265
273
319
426
544
659
740
794
817
829
829
817
795
774
748
716
681
639
596
550
505
463
429
396
370
352
336
319
303
287
272
259
247
240
267
323
433
543
635
705
754
772
784
779
764
742
721
695
663
631
590
547
504
461
430
403
372
356
337
319
307
291
279
263
249
243
268
336
437
551
648
720
770
791
797
794
780
760
737
710
679
645
605
562
519
479
441
408
384
368
348
334
319
305
294
275
259
248
255
311
398
501
598
679
728
756
770
772
760
741
720
693
663
627
584
538
493
454
414
376
349
325
307
287
268
255
239
222
210
200
208
251
341
451
558
647
706
744
759
764
756
738
717
691
658
617
574
527
487
453
425
400
384
372
358
348
333
322
307
293
285
279
317
395
505
625
730
805
853
880
894
895
884
865
843
818
788
756
718
675
637
602
566
539
515
497
477
461
445
427
408
388
370
368
396
471
568
663
750
803
841
856
864
857
845
826
805
782
752
720
685
644
602
569
534
497
467
442
416
391
369
348
322
298
267
257
268
319
410
512
594
665
710
736
746
746
736
714
690
663
629
589
546
501
455
416
384
357
332
313
299
283
267
251
235
217
201
190
206
252
340
447
550
631
686
718
736
734
724
704
682
655
623
584
543
501
457
419
388
366
348
336
326
318
311
306
295
279
268
271
307
391
504
615
706
771
817
833
839
833
815
794
772
740
708
667
624
581
534
491
450
416
386
358
344
329
315
303
287
273
259
264
302
388
501
609
700
759
794
817
817
811
793
771
747
720
686
648
607
561
512
465
425
395
368
349
336
319
305
291
275
263
249
251
285
360
465
570
659
724
760
779
784
774
758
736
709
679
643
600
556
505
468
427
388
357
330
307
290
271
251
229
210
194
179
171
186
241
338
445
543
616
675
701
717
724
710
689
663
635
602
562
519
473
429
396
369
348
329
318
311
306
301
291
286
277
271
289
332
421
530
637
728
782
819
837
837
829
809
786
759
728
694
654
611
568
524
481
441
406
380
354
336
319
307
294
279
263
249
259
305
396
509
615
698
760
787
803
809
797
778
756
728
695
663
624
581
534
487
446
416
387
368
348
333
322
311
301
287
271
263
268
315
399
509
619
694
751
784
799
802
788
771
747
720
687
653
611
566
518
469
426
386
356
330
311
291
275
261
247
230
214
202
193
214
279
375
477
578
641
687
712
721
721
708
686
662
635
597
556
514
471
433
404
376
360
348
342
337
328
326
321
311
302
294
307
352
441
550
653
733
788
817
827
829
815
794
772
744
709
667
624
581
534
481
435
400
365
338
315
303
290
275
259
243
226
214
222
275
368
481
598
678
737
768
782
782
772
751
729
704
671
639
598
555
512
477
442
415
388
366
350
336
323
310
295
279
263
255
263
309
388
499
604
687
738
771
784
790
779
760
737
708
675
641
601
558
509
463
425
388
356
332
310
291
275
259
243
226
208
197
194
221
286
384
492
589
659
704
733
740
737
721
700
677
647
611
568
524
481
438
408
384
362
346
336
329
321
315
307
291
279
271
282
328
423
534
647
729
788
825
841
841
829
807
786
760
728
693
651
608
562
518
475
434
400
374
354
340
328
311
295
281
267
259
271
325
416
534
639
720
768
801
813
814
803
784
762
734
704
670
629
586
538
487
441
408
379
352
336
319
303
283
267
247
229
213
210
257
341
453
555
636
691
726
740
740
726
705
683
655
623
586
543
497
449
403
368
336
309
287
271
261
253
239
224
213
202
188
184
202
275
372
481
578
657
708
736
750
752
736
717
691
659
627
586
543
500
457
422
395
368
356
342
336
325
314
307
295
279
267
275
321
404
522
632
724
788
821
837
844
833
813
790
760
728
693
649
607
564
523
485
451
419
392
372
356
344
329
318
303
287
276
283
340
426
534
637
724
776
814
830
833
825
806
784
763
736
700
662
621
578
530
481
437
403
368
344
323
305
287
265
247
226
214
217
255
345
455
562
654
710
748
767
772
764
747
725
700
667
632
590
547
504
465
431
399
372
345
321
303
287
271
255
239
222
202
202
221
279
375
488
582
653
701
732
742
746
736
714
693
663
625
585
542
497
454
416
390
365
348
333
322
315
309
295
279
263
252
251
291
366
473
585
674
740
780
802
809
801
782
760
732
700
663
620
577
530
481
441
404
378
353
336
317
303
287
269
248
226
214
217
259
350
467
578
669
730
772
787
793
788
767
746
720
687
649
607
564
518
469
435
400
372
345
321
303
286
267
251
233
214
198
204
239
323
438
554
651
721
764
797
798
795
776
755
728
700
665
621
578
530
481
437
404
375
352
330
306
283
265
244
222
202
183
170
180
229
319
427
530
619
673
710
732
732
726
712
689
662
631
592
548
501
463
429
400
379
357
344
333
325
319
309
301
291
281
275
299
360
462
574
673
746
801
821
829
825
811
790
764
732
697
655
611
565
518
471
427
392
357
333
311
294
275
255
237
216
202
202
229
311
421
542
647
716
762
788
798
795
776
755
730
700
661
617
570
520
472
429
392
360
332
302
277
255
233
214
194
174
158
150
170
240
348
467
574
663
712
747
760
759
748
728
705
675
639
600
554
505
458
415
380
350
326
303
287
271
255
244
233
218
198
182
186
229
318
433
546
640
716
755
776
784
782
766
744
716
681
639
596
552
505
459
425
396
376
360
344
333
319
303
283
267
255
247
273
348
461
582
700
772
826
857
871
868
857
835
811
780
747
706
659
615
569
522
476
438
404
374
346
319
303
285
267
247
230
226
248
318
425
548
654
732
782
811
825
822
811
793
770
740
708
669
625
582
538
489
453
418
391
368
350
334
319
303
287
271
252
241
251
302
391
501
598
682
740
778
797
801
794
778
756
728
695
663
620
577
534
491
450
412
382
354
332
311
293
275
259
240
222
210
216
243
323
429
542
633
704
748
774
782
780
763
741
716
682
641
598
555
507
469
438
414
392
370
354
340
323
307
291
276
263
259
282
346
449
568
675
760
813
845
857
859
843
821
798
768
736
693
649
607
558
507
461
422
387
356
330
311
295
275
259
247
232
226
243
313
415
538
641
725
780
811
825
825
813
794
772
746
716
675
632
589
546
503
462
429
400
376
360
340
323
307
287
271
251
240
243
271
360
465
570
661
725
760
783
791
784
767
746
724
691
657
615
566
520
481
442
404
372
349
325
307
287
271
259
243
226
214
213
248
319
429
542
639
716
764
793
805
805
797
779
758
728
694
657
619
580
542
518
489
462
445
429
415
404
390
379
368
357
352
360
427
519
631
733
814
865
895
911
914
906
887
865
843
813
776
737
697
655
612
569
526
497
468
441
419
398
380
358
334
311
299
305
344
434
539
631
709
760
788
801
801
793
771
750
724
694
657
619
576
535
493
449
408
372
349
325
307
287
271
255
233
214
194
196
220
283
383
491
578
648
694
720
729
729
720
698
674
643
605
565
522
475
431
392
364
337
319
301
287
275
264
253
239
221
208
202
236
306
408
522
619
691
740
764
776
771
758
736
708
675
639
596
550
505
463
431
404
384
368
352
337
323
311
295
279
263
253
261
311
403
519
631
720
779
821
835
839
833
815
794
768
736
701
659
616
573
526
483
442
404
375
353
340
322
303
291
273
257
243
248
286
372
481
594
687
748
788
813
814
811
793
771
744
716
681
637
594
550
501
453
415
380
352
326
307
287
269
251
230
214
198
186
201
252
344
451
551
635
687
722
740
738
730
712
690
666
631
592
548
501
458
421
388
365
341
328
317
306
295
285
273
259
248
243
267
328
430
546
649
728
788
810
821
821
807
786
760
728
693
651
608
565
518
469
423
392
362
338
315
298
276
255
233
212
194
189
210
287
396
518
623
695
744
772
782
779
764
741
714
683
649
609
566
523
480
441
410
380
356
334
313
291
273
255
239
222
206
198
222
295
404
527
635
728
771
803
817
814
801
780
752
720
683
640
594
546
497
449
408
379
354
332
310
291
271
255
239
222
204
190
190
226
302
404
516
608
679
718
742
752
746
732
712
689
657
619
576
532
489
450
421
396
376
360
348
341
333
323
307
291
279
273
293
348
445
558
671
746
802
833
847
847
833
811
790
760
722
682
639
594
546
497
450
410
376
345
318
291
279
260
243
222
206
202
217
279
380
496
604
691
742
778
793
798
787
768
747
720
687
653
609
566
524
487
457
427
406
384
366
350
340
323
310
295
282
273
287
344
438
554
655
738
797
830
849
849
841
822
801
768
736
704
661
617
570
527
484
441
404
372
340
317
293
271
251
232
214
200
194
210
275
369
477
572
647
700
730
741
744
730
709
683
655
617
574
530
484
441
406
379
356
336
325
315
306
298
283
268
257
247
256
299
380
499
612
708
772
815
833
840
831
813
790
763
732
697
654
611
564
520
477
439
407
376
356
340
323
307
289
275
259
245
247
303
395
514
627
718
780
825
841
845
837
818
797
770
740
708
665
621
578
531
485
441
407
378
360
340
321
303
287
271
255
244
247
275
368
479
594
690
763
801
823
831
829
811
790
764
736
701
663
620
574
526
479
438
400
374
349
332
311
293
279
261
243
222
216
226
271
361
467
566
654
710
748
760
760
752
734
710
679
644
601
558
514
468
429
396
369
352
332
313
299
285
271
259
244
233
222
247
303
400
516
624
700
755
790
805
806
793
772
750
720
683
640
597
554
511
473
437
410
386
368
353
340
328
313
299
283
271
268
295
378
488
602
706
776
825
849
860
857
845
826
805
776
744
712
669
625
582
534
491
453
422
395
368
349
336
319
302
283
267
263
282
344
445
561
655
729
778
805
814
811
801
779
755
724
691
654
611
565
511
457
410
372
340
309
285
267
249
230
214
197
180
170
175
208
283
388
501
594
665
708
740
746
746
736
714
690
659
625
585
542
503
468
441
419
400
388
379
374
372
368
362
348
341
336
352
403
489
594
689
764
821
851
861
865
855
839
817
786
759
720
681
637
594
556
516
477
446
419
396
375
356
336
314
293
271
257
263
315
406
522
631
712
766
805
811
814
805
783
759
732
700
662
619
576
530
481
439
404
376
350
332
311
295
279
263
247
230
218
226
269
364
475
585
675
737
775
793
791
783
764
737
710
679
640
597
546
497
451
412
376
341
311
282
260
239
217
201
186
166
150
142
159
218
315
423
523
607
654
686
700
698
687
667
639
607
566
522
473
421
378
337
303
273
255
235
220
209
194
188
176
166
156
159
198
275
394
522
628
709
764
793
803
805
787
763
732
698
658
615
566
515
465
419
384
360
340
323
311
295
279
263
241
220
206
205
240
323
437
555
663
726
775
801
810
807
788
767
742
712
674
633
590
539
496
461
425
392
364
338
319
299
287
268
251
236
222
218
247
322
429
548
654
732
782
811
821
822
809
788
767
740
708
669
625
582
534
488
453
416
387
360
334
318
303
283
264
247
228
217
218
256
329
433
538
624
691
736
763
768
770
754
732
708
675
635
592
548
505
465
433
408
388
372
356
344
330
315
305
291
283
275
289
328
422
530
639
722
787
825
845
848
841
823
802
772
744
709
671
628
585
546
509
477
449
423
404
388
379
370
360
346
338
336
358
421
518
631
733
813
863
898
910
914
908
894
872
848
821
788
754
712
669
628
586
554
524
493
473
454
437
415
394
372
356
342
344
395
473
574
669
744
797
827
841
845
834
818
797
770
740
708
670
629
590
547
507
465
427
395
368
341
317
291
269
245
222
204
201
214
287
382
485
577
649
695
722
733
736
724
705
679
647
612
570
527
481
433
392
362
336
315
299
287
277
269
263
252
244
243
247
285
352
459
568
655
725
760
780
787
776
760
737
710
679
636
593
550
501
455
421
388
361
336
315
299
283
268
255
235
213
200
194
241
325
437
550
644
704
746
764
768
764
748
728
701
671
635
596
552
509
468
433
400
375
356
336
315
297
283
265
247
226
210
208
230
311
419
534
632
697
740
759
767
760
742
718
691
662
624
582
539
493
445
402
366
336
314
293
271
251
235
214
193
174
154
142
144
186
268
379
485
577
641
687
708
713
708
690
669
639
601
561
518
475
429
376
348
318
295
275
259
251
241
236
230
224
218
214
241
298
400
522
629
720
780
821
845
845
837
817
795
768
736
693
649
607
568
527
489
457
430
408
394
383
372
365
354
340
329
329
356
425
530
639
736
809
861
887
898
898
887
871
849
822
793
760
721
678
635
592
551
518
491
463
449
433
416
396
379
357
340
328
338
392
484
592
691
764
815
853
864
867
857
841
822
801
772
740
708
669
628
590
548
511
477
447
423
400
379
357
336
313
289
275
273
295
364
453
547
631
685
722
744
750
750
736
718
694
667
633
596
554
516
476
437
396
364
336
310
286
263
245
224
202
182
163
158
188
263
372
485
585
663
704
730
744
741
728
712
689
659
627
584
540
501
459
422
392
374
362
352
346
338
328
322
314
307
306
322
380
469
580
687
767
821
853
864
867
853
835
814
788
760
725
687
649
609
566
524
487
457
431
412
396
384
370
356
336
317
307
314
362
449
552
655
744
797
831
849
849
844
825
803
782
752
718
678
635
586
535
485
435
398
360
328
298
271
245
224
206
184
163
154
164
218
303
411
508
586
637
673
687
694
686
667
645
621
590
562
527
489
449
416
392
372
356
344
338
333
328
326
323
319
311
314
340
410
507
615
704
771
817
840
851
845
831
810
788
756
724
683
640
597
554
508
471
437
411
387
364
348
329
307
285
260
247
243
272
340
446
556
655
717
763
784
795
790
776
755
733
704
675
640
598
555
512
473
437
404
380
358
342
328
315
299
287
272
259
255
272
332
425
532
629
704
752
779
784
786
772
752
728
698
667
628
585
542
495
451
412
380
350
319
303
287
271
256
243
230
216
205
202
233
301
392
496
585
647
693
714
720
713
697
675
647
612
570
527
479
433
386
345
311
285
265
255
244
236
230
221
213
202
194
205
239
333
443
554
644
712
748
770
775
768
746
718
691
654
613
570
518
469
425
384
354
328
311
298
283
271
255
239
221
202
186
190
236
319
437
547
635
701
736
752
759
748
728
701
671
639
604
561
518
469
423
388
354
325
307
287
273
263
248
235
218
201
188
182
228
309
421
539
639
708
754
772
776
772
754
728
695
661
619
574
526
477
427
382
344
317
293
275
260
247
230
214
198
178
160
150
150
194
275
380
487
568
631
669
685
695
683
665
643
609
572
530
487
443
400
362
333
311
291
277
271
261
256
255
249
244
239
247
276
340
446
568
671
760
817
853
864
867
861
840
815
784
751
710
667
624
581
534
492
457
429
407
386
368
353
340
323
307
297
287
315
378
473
586
683
764
814
844
861
860
849
829
806
776
744
709
666
623
576
530
485
443
408
380
354
336
315
299
286
271
260
255
267
318
404
509
608
683
740
770
780
784
771
750
728
697
670
635
592
548
505
462
419
380
349
322
303
286
267
247
230
214
198
179
174
190
245
342
449
547
623
679
701
712
712
698
677
651
617
577
534
489
441
392
360
330
307
289
277
267
260
252
243
236
225
218
232
275
364
477
596
695
768
814
837
843
840
821
798
771
740
702
662
615
570
524
481
439
402
376
360
344
328
311
298
283
267
253
255
290
374
481
589
681
756
788
810
817
809
790
768
746
716
683
644
601
558
509
461
421
386
361
340
322
306
291
279
263
247
237
229
255
319
419
530
625
698
748
768
779
780
764
746
720
691
657
619
576
532
489
449
414
384
353
329
307
290
271
255
239
222
206
194
194
222
295
398
509
593
658
704
722
733
732
714
693
667
629
589
546
501
455
416
382
357
336
321
310
299
294
289
279
268
255
251
269
329
425
546
659
748
807
843
857
859
845
825
802
772
736
701
658
611
566
520
477
441
408
380
354
333
315
303
287
271
253
248
263
319
414
534
635
718
776
809
822
821
811
790
768
744
712
679
641
601
558
515
475
433
403
384
364
353
342
328
315
299
287
275
281
311
391
491
598
679
738
776
798
803
797
779
758
728
701
669
627
584
540
493
446
403
360
328
301
279
259
243
226
206
190
174
164
172
210
305
412
518
600
665
700
718
726
720
702
681
655
621
581
538
489
443
404
375
350
328
317
306
299
290
282
275
269
264
267
307
380
485
605
708
784
835
863
873
871
857
837
810
780
744
701
655
607
560
516
473
439
407
380
358
337
315
294
275
259
244
241
259
337
439
550
649
725
772
799
810
813
797
778
752
728
695
659
620
580
538
495
457
421
398
374
356
340
323
311
295
279
267
261
277
328
426
534
635
713
764
793
805
805
797
775
754
728
694
657
615
570
522
473
426
388
356
333
309
291
275
259
243
225
206
190
190
212
271
361
467
558
628
674
704
714
714
704
682
658
627
589
548
505
458
418
376
349
325
307
298
290
283
276
268
263
256
251
255
305
391
501
619
710
780
819
839
849
837
818
797
768
736
700
657
613
570
520
472
433
400
370
348
329
318
303
287
271
255
249
257
299
387
503
611
701
763
805
825
830
825
803
782
760
728
695
655
612
569
522
480
439
404
383
361
348
333
319
307
291
277
267
272
305
376
476
584
675
737
780
809
810
807
797
775
748
720
685
641
598
554
508
461
418
375
340
310
289
267
251
235
214
202
186
174
179
212
291
391
496
586
644
685
708
709
706
687
665
637
607
568
524
481
439
399
364
342
321
307
297
289
283
276
268
263
257
260
291
358
467
590
700
783
849
876
895
902
890
871
849
825
793
756
717
679
643
607
574
546
527
514
497
487
476
461
449
430
416
415
434
497
588
687
780
848
891
914
923
923
910
892
871
849
821
788
752
714
674
631
589
551
522
492
471
449
431
410
388
368
349
340
342
391
473
572
661
736
772
794
805
793
774
752
725
698
671
633
593
550
505
459
416
376
341
315
290
271
251
239
222
206
190
174
170
193
252
348
457
556
635
685
714
724
725
712
691
667
632
594
555
512
469
429
394
368
350
334
323
317
309
303
298
293
283
275
283
328
411
522
639
722
784
825
843
845
837
819
798
772
740
705
663
620
574
526
479
438
404
375
353
332
321
310
299
283
267
259
267
313
396
512
623
720
779
817
837
844
835
821
799
775
744
712
674
631
588
544
501
462
425
392
365
346
336
319
303
287
271
255
251
269
332
425
526
615
683
722
747
752
744
725
704
671
641
611
568
524
477
429
383
344
311
279
247
225
204
186
164
143
125
108
91
85
116
186
287
398
492
562
608
629
635
627
608
582
550
512
469
423
369
319
273
239
206
180
164
154
143
135
125
116
111
105
101
123
174
289
415
542
643
721
768
795
806
809
793
774
752
714
674
631
578
530
481
445
415
388
368
349
332
315
299
283
267
251
239
252
303
392
511
624
708
774
809
829
837
831
821
803
782
760
736
701
667
628
585
542
504
472
445
423
402
384
369
356
336
319
309
307
353
431
538
640
724
780
814
830
833
825
806
784
762
732
695
658
617
574
527
484
437
399
364
332
301
273
251
229
210
190
172
162
166
216
299
404
505
584
643
677
690
695
683
665
643
611
576
534
491
445
400
362
330
307
287
271
259
245
237
226
220
209
198
201
228
287
390
511
615
704
758
793
802
802
793
771
747
716
679
641
598
551
505
457
430
406
384
364
345
332
317
303
287
271
260
259
290
362
473
593
695
772
822
849
865
860
849
829
807
780
752
717
677
635
592
554
518
481
451
425
400
382
360
345
332
315
299
291
307
360
451
558
657
732
784
814
825
829
815
794
772
740
708
667
624
578
526
481
433
384
342
305
271
239
209
182
156
135
113
95
89
109
171
276
392
495
573
635
657
673
675
662
640
615
585
544
501
455
404
360
319
287
259
239
222
210
200
189
178
167
159
154
162
200
287
404
531
643
722
779
813
827
827
813
790
763
732
689
645
602
554
508
465
434
404
384
368
352
340
323
310
299
289
281
287
333
425
538
648
737
809
840
859
865
861
843
821
799
772
740
701
658
615
570
524
481
441
408
380
354
330
307
291
272
255
241
239
275
350
458
574
669
736
784
803
809
809
791
770
748
720
685
647
604
558
509
467
423
392
361
334
311
290
271
255
235
216
198
182
190
230
311
414
526
601
663
704
722
730
728
710
689
663
629
589
546
503
459
416
378
350
328
311
298
283
276
265
259
251
235
230
241
298
392
512
623
712
771
809
825
831
821
801
778
748
712
673
629
582
538
489
449
412
383
360
342
326
311
291
272
255
240
232
255
322
427
550
651
732
788
817
833
833
825
806
784
756
724
691
648
605
558
511
468
433
402
375
352
336
317
299
283
264
247
235
248
295
396
509
623
704
763
801
817
819
813
795
774
744
716
681
639
594
543
493
450
412
380
352
325
299
279
260
243
222
206
186
178
200
255
362
471
574
653
706
736
752
750
740
718
694
667
628
585
542
495
451
412
382
354
332
319
306
295
283
264
251
235
221
218
245
315
416
536
639
716
767
794
805
802
786
764
737
705
663
620
572
518
471
430
388
356
329
303
283
264
243
222
206
186
171
174
206
307
429
550
651
729
772
795
806
805
787
766
740
712
677
635
592
546
501
458
423
392
376
360
344
332
313
291
269
248
226
222
249
315
430
548
651
728
776
805
814
817
805
787
763
736
702
665
623
574
526
481
439
404
372
341
317
291
269
248
226
201
182
162
166
201
279
388
504
598
673
718
744
754
754
740
718
694
659
620
577
530
483
439
396
368
341
319
299
283
271
256
243
222
205
192
190
240
329
449
570
665
736
776
798
809
802
786
764
736
701
659
616
570
526
484
451
421
390
365
340
318
299
279
261
243
222
217
233
295
403
535
651
740
799
837
853
859
853
835
814
788
756
721
679
636
590
546
504
467
429
398
374
356
340
323
303
286
269
259
276
328
421
538
645
728
787
822
841
841
835
825
803
779
752
722
682
639
596
552
509
468
433
400
365
338
315
294
272
251
235
218
210
232
297
396
508
608
687
738
768
784
783
775
756
729
702
671
628
585
538
491
453
421
394
369
348
326
307
287
269
251
235
220
212
226
283
386
501
611
694
756
783
799
805
797
778
756
728
690
647
602
556
518
484
446
416
387
365
344
322
303
283
267
248
235
241
276
368
485
607
708
775
818
841
847
844
829
807
783
752
718
678
635
586
538
489
447
412
384
358
340
319
302
283
267
247
230
230
265
349
469
588
690
772
809
833
845
843
829
809
786
759
728
689
645
598
554
505
461
422
392
368
342
321
299
282
260
239
220
206
218
268
360
473
581
670
732
767
788
797
788
770
748
724
689
647
604
561
514
472
434
404
378
350
328
306
287
271
251
232
214
198
204
247
334
447
570
655
722
768
787
795
788
771
750
724
690
649
607
562
514
473
438
411
388
366
348
328
311
293
275
255
239
235
263
341
453
577
682
764
810
840
849
851
837
817
794
764
732
697
654
607
562
511
465
427
392
368
342
323
307
286
264
247
229
224
243
311
422
550
647
728
780
809
825
825
815
794
772
748
716
683
640
597
554
508
471
437
407
383
356
338
317
299
279
260
243
229
232
263
344
449
562
654
721
764
794
802
801
787
766
740
708
673
631
588
542
501
463
429
396
369
348
332
311
293
275
259
243
226
226
261
332
450
564
663
732
778
797
809
803
788
766
738
708
669
625
578
535
495
457
425
395
368
348
329
311
295
276
259
244
236
247
315
415
538
647
733
788
823
837
837
826
810
788
762
732
695
657
613
570
523
477
433
404
378
356
336
317
299
283
267
247
239
252
295
399
515
627
712
774
805
822
827
821
803
782
760
728
693
655
612
566
518
471
430
392
365
341
319
298
276
259
241
222
202
198
220
271
370
481
582
663
712
744
758
760
748
730
706
675
641
601
558
511
465
421
384
357
336
319
306
295
279
263
243
225
209
198
235
307
421
544
653
728
780
807
821
818
805
784
756
724
683
640
594
546
499
458
425
392
365
340
319
301
283
265
247
226
214
220
259
356
477
598
705
772
817
841
852
845
833
814
793
763
725
687
643
594
550
501
455
416
390
365
340
319
303
283
267
251
235
237
269
348
462
584
679
754
799
825
831
831
821
799
778
748
714
674
631
588
542
489
446
408
380
357
333
311
294
275
255
237
218
202
209
247
328
437
547
639
700
740
764
766
763
748
726
700
667
628
585
542
499
458
421
398
374
356
341
328
307
290
271
255
239
230
247
307
412
538
651
740
805
835
849
853
840
818
793
760
725
683
640
594
542
493
447
404
369
342
319
302
281
259
241
220
202
201
225
303
418
550
663
748
802
841
847
847
837
815
791
764
730
690
647
602
556
509
467
429
400
370
349
328
310
291
271
255
236
222
239
295
400
519
632
724
780
815
833
833
827
809
787
763
732
697
654
611
562
511
465
429
394
368
342
318
295
277
256
239
218
200
190
212
276
376
491
598
687
733
763
776
775
764
744
720
687
655
611
565
522
479
435
404
375
356
340
325
311
291
279
260
243
229
226
263
341
462
590
691
767
821
840
845
845
827
806
780
747
706
663
619
570
522
473
427
396
366
345
323
302
283
267
247
230
222
225
276
376
503
627
736
794
837
857
861
856
841
818
791
764
726
686
643
594
548
505
463
426
392
366
345
323
307
289
271
251
232
230
267
348
465
585
690
768
807
831
841
839
822
801
778
748
716
677
633
586
542
493
449
412
380
356
330
309
291
269
248
230
212
198
198
243
326
441
551
643
712
751
775
780
775
754
732
702
667
627
584
540
493
450
410
380
354
336
319
307
289
271
249
228
210
198
209
255
362
495
627
728
801
841
861
864
857
835
809
776
741
698
655
611
560
514
475
434
400
374
349
332
311
293
275
255
239
230
253
321
429
564
685
772
829
861
873
875
864
845
822
795
764
729
686
643
594
543
497
458
421
384
362
341
323
302
281
263
247
233
239
302
404
530
648
742
805
840
853
857
844
822
797
768
736
695
653
607
562
514
465
421
379
349
323
301
276
255
233
209
186
170
162
170
239
338
457
573
662
720
754
770
772
756
734
708
675
637
594
550
501
457
421
391
360
344
328
311
299
283
271
257
239
222
226
267
348
477
607
712
793
835
861
869
861
845
822
793
760
722
682
639
592
546
501
458
421
388
366
345
328
307
289
267
251
240
239
298
398
526
649
755
817
859
875
877
869
851
829
801
768
732
689
645
598
550
501
453
415
378
344
313
286
263
241
220
198
178
175
198
275
386
509
624
705
756
786
799
797
784
766
740
708
673
631
586
538
493
451
419
392
369
345
323
302
281
259
237
216
194
189
197
239
332
453
570
666
733
776
793
798
793
771
750
720
682
641
598
551
508
465
438
414
396
375
353
336
314
295
275
257
244
239
281
366
489
623
733
809
857
879
890
883
867
845
821
788
756
717
674
627
578
532
493
457
425
396
368
352
332
314
295
279
269
281
332
427
554
663
752
806
841
856
859
853
835
814
793
764
732
695
653
609
566
532
492
457
426
396
368
342
318
291
269
251
235
235
264
340
449
560
651
712
750
772
774
771
756
734
710
683
649
609
566
523
480
437
400
374
348
318
299
279
257
236
214
194
175
162
171
220
319
435
551
647
709
747
764
763
755
736
709
679
639
596
550
497
450
412
380
353
329
315
299
283
271
259
240
222
208
205
247
328
459
594
704
784
841
857
865
861
844
822
797
763
722
679
633
582
534
491
447
408
375
353
332
314
295
275
259
243
230
233
268
360
477
598
700
767
810
837
843
840
825
803
779
748
714
677
635
590
542
493
453
421
392
366
348
328
310
291
275
255
239
235
259
329
433
547
653
736
778
807
821
819
809
788
766
738
708
669
625
582
538
492
449
414
384
360
334
313
291
275
256
235
216
202
206
244
328
441
554
648
716
755
774
780
770
754
732
700
665
627
582
536
493
453
418
392
372
356
340
322
303
283
263
244
230
224
253
328
451
586
712
786
843
873
883
880
869
848
821
788
751
710
667
619
573
526
484
446
412
380
350
319
299
281
259
239
220
214
237
313
429
560
673
756
806
835
845
843
829
809
782
752
720
681
637
590
542
491
449
412
383
360
333
309
291
269
248
226
208
197
206
261
356
477
589
681
744
782
801
801
793
774
752
720
687
647
604
561
509
459
422
388
362
338
311
289
264
239
217
193
170
155
150
166
240
345
469
577
661
716
750
758
756
742
721
691
657
613
570
522
473
437
400
370
348
322
303
287
271
252
235
217
198
186
194
251
344
483
612
720
788
831
849
855
841
821
797
764
724
681
635
582
526
477
433
395
360
323
295
268
243
220
193
170
150
139
146
209
314
449
582
687
760
806
825
829
821
802
776
748
713
671
628
580
534
487
446
412
387
368
352
336
319
303
283
267
251
241
249
283
384
505
627
726
799
837
860
868
865
848
823
797
764
729
687
644
598
554
507
467
425
392
360
336
314
293
275
253
235
214
209
222
271
370
484
594
686
742
776
790
793
780
759
732
700
662
621
578
531
491
449
422
398
376
356
340
323
305
291
271
256
248
251
310
407
526
639
730
784
822
839
841
843
831
817
799
778
752
720
687
655
617
585
554
532
516
505
495
484
473
462
449
437
433
454
509
602
702
788
861
907
934
944
949
942
926
907
886
857
825
793
758
717
679
640
602
566
539
515
489
469
450
429
407
388
372
383
429
509
609
701
764
811
833
837
829
810
788
756
718
675
632
586
538
491
442
388
346
311
279
252
228
206
184
163
142
124
108
93
121
186
283
392
489
562
608
637
655
649
639
619
596
566
534
491
447
404
365
333
307
289
277
267
259
256
251
247
244
239
240
261
319
423
550
663
755
819
865
887
898
898
886
867
841
809
776
736
693
653
611
578
546
514
491
467
449
431
412
392
370
349
332
345
396
481
586
681
760
811
844
861
861
853
833
811
787
756
722
682
639
596
552
509
472
437
408
383
364
344
326
305
283
271
263
267
310
394
489
588
666
724
755
771
776
764
746
724
691
659
623
580
536
489
445
399
360
329
299
275
257
239
218
201
184
170
151
146
162
217
314
421
519
594
655
681
694
700
686
665
639
609
572
530
485
439
400
368
341
319
305
294
287
282
276
267
260
252
247
267
321
421
535
645
736
794
831
849
848
840
821
799
775
744
710
673
631
588
544
501
461
429
404
379
357
344
328
314
299
281
272
283
330
425
538
643
729
797
822
839
845
833
814
793
768
736
704
665
619
570
522
476
433
394
369
348
332
318
303
291
275
259
245
248
287
362
468
574
655
717
756
775
780
780
764
746
724
691
657
615
570
522
477
439
402
372
342
321
299
277
256
235
214
196
178
163
176
230
318
423
530
604
661
695
713
713
704
682
658
627
589
548
505
461
415
376
346
328
307
297
286
275
264
253
243
233
228
247
294
380
493
605
694
760
795
817
825
814
798
776
752
720
683
640
597
550
508
471
437
407
386
364
352
338
328
311
295
283
272
283
328
419
527
643
726
791
833
851
856
849
835
814
793
760
728
695
653
609
562
515
475
441
415
394
372
360
341
323
303
287
279
281
318
396
501
604
691
751
788
809
815
810
797
775
748
716
682
644
602
558
507
461
419
384
356
329
307
291
279
263
247
225
206
194
205
253
336
438
532
611
665
700
712
713
702
683
661
631
598
560
516
473
427
390
360
334
313
291
285
273
267
260
249
239
229
226
243
307
404
522
624
705
760
795
806
809
797
778
752
724
691
651
609
569
530
491
453
429
407
388
372
352
333
315
294
275
263
263
301
372
491
604
704
778
831
865
891
907
914
916
908
894
872
845
809
766
720
671
624
581
538
505
473
437
404
369
340
307
277
255
271
336
449
598
738
849
930
979
1007
1020
1023
1015
993
966
926
880
823
756
685
607
530
461
404
356
319
287
259
232
205
182
156
140
129
164
224
303
386
455
509
550
577
590
593
585
570
548
527
497
461
426
388
352
322
291
271
255
239
229
221
214
205
200
190
188
209
259
353
461
566
655
714
752
776
787
784
772
754
732
702
665
623
576
532
489
446
408
372
345
321
295
273
252
230
214
201
190
228
303
408
523
625
695
744
768
776
774
760
740
717
687
655
617
577
534
492
457
425
403
382
364
348
332
319
303
287
271
255
252
275
350
453
566
665
732
780
805
815
809
795
774
752
720
687
651
608
565
522
473
430
392
361
337
311
291
275
255
233
214
194
183
189
226
309
416
518
602
659
700
720
728
724
702
681
655
619
581
538
495
449
400
372
342
315
297
283
271
260
252
243
232
221
210
222
271
360
469
577
663
722
760
784
784
776
756
734
708
675
632
589
546
503
468
441
421
404
392
378
366
356
340
326
311
301
303
340
423
536
647
738
803
849
869
877
873
860
839
817
788
756
720
677
633
582
539
496
461
430
403
380
362
344
323
302
286
275
279
309
388
493
607
700
766
809
841
843
840
829
811
787
760
732
700
659
615
569
526
484
449
421
391
372
356
338
319
303
287
271
259
275
332
425
526
617
691
737
764
780
778
767
748
725
698
667
629
589
546
504
463
425
394
366
352
334
315
303
287
273
259
244
239
259
310
407
518
616
691
752
778
788
793
780
762
740
712
677
639
596
552
514
477
447
421
402
388
376
365
354
344
328
311
299
302
337
421
528
633
724
782
819
841
841
835
817
795
771
740
706
669
627
578
532
485
445
410
384
358
340
323
311
298
283
268
257
263
301
390
501
608
697
764
791
810
817
809
790
768
741
712
679
640
597
554
501
455
416
382
354
332
315
299
279
267
248
230
216
205
226
286
383
489
580
647
695
716
726
728
716
697
675
643
608
570
527
484
441
410
383
364
349
338
328
321
313
303
294
286
279
277
310
384
485
593
695
754
797
817
826
823
813
791
770
748
716
681
643
605
565
526
491
461
437
411
395
380
369
356
340
325
311
319
364
453
562
665
748
805
833
844
849
837
818
797
774
744
712
677
633
586
538
492
457
422
395
372
354
336
319
303
287
271
259
264
307
395
503
611
685
741
772
786
788
780
759
737
712
679
644
602
560
516
469
419
382
348
322
303
283
271
255
239
222
206
194
183
202
255
350
453
550
620
666
691
708
705
691
670
645
615
581
540
497
454
411
380
350
332
319
313
307
303
302
299
295
287
285
291
330
408
514
615
701
760
798
817
817
809
790
768
744
712
679
636
593
550
508
471
433
403
379
356
345
334
319
307
291
279
267
277
323
419
527
635
716
770
801
817
817
809
791
770
744
716
683
643
600
556
509
462
422
388
362
346
332
319
303
287
268
255
239
240
283
360
468
570
651
705
740
748
750
736
716
691
662
631
596
552
509
459
422
388
357
330
299
283
267
251
239
222
210
198
184
178
198
257
348
454
551
623
674
701
712
713
697
675
648
619
586
547
504
465
429
396
372
352
341
332
330
328
323
319
317
315
311
322
356
450
555
659
740
802
833
847
849
841
823
799
772
740
708
667
624
578
534
491
453
421
399
378
360
344
325
311
295
279
267
281
332
421
532
635
716
771
798
813
814
801
780
759
737
708
674
636
594
550
501
457
419
390
372
353
342
332
317
306
291
275
264
263
314
392
493
594
673
724
754
770
772
756
737
716
689
659
623
580
536
493
446
403
360
332
305
283
263
247
230
214
198
182
166
160
182
252
352
461
561
631
679
702
710
708
694
673
647
613
576
538
495
454
412
384
357
340
329
323
319
311
309
307
302
297
291
317
376
469
585
693
772
826
856
869
871
857
837
814
787
756
718
678
635
588
544
501
469
437
408
388
372
356
334
315
295
272
259
271
332
426
534
633
709
760
784
795
797
784
766
744
721
691
659
620
577
534
485
445
412
391
369
352
337
326
315
303
287
271
265
273
315
402
507
598
669
717
744
755
758
748
726
705
679
647
612
570
527
481
433
399
361
328
301
276
263
247
230
214
198
184
170
172
200
271
376
487
578
640
683
712
713
710
691
670
643
611
576
532
489
446
411
380
360
344
336
328
325
323
318
313
307
302
305
328
392
495
607
709
784
837
863
873
873
856
834
813
784
752
716
673
627
582
540
500
465
434
407
392
375
356
336
313
289
271
265
287
352
453
564
659
729
772
805
806
803
793
771
747
720
691
657
615
572
526
477
437
404
376
357
344
332
317
306
291
279
263
251
267
323
421
522
613
683
729
754
764
758
741
720
697
667
635
596
552
509
467
429
392
357
328
303
286
267
255
239
225
210
194
180
182
217
298
400
501
585
651
678
694
700
691
673
651
624
594
558
519
479
441
410
386
364
350
342
340
334
329
323
322
317
311
315
340
412
514
621
720
787
830
853
857
852
837
815
791
764
732
697
655
611
562
514
473
438
412
387
368
348
330
309
291
275
259
259
289
364
469
577
669
744
780
802
809
805
786
764
741
714
683
645
605
562
519
476
437
399
378
360
344
330
315
305
291
275
261
253
275
340
439
546
632
697
740
759
764
760
742
721
695
667
632
594
551
505
461
425
390
360
330
309
287
271
257
243
226
208
190
179
190
235
322
427
534
607
661
691
709
709
700
678
657
631
597
560
522
480
439
408
380
364
348
338
333
328
326
321
315
314
309
315
353
434
542
649
738
801
835
855
861
851
834
813
790
760
728
689
645
602
560
516
481
445
415
392
375
356
340
318
297
275
263
265
307
391
499
615
690
750
784
802
805
797
779
758
736
708
675
639
597
556
514
468
430
404
384
370
356
350
342
332
319
303
291
293
328
400
507
612
695
755
790
809
815
807
788
767
740
708
674
633
590
540
487
441
398
357
323
298
279
263
247
230
214
196
182
174
192
248
336
443
540
611
659
686
691
693
679
659
636
609
578
535
492
449
410
380
356
340
329
319
314
311
311
306
301
295
294
313
356
450
555
659
740
797
833
849
849
837
819
798
768
740
705
663
620
574
526
484
449
416
390
368
352
334
313
295
279
263
255
271
325
416
528
628
708
756
786
793
794
783
764
741
714
687
654
616
574
527
484
445
414
387
360
349
338
323
313
299
283
268
257
259
315
402
505
598
674
724
755
766
764
752
733
708
681
651
615
572
528
481
439
402
368
336
309
291
271
255
239
224
210
198
188
188
214
302
404
509
596
661
695
712
714
712
690
669
643
609
572
530
488
450
416
391
369
352
341
333
328
322
314
307
297
286
283
310
378
477
588
685
756
807
831
841
843
829
809
782
755
724
685
639
590
540
489
445
407
375
348
328
314
303
289
277
263
252
252
271
358
463
574
670
742
784
811
819
817
801
782
760
736
704
667
628
582
538
495
451
412
387
368
352
336
319
303
287
271
255
251
277
340
442
547
635
702
740
760
768
760
744
722
698
667
633
593
550
503
459
416
379
344
311
289
264
243
221
202
182
164
146
125
136
182
259
365
468
546
605
640
659
662
654
635
608
578
542
499
453
408
361
323
291
271
255
243
233
225
218
213
208
202
197
208
251
348
469
590
698
771
821
848
856
849
827
806
780
748
713
675
632
589
546
507
469
437
410
386
372
357
344
332
315
302
287
302
350
437
548
657
732
786
815
829
830
819
801
779
752
720
687
649
607
564
518
473
439
404
376
353
329
315
303
287
271
255
247
247
295
376
477
577
653
704
737
751
752
740
721
700
675
643
611
568
522
477
434
396
364
337
310
283
263
247
226
209
190
174
162
159
194
268
376
485
581
648
695
717
728
724
706
685
655
621
581
538
495
449
400
374
349
332
317
306
299
293
285
275
268
263
263
303
379
489
613
716
788
839
863
873
867
851
829
805
770
736
693
649
607
558
512
473
441
411
384
360
344
323
307
291
275
263
263
299
382
492
598
689
751
793
809
814
809
791
770
744
712
679
643
600
556
509
467
426
392
369
345
332
319
303
291
275
261
247
253
294
376
480
585
671
730
763
784
783
772
752
730
704
671
637
597
554
507
463
421
383
348
319
295
279
259
241
222
206
190
174
166
188
249
348
451
548
627
674
701
712
709
695
675
647
615
574
531
488
441
399
364
336
315
297
287
277
272
267
260
252
247
249
271
332
422
540
651
733
793
833
840
843
833
811
784
756
721
678
635
590
544
501
459
425
396
366
348
336
325
314
299
287
273
271
299
372
477
585
682
752
798
819
829
822
806
784
762
732
700
665
621
578
534
488
449
410
380
360
344
328
315
303
290
275
260
257
295
366
477
586
674
738
784
797
805
797
779
758
732
704
671
631
592
548
501
454
416
384
354
333
311
295
279
259
243
224
206
200
213
271
358
461
558
631
679
708
717
720
708
686
662
631
593
552
509
465
419
384
353
323
307
293
279
267
260
252
243
230
217
218
249
330
441
552
649
728
764
788
801
797
778
756
728
693
655
611
565
522
480
442
416
398
384
368
353
342
328
315
299
287
286
307
380
483
598
704
776
822
849
855
855
841
819
795
768
736
701
663
620
577
534
493
458
433
407
388
368
356
342
332
315
302
303
333
408
514
619
705
772
803
822
829
821
805
784
762
734
708
670
632
590
548
514
477
442
412
388
366
342
319
299
281
263
245
237
255
313
404
509
594
659
704
724
734
736
720
701
679
651
616
578
535
492
449
408
376
352
334
315
295
279
265
251
235
218
206
198
222
287
388
499
607
670
716
744
754
751
736
713
686
655
616
573
530
483
445
416
387
368
356
345
337
328
315
302
287
273
265
287
349
457
582
685
766
821
849
857
857
844
822
801
772
737
700
657
613
566
523
480
445
415
391
368
350
334
323
311
295
283
275
299
368
469
577
675
737
780
801
809
803
788
767
746
720
687
655
615
572
528
481
441
406
380
360
344
328
315
299
279
259
240
230
239
287
368
472
566
643
689
718
728
729
718
700
678
651
619
584
540
493
450
407
376
346
325
307
295
282
267
251
235
222
209
204
218
276
374
489
586
667
720
752
766
764
755
733
708
674
639
598
555
509
469
434
410
388
374
362
352
341
330
315
299
283
279
290
346
441
562
673
760
815
848
861
863
852
833
810
780
748
714
674
631
586
540
497
461
429
404
379
360
344
323
307
295
281
272
287
344
435
550
640
716
764
793
806
805
791
770
748
724
694
663
624
581
534
487
446
412
387
368
352
341
330
315
303
287
275
263
276
323
418
518
615
681
729
752
764
762
748
726
705
675
647
609
566
523
477
437
394
356
323
297
275
259
243
224
206
190
174
162
163
204
279
392
500
590
649
690
708
713
702
683
661
631
598
555
512
465
425
392
364
342
326
311
310
305
299
294
286
279
275
286
319
406
516
635
728
798
837
863
868
861
840
818
788
760
725
683
640
594
554
515
475
441
414
390
372
356
337
319
301
287
275
281
323
404
518
623
708
764
797
809
814
803
784
762
734
708
675
640
598
554
505
461
423
391
368
352
338
323
313
299
287
271
257
255
306
384
489
592
670
724
759
770
772
759
737
712
685
655
619
576
532
489
442
402
364
332
305
287
267
248
230
216
202
182
167
164
178
252
352
461
556
632
675
698
706
704
686
662
635
602
565
522
477
431
392
361
337
315
305
297
291
290
282
275
271
268
267
297
361
457
578
683
764
819
844
853
851
837
817
790
760
728
689
645
602
555
512
469
435
406
380
360
344
332
317
303
287
272
269
287
366
472
582
678
748
784
807
815
809
791
770
748
721
691
655
612
566
518
471
433
396
375
356
340
325
311
299
287
271
255
251
277
340
447
555
643
714
752
776
783
772
756
734
710
679
645
608
566
519
473
429
387
352
319
298
276
259
240
226
210
193
176
162
171
214
295
402
504
582
637
673
691
694
683
663
641
615
578
539
496
453
406
368
336
314
295
279
269
261
255
251
248
243
237
245
275
354
457
570
670
740
788
811
819
817
799
778
756
724
689
647
604
561
518
475
437
408
388
372
360
345
334
323
307
291
275
290
338
425
542
653
732
791
826
841
843
829
809
787
763
732
698
661
619
574
526
477
439
404
376
350
329
315
303
287
271
253
240
239
289
375
485
596
677
736
770
783
788
775
754
732
708
675
643
600
556
514
471
433
396
364
337
311
290
271
255
237
216
194
182
174
194
257
354
461
552
623
671
701
712
712
694
673
647
615
577
534
491
445
400
368
341
315
297
283
275
265
260
255
248
240
235
241
279
360
469
582
675
736
774
797
797
788
768
746
716
683
644
601
558
515
477
441
408
382
364
345
332
319
303
287
271
259
251
275
344
451
570
677
752
805
830
841
837
823
802
776
746
716
679
636
593
546
501
455
416
386
361
344
328
311
299
283
269
255
253
275
344
446
562
663
734
780
813
818
815
797
775
751
724
690
653
611
566
518
465
422
384
356
326
305
283
265
247
226
210
194
182
189
226
307
411
516
607
661
698
720
720
714
695
673
643
611
572
528
477
435
400
368
341
317
303
289
281
275
268
260
255
244
239
263
328
430
546
649
728
784
806
817
817
799
778
752
722
685
643
600
554
505
463
429
400
378
364
348
333
322
307
295
279
267
275
318
412
523
636
728
791
831
849
848
837
821
798
771
740
706
666
623
580
534
489
447
410
380
354
336
319
307
294
279
263
249
255
301
392
505
615
698
764
791
807
813
805
786
760
733
704
667
628
582
534
487
446
412
378
353
332
314
295
275
259
240
222
205
197
226
290
387
493
588
655
704
724
732
732
718
697
667
635
597
554
509
461
416
384
352
328
307
294
283
272
264
255
243
229
222
222
265
348
458
569
667
725
766
784
793
784
768
746
716
683
644
601
558
515
477
449
419
398
376
361
348
332
321
307
291
277
272
303
379
489
607
704
776
825
845
853
849
831
810
788
760
725
687
648
602
554
505
459
425
394
366
344
328
314
299
283
267
255
248
281
356
462
576
679
741
784
805
810
807
788
767
742
712
678
643
602
558
512
469
434
407
384
362
344
323
311
293
271
251
232
226
237
291
380
488
582
659
709
738
752
750
736
716
694
665
627
588
544
497
450
410
380
350
329
311
294
277
263
247
230
214
201
196
210
272
369
485
581
659
712
740
754
752
744
725
700
666
625
582
539
493
453
419
395
372
357
349
340
333
319
303
289
275
271
286
345
445
561
669
756
807
840
853
855
841
821
798
768
736
702
662
619
570
522
477
441
408
380
354
338
323
311
295
279
264
256
271
337
437
558
654
732
780
807
818
817
803
782
760
732
700
663
620
577
530
479
438
404
379
357
340
328
314
299
283
267
251
239
249
291
386
488
586
659
713
740
756
756
748
726
705
675
647
609
566
522
473
429
388
356
332
303
279
263
243
224
206
192
178
166
171
217
299
416
527
619
678
718
736
741
730
712
689
659
623
580
536
493
446
403
372
346
330
315
309
298
291
285
273
267
264
281
319
411
524
643
734
802
841
861
864
857
835
811
784
752
717
675
632
589
546
507
467
433
404
378
360
340
321
303
289
275
263
273
325
412
524
627
708
766
801
813
814
803
784
762
734
704
670
629
586
539
493
449
416
387
364
348
334
319
307
291
279
267
253
259
310
391
493
592
670
724
759
770
768
756
737
716
687
655
619
576
532
489
442
402
360
328
301
275
253
232
210
190
174
154
139
139
162
245
350
461
561
633
675
702
713
716
698
677
651
619
581
538
495
449
404
372
345
323
313
302
295
290
282
275
265
260
259
301
382
497
623
728
805
855
876
881
879
863
841
813
780
748
705
662
619
576
535
493
459
430
408
388
369
352
330
309
287
277
283
311
404
512
619
708
770
805
821
823
817
799
775
748
720
687
651
611
562
514
471
430
392
372
353
336
325
311
299
283
267
255
257
295
368
475
577
659
720
750
764
771
760
744
721
694
663
625
585
542
499
453
408
375
342
311
289
264
247
226
210
190
172
156
142
168
233
328
438
540
615
665
694
708
710
700
679
655
623
586
543
497
453
412
383
352
336
322
311
302
294
287
282
276
271
269
302
368
479
597
700
786
837
865
873
873
861
839
811
780
747
706
663
620
574
530
487
449
416
395
374
356
336
317
295
279
268
259
297
372
473
586
683
748
790
809
813
809
790
768
746
716
683
644
601
558
515
469
425
396
369
352
337
323
311
301
287
271
260
260
287
362
462
562
655
714
752
771
779
772
755
733
708
675
640
598
555
512
465
418
380
344
317
293
271
252
239
218
202
186
166
162
178
230
322
435
534
615
669
700
710
713
700
678
657
627
588
544
501
458
418
380
357
333
319
309
298
291
286
281
275
268
265
283
344
438
554
669
752
813
847
860
861
848
826
805
772
737
700
657
613
570
527
489
453
421
394
372
352
333
311
297
283
267
264
289
356
461
577
671
741
787
813
818
815
801
779
755
728
695
661
619
576
530
477
439
407
380
360
344
332
317
303
291
275
264
255
283
348
445
548
637
708
748
770
780
774
758
736
709
679
647
608
565
522
475
431
392
356
326
299
279
263
243
226
210
190
178
167
174
222
311
421
524
608
667
698
714
720
706
685
663
631
596
554
511
468
416
388
361
340
321
310
303
298
293
287
276
271
267
285
333
421
538
651
744
805
845
869
868
855
833
810
780
748
713
670
627
584
540
501
465
433
404
379
360
340
322
303
287
275
267
283
344
446
558
657
732
780
810
821
821
803
782
760
733
704
671
632
589
546
503
459
421
390
365
352
337
323
307
291
277
263
256
269
319
403
508
602
674
722
756
762
762
752
730
704
675
643
605
562
519
476
433
395
360
332
302
281
259
241
222
206
194
178
166
172
208
291
400
508
598
661
698
720
718
710
691
669
641
607
564
520
477
430
392
364
342
323
311
302
297
291
281
272
267
263
273
319
406
524
643
736
803
849
861
867
857
840
815
788
756
718
675
632
589
546
503
462
429
399
378
356
338
319
303
291
277
267
277
329
425
536
639
724
776
806
821
818
805
784
763
738
708
675
640
598
555
512
469
429
394
368
346
328
315
303
290
275
260
252
267
317
408
518
616
689
748
770
780
780
767
746
720
691
659
623
580
536
489
447
407
372
342
321
299
282
263
243
230
214
198
184
179
210
279
379
485
566
631
671
690
695
691
674
653
623
590
552
509
467
423
384
349
322
303
289
277
271
264
256
251
245
243
247
276
352
461
580
687
776
818
845
857
853
834
813
784
752
720
677
633
586
543
500
465
430
403
380
358
342
328
315
302
287
273
276
328
412
526
635
716
778
813
827
833
825
807
786
760
728
693
651
608
565
518
476
438
408
383
361
344
332
318
307
295
279
271
281
326
412
520
623
712
758
787
801
798
784
764
738
712
679
641
601
558
514
468
421
375
337
307
282
263
243
226
208
190
174
155
150
175
240
340
447
539
615
655
682
691
693
679
659
635
600
562
523
477
429
387
349
323
302
283
271
264
256
251
245
240
235
230
255
315
419
540
659
734
794
825
839
839
825
803
779
752
714
677
635
592
548
509
469
437
408
387
370
356
349
336
319
309
295
295
333
414
522
629
718
784
823
845
853
843
829
809
787
760
728
694
654
611
568
524
485
449
419
396
370
349
332
315
299
283
267
272
307
390
495
607
686
748
788
806
809
805
791
770
744
716
683
647
604
561
514
462
422
388
362
341
319
299
281
263
243
224
206
197
218
271
365
465
558
625
677
704
720
720
708
686
665
635
600
556
514
469
421
380
345
321
299
283
272
263
253
245
235
224
213
218
259
340
453
565
662
732
775
799
805
802
786
764
736
704
663
620
577
530
488
450
425
404
388
372
360
346
332
315
299
287
282
309
376
487
600
700
766
814
841
853
851
837
815
794
764
736
701
659
616
570
526
483
445
412
386
361
344
328
314
299
281
267
263
295
368
473
578
667
736
779
803
809
810
797
776
752
722
695
658
617
578
535
492
449
411
379
356
336
317
299
277
256
235
217
204
210
267
350
453
547
625
679
712
728
732
720
701
679
651
616
574
531
485
441
394
356
328
302
286
271
260
249
239
225
217
206
200
226
287
396
509
615
693
747
772
784
782
772
751
726
695
657
613
570
527
487
449
419
400
384
378
364
348
332
315
303
289
281
295
358
455
574
677
755
809
840
851
853
841
822
801
774
744
708
669
625
582
539
496
453
421
394
368
346
325
307
293
279
263
255
276
332
441
551
651
725
776
801
813
810
801
779
758
732
700
665
627
584
540
497
454
419
388
368
352
336
319
301
283
261
243
226
235
277
356
461
558
635
691
724
740
747
736
720
697
670
639
600
556
514
465
419
380
352
325
307
291
272
255
235
218
198
182
171
178
236
325
433
544
633
691
729
746
748
744
725
704
675
640
598
555
509
465
433
403
376
360
346
340
329
315
307
295
282
271
279
328
416
543
657
748
817
849
869
876
865
849
826
799
768
734
694
651
604
558
514
476
443
412
390
365
348
326
307
291
275
264
271
330
422
530
631
712
764
793
806
809
797
778
756
733
706
671
633
593
550
503
459
421
394
369
352
337
323
311
295
279
267
260
271
315
406
511
607
683
732
760
770
772
760
742
721
695
662
624
582
539
493
449
406
368
336
309
285
263
243
226
206
189
170
150
152
184
255
362
473
562
629
670
695
704
698
683
662
635
598
560
516
473
426
386
352
330
314
299
290
282
275
268
260
255
249
257
287
369
485
602
706
779
829
853
864
857
844
822
797
767
729
687
644
601
558
516
481
449
422
398
376
356
337
315
299
283
267
275
315
396
509
620
704
767
802
817
821
815
797
774
750
720
683
648
607
564
518
469
431
396
368
348
332
319
307
291
275
259
248
247
297
380
485
596
679
740
774
787
793
780
762
740
712
679
643
600
556
514
465
422
384
353
329
303
283
267
251
235
218
198
186
178
194
252
346
449
542
615
663
689
700
700
686
665
639
607
569
526
483
439
392
354
322
299
281
269
263
257
252
247
240
235
230
253
310
408
526
636
728
788
826
845
844
833
813
790
760
728
689
645
602
555
515
477
441
411
384
365
354
344
329
315
299
289
289
319
392
497
607
698
766
813
833
841
837
819
798
776
750
720
683
640
597
550
507
463
429
398
370
348
333
319
307
291
277
263
261
289
360
465
576
667
733
776
801
801
795
780
759
734
708
674
636
594
548
500
457
416
384
356
332
315
295
277
259
243
226
210
198
209
257
344
443
540
619
670
700
716
713
702
683
657
627
594
551
508
461
419
379
344
318
297
283
269
264
255
248
240
235
225
225
263
340
453
570
669
738
793
809
817
813
791
767
740
706
666
623
574
528
485
445
418
392
374
360
348
333
319
303
293
279
267
287
344
445
558
663
744
795
825
841
839
825
805
782
755
724
690
649
607
562
516
477
437
404
380
360
344
332
315
302
287
272
267
287
344
443
554
653
725
780
802
813
809
797
778
756
728
695
663
620
580
538
491
447
408
375
350
328
311
295
275
259
240
222
209
212
255
329
431
534
609
669
704
722
728
635
514
514
514
514
514
514
514
514
514
514
514
514
514
514
514
514
514
514
514
514
514
514
514
514
514
514
514
514
514
514
514
514
514
514
514
514
514
514
514
514
514
514
514
514
514
514
514
514
514
514
514
514
514
514
514
514
514
514
514
514
514
514
514
514
514
514
514
514
514
514
514
514
514
514
514
514
514
514
514
514
514
514
514
514
514
514
514
514
514
514
514
514
514
514
514
514
514
514
514
514
514
514
514
514
514
514
514
514
514
514
514
514
514
514
514
514
514
514
514
514
514
514
514
514
514
514
514
514
514
514
514
514
514
514
514
514
514
514
514
514
514
514
514
465
239
168
162
155
166
210
294
404
522
607
674
716
742
754
756
748
729
708
683
651
619
581
546
518
488
467
449
438
427
416
411
406
400
391
386
396
439
528
643
762
859
934
974
1001
1011
1009
1001
987
965
944
914
886
851
813
770
724
687
651
619
594
569
550
530
508
487
465
449
451
485
568
673
780
853
907
938
948
945
926
903
876
845
807
767
724
679
631
582
540
503
469
438
411
388
366
345
323
302
277
259
249
273
340
443
543
631
691
734
756
767
762
744
722
695
663
628
585
542
497
446
408
378
350
323
298
279
263
247
230
214
200
189
190
224
299
404
516
613
683
726
751
756
754
737
716
683
651
615
572
528
481
438
408
384
368
354
340
334
326
315
299
283
275
272
307
380
497
616
720
791
840
861
872
867
849
826
797
764
732
694
651
607
561
522
484
449
421
394
372
356
336
317
299
285
273
275
315
396
505
611
697
760
798
817
821
813
794
772
744
714
683
645
605
562
519
479
437
404
378
356
345
334
319
307
291
279
265
268
295
374
468
566
647
706
744
764
764
756
738
717
687
659
624
582
539
493
481
410
369
332
303
276
259
239
222
206
188
174
158
150
171
226
336
446
546
620
671
695
708
702
687
666
641
611
572
528
485
438
398
364
338
319
303
297
289
283
281
269
263
259
261
287
366
475
598
702
786
841
871
879
873
856
834
805
776
741
700
657
611
566
519
479
441
408
382
360
338
317
295
276
263
251
249
282
348
462
576
667
736
782
801
809
803
784
763
738
708
675
637
598
555
512
469
429
399
368
352
336
319
309
295
283
268
260
259
295
368
469
574
666
728
774
793
797
788
770
744
717
687
651
608
565
518
469
423
380
348
321
299
279
260
243
228
214
194
179
174
182
240
326
429
530
608
659
687
701
704
687
669
643
611
576
534
487
443
400
362
330
303
291
277
271
265
260
255
249
244
243
259
318
408
531
644
732
798
833
849
852
841
821
794
764
732
693
649
607
560
514
469
435
403
376
354
338
328
313
299
287
272
267
279
353
455
570
671
750
797
823
831
829
811
790
768
736
704
667
628
585
542
499
458
416
388
361
340
325
311
299
287
271
255
252
279
340
447
555
651
726
767
793
801
795
780
758
733
708
674
636
598
555
512
469
427
395
368
348
329
311
293
279
259
241
222
206
222
271
352
457
556
631
683
713
732
733
720
700
677
647
611
572
528
485
438
398
360
337
313
295
281
269
259
247
230
214
202
197
210
276
376
493
602
681
736
766
779
780
767
746
720
686
648
607
564
518
473
435
406
384
369
358
348
337
323
311
295
282
271
293
354
453
578
691
772
830
863
877
879
865
845
818
791
756
718
678
635
592
548
509
476
441
412
391
369
348
330
309
287
275
267
279
349
446
554
657
726
776
801
811
805
791
770
748
720
687
655
616
573
530
487
446
408
386
361
344
329
318
303
287
271
251
241
249
295
380
483
578
653
701
736
747
750
740
718
694
663
631
596
554
511
465
416
383
350
323
302
281
267
249
230
214
198
184
170
182
228
315
425
532
619
679
717
740
738
730
712
687
655
623
580
536
493
445
407
380
358
340
328
318
310
299
293
282
271
267
277
328
423
550
663
758
819
861
876
879
869
848
823
793
756
721
679
636
590
542
500
462
429
402
375
356
334
315
303
287
273
263
286
345
445
560
659
732
782
809
821
815
805
784
762
732
704
669
628
586
543
500
461
421
388
364
345
332
319
305
291
275
264
259
275
330
427
530
621
691
740
762
772
768
755
733
712
679
647
611
568
524
477
455
391
356
325
295
271
253
235
218
202
189
174
164
170
214
298
406
514
596
655
700
710
716
708
686
659
631
596
552
509
461
415
376
345
321
307
293
282
279
273
268
259
253
251
263
311
400
522
637
734
805
841
860
865
853
834
813
780
748
712
669
625
578
535
492
453
422
395
372
350
332
319
303
290
279
272
286
348
445
558
663
740
791
825
830
827
817
795
771
744
712
677
639
596
552
505
463
426
392
364
348
332
317
303
287
275
261
255
276
338
437
544
641
716
763
787
797
790
774
752
725
695
663
624
581
534
491
445
400
368
336
311
290
271
255
239
222
206
192
180
182
217
298
400
496
577
639
666
682
687
674
653
627
598
564
522
477
431
384
341
301
271
241
220
198
182
166
150
137
119
101
87
87
109
160
241
336
426
501
562
605
643
667
679
679
667
644
612
570
532
492
453
421
386
368
353
342
332
321
313
307
298
298
332
404
523
651
767
856
922
953
972
983
974
958
942
918
886
853
810
767
728
685
641
607
572
544
522
500
479
457
441
422
408
410
442
522
625
725
809
860
887
902
895
881
861
830
803
772
733
690
647
605
565
522
480
442
412
383
361
340
318
299
283
264
253
259
301
390
501
607
693
760
786
799
805
793
774
752
725
695
663
625
585
538
491
450
416
383
358
336
319
306
291
279
263
247
235
240
291
380
491
598
674
730
764
774
776
764
747
722
695
667
632
594
552
512
477
445
410
384
358
340
328
311
298
283
267
248
239
239
282
364
463
561
647
695
730
744
744
738
720
697
670
639
601
561
518
473
427
392
357
333
311
290
271
251
239
220
202
183
172
182
225
311
425
536
625
687
722
744
752
741
725
704
671
636
598
554
508
465
425
392
368
352
338
328
321
313
303
293
279
271
279
336
433
554
670
772
826
864
881
881
873
853
830
801
768
730
690
647
602
556
514
473
441
412
387
368
348
330
309
291
277
269
291
356
455
570
666
738
788
809
817
813
797
778
756
729
700
663
624
581
538
493
447
412
379
357
336
319
306
295
283
267
255
252
279
352
451
556
655
713
754
772
776
771
752
730
706
679
641
604
562
519
476
433
392
357
328
302
281
259
243
224
206
186
170
166
184
241
336
445
542
619
669
698
708
705
691
671
648
619
582
543
500
461
421
388
360
338
319
299
283
269
259
253
248
243
244
271
336
439
558
675
750
806
837
851
848
833
811
787
756
722
682
639
596
552
509
473
438
408
383
358
336
325
311
295
283
267
271
314
398
509
617
706
772
806
822
829
821
802
780
758
728
695
662
621
578
556
492
453
416
384
360
338
322
311
295
279
267
256
269
323
416
530
643
716
770
801
814
811
801
779
755
728
694
659
619
576
532
485
438
398
364
338
314
291
275
256
235
214
196
182
175
208
275
379
479
570
631
671
691
698
693
675
654
627
594
555
512
469
425
376
344
313
289
267
255
244
235
225
217
210
202
205
235
307
415
538
643
724
780
807
818
817
799
778
752
718
681
639
596
552
505
462
435
408
387
368
352
340
326
311
297
283
275
290
346
441
556
665
748
799
831
845
844
833
813
791
767
736
702
662
619
576
527
481
443
408
380
353
334
323
307
291
275
261
256
279
345
445
562
653
725
772
795
806
805
791
770
748
716
686
655
613
573
530
483
442
408
383
361
340
328
309
291
275
256
239
228
247
295
390
489
586
653
701
728
740
740
728
706
685
655
623
585
542
497
451
412
376
346
323
302
281
263
243
226
210
192
178
174
198
268
372
489
592
671
720
752
760
758
744
724
695
663
627
584
540
493
457
416
380
358
342
328
321
310
303
297
286
275
271
303
376
492
611
716
786
834
861
872
867
849
827
803
772
740
702
659
616
573
562
492
457
425
396
372
352
332
313
295
281
269
271
315
396
509
615
701
760
798
817
821
813
794
772
748
718
687
654
613
570
527
484
445
412
383
360
348
334
319
303
287
275
263
268
303
384
487
586
659
716
748
764
767
760
738
717
691
663
628
586
543
500
457
414
374
340
311
285
267
247
228
210
192
178
162
162
200
275
388
499
590
655
701
720
728
722
704
679
649
619
576
532
489
442
399
364
338
319
303
297
286
279
269
261
255
247
260
303
403
522
643
740
810
849
873
873
865
844
822
793
764
726
683
640
594
550
503
462
429
400
374
352
332
318
303
289
275
267
285
344
441
558
661
740
788
818
829
830
814
793
770
742
716
682
641
598
550
501
457
419
387
364
348
332
315
299
283
271
256
253
271
340
437
550
647
720
764
790
795
788
775
754
728
700
667
627
584
540
493
446
406
372
344
317
295
275
256
239
222
206
190
180
189
222
315
418
518
597
654
683
701
704
695
674
653
627
589
548
505
462
422
380
348
318
295
283
269
263
261
253
251
245
243
251
302
388
501
612
706
768
813
829
833
825
806
784
758
728
691
648
605
562
515
472
429
396
369
352
336
322
307
293
279
267
259
286
348
467
585
691
770
821
845
857
852
837
815
791
760
728
693
651
608
565
522
483
445
408
382
357
336
315
299
287
269
253
251
282
352
457
572
666
728
774
793
797
793
774
752
729
700
667
632
589
550
507
463
429
400
374
352
336
317
299
283
267
247
230
222
235
302
394
497
589
662
704
732
746
744
728
709
683
651
616
578
535
489
445
406
370
340
319
301
283
263
244
230
213
194
178
175
205
275
384
500
598
675
721
748
756
751
736
713
683
651
612
569
526
483
442
408
382
360
344
334
326
315
306
298
283
268
268
295
390
505
627
732
810
853
880
888
881
864
843
817
784
750
712
669
623
578
531
491
453
425
398
376
354
333
315
299
283
271
275
318
400
512
620
704
768
801
817
819
809
788
767
742
716
682
644
602
560
516
473
431
396
368
348
332
315
301
290
275
259
248
251
309
398
505
608
691
744
772
786
788
772
754
732
704
671
635
596
552
509
462
422
380
352
322
295
275
256
239
221
202
182
170
167
190
269
372
481
576
640
683
706
712
704
686
665
635
601
564
522
475
431
388
356
329
311
291
277
271
261
256
247
241
236
235
265
330
433
556
665
740
793
819
833
830
814
793
766
736
700
657
613
570
527
487
445
412
386
368
353
340
328
313
299
283
272
283
328
427
540
647
737
791
825
839
841
833
815
794
768
740
705
667
628
585
538
491
453
416
386
361
344
325
314
299
283
269
255
271
328
421
536
641
716
768
795
809
806
795
776
754
726
695
659
624
582
543
500
457
419
390
368
348
332
319
303
287
267
249
236
235
283
361
461
562
640
695
729
742
748
736
717
695
671
636
598
555
512
469
425
384
352
326
305
283
264
251
230
213
194
174
168
176
226
318
434
538
628
690
728
744
750
740
718
694
663
625
585
542
505
465
416
390
365
348
333
322
315
305
297
287
271
263
271
333
433
558
678
767
829
867
883
886
873
855
829
801
768
736
693
647
602
560
519
481
445
415
388
368
349
328
306
287
271
267
286
344
445
564
663
737
783
809
818
818
805
783
762
732
700
667
631
598
555
493
451
416
384
362
341
328
313
299
283
267
253
243
271
336
437
550
644
716
760
782
793
784
766
744
720
687
655
616
573
530
481
435
396
360
328
299
277
259
243
225
206
186
170
156
162
205
289
396
499
580
643
674
690
695
682
661
635
602
568
526
481
433
384
350
321
295
276
265
259
253
248
247
240
232
226
243
286
372
491
607
704
770
813
841
841
835
817
795
768
736
701
661
619
573
524
485
445
412
388
369
356
340
325
311
295
283
275
295
360
465
582
693
768
825
851
861
865
848
826
805
774
744
712
669
625
582
534
488
449
416
384
360
334
315
303
286
269
255
249
271
340
442
558
659
733
776
809
810
807
793
771
747
720
691
657
615
570
522
477
439
402
372
342
321
299
282
263
243
222
204
190
197
237
323
431
531
619
671
706
724
724
718
700
677
647
615
572
528
481
439
404
372
341
317
303
289
277
267
256
243
226
216
210
235
297
402
518
621
700
756
778
788
788
775
754
728
698
661
619
574
528
489
458
434
408
384
368
352
337
323
307
295
282
271
289
350
457
580
687
772
825
855
869
867
853
833
806
779
748
714
677
635
590
544
501
459
422
392
366
345
323
311
298
283
268
263
283
346
454
570
673
746
801
821
829
821
807
786
764
736
704
667
628
585
538
493
447
412
379
357
340
323
310
295
283
267
255
249
265
332
429
536
631
698
741
768
774
771
756
733
706
679
645
605
562
518
472
429
391
353
323
298
276
255
237
218
202
186
167
158
168
220
311
422
530
619
666
698
712
712
704
683
657
627
590
551
508
461
419
384
356
333
319
307
297
289
279
272
264
259
256
269
332
431
552
671
760
819
853
868
871
857
835
811
784
751
713
671
628
585
538
496
458
429
399
378
356
334
318
307
291
275
267
291
364
469
582
682
764
801
825
837
829
813
793
770
742
712
674
633
590
547
504
461
421
388
360
340
323
307
295
279
263
249
244
275
342
450
562
657
724
768
787
793
788
771
750
728
700
667
631
592
548
505
463
426
392
361
334
311
294
275
259
239
220
202
188
198
243
330
435
538
608
665
695
713
713
704
682
661
631
597
556
514
471
427
380
341
314
291
271
257
247
236
225
218
209
201
202
235
313
425
544
649
732
776
803
813
806
790
768
740
705
667
623
577
534
492
451
425
404
388
368
352
338
328
311
298
287
277
299
364
472
590
704
772
823
849
859
856
845
823
799
772
740
705
663
620
598
534
492
454
421
394
366
344
328
311
295
281
267
263
285
354
457
572
669
744
784
811
821
814
801
780
759
732
700
667
629
590
547
501
461
425
395
372
354
338
323
307
289
271
252
239
251
306
395
501
592
667
716
740
754
752
738
717
695
663
631
598
555
512
469
429
396
368
341
317
295
275
259
243
222
204
190
179
201
259
360
471
574
647
701
728
744
744
732
710
683
651
616
573
530
487
443
412
383
364
348
336
325
319
310
302
287
273
268
291
364
475
602
708
788
841
868
879
877
860
839
817
784
752
716
673
629
586
539
499
461
430
403
376
358
337
319
307
291
279
275
307
376
487
597
695
756
797
817
823
818
801
779
758
732
704
669
627
585
544
501
462
425
392
365
346
332
315
302
287
272
259
255
293
368
473
578
665
732
770
788
793
784
766
744
720
690
659
620
577
534
487
443
400
360
330
303
282
260
243
222
204
186
170
156
162
220
309
416
519
597
651
686
700
704
690
669
643
615
577
534
489
441
396
360
330
307
282
265
255
245
240
235
225
217
214
224
272
360
480
596
691
760
803
821
827
819
801
776
747
716
673
629
586
544
507
473
437
407
384
372
358
344
329
315
303
289
283
299
379
484
598
701
776
821
847
852
845
831
810
784
758
728
695
657
613
570
523
480
441
408
379
352
332
318
303
289
275
259
253
286
348
461
572
663
732
775
793
803
795
780
759
734
708
675
640
602
560
514
469
433
403
376
356
340
323
307
291
279
261
245
235
255
314
404
509
601
667
714
738
744
746
729
708
685
655
623
584
540
497
450
410
372
344
317
295
275
256
239
218
202
182
164
154
162
235
332
445
547
631
683
713
729
728
712
693
667
635
597
554
511
465
421
388
361
340
328
314
307
302
294
287
276
268
267
306
379
489
616
726
805
860
887
894
891
875
853
830
801
768
730
690
647
600
556
514
480
447
421
400
382
360
340
321
299
285
285
307
396
504
615
705
772
809
826
831
825
807
786
760
733
704
667
628
582
538
491
447
408
382
360
344
328
311
299
283
267
255
253
291
368
477
588
671
736
768
784
791
780
760
737
710
679
645
605
562
519
476
433
388
350
319
297
272
251
232
218
198
180
164
150
174
230
323
430
532
607
655
682
695
693
682
663
636
607
570
527
481
433
391
356
323
303
287
275
264
253
247
241
236
230
226
245
295
404
523
635
726
783
817
829
829
821
798
771
744
710
670
627
582
534
489
442
407
380
360
344
332
317
306
291
275
264
255
297
375
485
608
710
776
823
845
849
847
833
813
790
760
728
691
654
611
568
522
477
445
412
384
364
348
336
325
311
295
285
287
315
400
505
611
704
763
801
815
821
813
795
774
752
724
691
655
612
569
522
473
430
392
360
333
307
287
271
251
229
210
190
184
198
255
350
458
550
620
666
695
705
705
691
670
645
615
577
536
493
450
404
356
323
297
271
252
239
230
220
209
198
188
182
182
222
303
416
534
631
704
748
772
784
778
762
740
716
681
643
600
556
514
465
427
400
380
366
356
346
338
328
311
295
279
282
314
392
504
628
724
798
844
869
875
872
857
835
811
780
748
716
675
643
597
538
496
461
433
406
382
364
346
328
315
303
293
291
333
416
526
636
720
784
822
839
845
839
822
801
776
744
712
677
633
623
544
496
453
416
384
356
330
311
299
285
271
255
245
253
295
378
488
590
670
721
756
767
770
760
738
717
687
655
620
578
535
489
441
403
362
328
297
269
247
225
206
186
168
150
133
132
156
226
332
445
542
612
655
683
689
686
667
645
619
586
543
500
457
421
378
328
305
281
267
253
245
239
233
228
222
217
220
255
330
446
574
691
775
833
859
869
869
852
830
801
768
736
695
653
607
562
542
480
445
418
391
368
350
332
319
303
290
279
286
329
416
530
640
732
791
826
849
848
840
821
799
775
748
716
681
639
596
552
509
468
433
404
375
353
332
317
303
287
275
264
271
314
400
509
616
697
756
787
801
805
793
774
752
725
698
667
629
592
550
530
468
429
398
370
348
332
315
295
277
256
239
220
214
247
317
419
526
609
674
720
732
740
732
714
690
663
633
593
550
505
459
412
391
332
303
281
267
255
240
226
206
190
174
162
164
200
283
394
507
607
674
717
740
744
738
720
697
670
639
596
552
505
462
419
380
358
337
323
313
305
295
285
276
267
259
264
307
390
511
631
729
799
845
861
867
857
840
815
788
760
725
683
640
597
554
512
472
437
402
375
352
330
311
291
279
263
251
261
310
404
519
632
724
778
815
837
839
835
821
799
775
748
714
677
635
590
544
497
455
418
392
372
356
340
323
310
295
281
269
275
321
410
518
617
695
756
778
788
788
776
758
732
704
669
627
584
538
489
435
382
332
283
251
226
205
186
166
143
116
89
71
71
121
209
333
457
554
627
671
691
700
695
678
654
623
589
548
505
462
419
380
342
321
307
298
293
291
286
283
283
282
279
295
341
433
546
658
750
821
857
881
894
892
884
869
848
823
797
759
721
683
645
608
574
544
523
501
485
469
453
437
418
400
390
400
461
547
644
728
782
819
841
847
849
841
826
813
793
771
747
712
674
636
598
562
527
497
468
449
429
411
390
368
346
325
315
329
388
481
578
662
724
751
770
776
768
752
732
710
686
659
621
581
538
489
443
392
336
290
247
209
176
150
123
99
73
51
30
24
47
120
222
342
447
530
574
601
611
604
590
570
546
511
473
429
380
332
287
239
206
176
158
137
121
108
97
86
75
69
65
89
158
271
400
530
615
682
724
741
744
736
714
693
667
633
596
554
512
472
437
403
382
360
345
334
319
307
291
275
260
247
247
283
364
481
594
689
760
799
821
829
817
798
776
748
716
679
640
597
554
532
465
425
390
362
340
322
306
295
279
265
255
243
248
291
379
489
611
695
763
801
818
821
813
791
767
744
712
679
639
596
574
501
450
407
372
341
314
291
271
252
235
214
196
182
170
186
239
338
446
546
619
673
704
720
717
704
682
655
623
588
544
501
457
433
376
345
321
299
283
272
263
257
249
243
233
228
235
279
362
481
593
690
760
799
821
825
815
794
772
744
712
671
628
585
542
499
455
425
399
378
356
344
330
315
299
283
271
267
299
368
485
607
712
782
830
853
865
863
849
827
803
772
740
705
663
620
577
534
487
449
416
388
361
336
315
302
287
271
255
251
285
360
469
581
678
748
791
815
821
814
798
776
752
722
691
654
613
570
523
480
437
404
375
348
328
309
291
271
252
230
213
200
206
265
357
461
560
635
687
718
729
732
720
701
671
644
612
570
527
481
437
404
366
323
298
282
267
255
241
230
214
198
182
175
202
259
372
488
594
673
726
756
768
766
752
730
706
675
636
593
550
503
459
425
399
378
356
345
334
328
315
299
287
272
267
283
368
481
611
718
799
853
884
895
890
876
855
825
797
764
728
685
639
594
547
507
469
437
407
384
362
341
323
305
291
279
273
306
376
489
600
691
760
803
817
825
819
801
779
755
728
694
659
619
577
539
497
458
421
384
357
333
315
303
287
275
263
249
247
285
360
465
570
659
720
760
776
780
768
750
724
697
667
635
596
552
509
462
419
376
342
310
287
265
244
226
210
194
174
159
154
166
239
336
449
550
628
671
698
709
708
691
670
643
609
569
526
483
437
392
360
330
307
297
286
279
269
264
259
249
244
243
277
353
469
594
705
784
840
864
873
871
855
833
810
780
744
705
662
619
572
528
485
451
419
392
370
349
332
313
299
283
273
276
303
402
515
631
721
788
825
843
845
837
819
798
772
744
712
675
633
593
546
499
458
421
392
362
340
325
311
299
283
267
251
259
302
384
500
608
691
752
784
801
803
793
772
750
720
687
654
613
566
518
469
425
387
354
323
301
276
259
240
224
202
186
172
158
183
243
336
441
538
602
651
675
687
685
669
647
620
590
550
507
463
421
378
340
307
286
267
255
244
233
226
220
212
206
202
224
283
398
522
635
728
787
821
833
833
825
802
775
744
706
666
619
572
526
481
438
406
380
360
344
328
313
299
279
263
252
247
295
382
493
615
712
776
818
834
837
829
810
788
762
732
695
657
613
570
522
473
425
387
357
332
311
293
279
261
243
222
210
216
255
346
465
578
675
734
772
791
797
788
771
750
724
695
661
627
584
543
509
477
447
421
399
380
364
349
336
319
298
279
259
261
294
364
463
572
651
714
752
776
779
771
756
733
704
671
633
593
550
503
457
408
361
323
291
268
244
222
205
186
166
148
135
129
175
259
372
489
581
651
690
709
720
713
697
675
649
612
574
531
485
473
403
374
352
332
318
307
298
290
283
272
264
255
275
332
433
570
700
797
865
906
926
928
918
898
875
848
813
775
734
691
648
605
562
528
493
461
438
414
396
375
356
336
314
303
307
362
454
562
670
746
797
822
835
833
821
802
780
756
724
691
657
613
570
531
488
449
416
387
360
338
319
303
287
271
255
255
273
336
441
556
651
725
774
801
805
799
784
762
732
700
666
625
582
546
495
429
391
356
323
297
272
251
233
214
198
180
164
150
156
197
279
387
489
574
633
666
687
686
675
655
631
598
566
527
484
441
394
356
319
298
276
263
249
244
239
235
232
222
222
233
279
374
500
627
732
805
853
869
875
865
844
822
793
756
718
675
632
586
538
500
465
433
402
378
356
338
319
303
287
273
263
291
353
457
577
679
760
810
837
849
844
833
813
790
763
736
702
665
623
580
536
493
455
421
392
366
348
332
315
302
287
275
267
291
360
465
574
670
740
788
809
817
813
795
774
752
721
694
659
620
580
538
519
459
425
392
360
344
326
307
287
269
248
230
221
229
283
370
479
574
647
698
732
738
738
728
706
679
651
616
573
530
485
461
392
356
323
295
276
263
247
229
210
190
178
159
146
167
232
336
453
558
639
690
717
732
729
