1949,1935,1922,1909,1891,1878,1869,1856,1847,1834,1821,1808,1795,1781,1768,1755,1742,1729,1720,1715,1702,1641,1553,1500,1460,1434,1408,1386,1368,1350,1333,1315,1306,1293,1280,1276,1271,1271,1276,1280,1293,1311,1333,1359,1381,1408,1438,1473,1509,1548,1583,1623,1658,1698,1733,1773,1812,1847,1874,1896,1918,1935,1949,1957,1953,1949,1944,1935,1922,1909,1900,1891,1878,1869,1856,1847,1834,1825,1812,1803,1799,1790,1781,1777,1773,1768,1759,1751,1737,1720,1707,1693,1676,1667,1654,1645,1645,1641,1641,1641,1636,1632,1627,1623,1623,1623,1623,1623,1623,1623,1623,1623,1614,1610,1605,1601,1592,1588,1583,1575,1570,1566,1566,1566,1566,1566,1566,1566,1570,1579,1597,1614,1641,1676,1707,1746,1777,1808,1839,1878,1922,1966,2010,2058,2107,2155,2195,2239,2278,2309,2336,2362,2384,2402,2410,2415,2415,2410,2402,2393,2375,2362,2344,2322,2305,2283,2256,2226,2195,2164,2133,2102,2076,2054,2028,2006,1984,1962,1940,1918,1896,1874,1856,1834,1817,1799,1781,1759,1742,1724,1711,1693,1680,1663,1645,1627,1610,1592,1575,1566,1553,1544,1535,1531,1522,1513,1504,1495,1482,1469,1456,1443,1430,1416,1403,1394,1390,1381,1377,1381,1386,1394,1408,1430,1452,1482,1513,1548,1579,1610,1645,1689,1737,1790,1839,1887,1935,1988,2041,2089,2138,2173,2204,2234,2265,2292,2309,2322,2336,2340,2340,2331,2318,2305,2287,2265,2248,2230,2212,2190,2173,2146,2120,2098,2076,2058,2041,2023,2006,1984,1962,1935,1905,1883,1861,1839,1817,1799,1781,1764,1746,1764,1795,1803,1799,1790,1777,1764,1746,1733,1720,1707,1698,1689,1685,1680,1671,1663,1658,1649,1641,1632,1627,1619,1610,1601,1592,1588,1583,1575,1570,1566,1566,1570,1579,1588,1605,1627,1654,1680,1707,1733,1759,1790,1825,1865,1905,1944,1979,2010,2037,2063,2089,2107,2129,2146,2168,2182,2190,2195,2195,2190,2182,2177,2164,2155,2138,2120,2102,2080,2054,2032,2010,1984,1957,1931,1905,1874,1852,1825,1808,1786,1764,1742,1720,1698,1680,1663,1645,1623,1605,1588,1570,1557,1544,1535,1522,1513,1504,1495,1491,1482,1473,1469,1465,1465,1460,1460,1460,1456,1456,1456,1456,1452,1443,1438,1438,1438,1438,1438,1443,1452,1456,1469,1482,1504,1522,1548,1570,1601,1641,1680,1720,1759,1808,1861,1913,1966,2019,2072,2129,2177,2226,2270,2309,2344,2371,2402,2428,2450,2468,2472,2472,2468,2454,2441,2428,2415,2397,2380,2366,2349,2331,2318,2296,2274,2248,2221,2199,2182,2164,2151,2138,2124,2111,2089,2072,2054,2032,2010,1988,1971,1949,1935,1918,1905,1891,1874,1861,1843,1830,1812,1795,1781,1764,1746,1733,1720,1707,1698,1689,1680,1671,1663,1649,1636,1623,1610,1601,1592,1583,1579,1575,1566,1561,1553,1548,1544,1548,1557,1566,1583,1605,1627,1649,1671,1698,1729,1764,1803,1847,1891,1935,1975,2015,2058,2098,2129,2160,2190,2221,2252,2283,2305,2322,2340,2353,2362,2366,2358,2344,2331,2318,2300,2283,2270,2252,2230,2199,2182,2160,2138,2116,2098,2076,2054,2037,2019,2001,1988,1971,1953,1935,1918,1905,1887,1874,1865,1847,1834,1821,1803,1790,1777,1759,1746,1729,1715,1707,1702,1693,1689,1680,1676,1667,1658,1654,1645,1636,1627,1614,1601,1592,1583,1575,1570,1561,1553,1553,1553,1557,1561,1570,1588,1605,1623,1645,1667,1698,1724,1755,1781,1817,1852,1891,1931,1966,2006,2041,2063,2085,2111,2138,2155,2168,2173,2177,2177,2173,2168,2164,2155,2146,2138,2124,2111,2094,2080,2058,2041,2019,1997,1971,1944,1918,1891,1874,1852,1825,1795,1768,1737,1715,1698,1680,1658,1641,1623,1610,1601,1588,1579,1566,1553,1539,1526,1509,1495,1482,1473,1469,1465,1469,1469,1469,1469,1469,1469,1469,1469,1469,1469,1469,1469,1469,1469,1469,1469,1469,1469,1473,1482,1491,1509,1531,1557,1588,1623,1654,1689,1729,1773,1817,1861,1909,1962,2015,2063,2107,2146,2182,2212,2243,2278,2314,2344,2371,2393,2402,2402,2402,2397,2393,2380,2366,2353,2340,2322,2305,2287,2265,2248,2226,2208,2186,2168,2151,2138,2120,2107,2089,2076,2058,2041,2023,2006,1984,1966,1949,1935,1922,1909,1896,1878,1865,1852,1834,1821,1803,1790,1777,1759,1746,1733,1720,1707,1693,1680,1671,1663,1649,1641,1623,1610,1597,1583,1575,1570,1561,1553,1548,1539,1531,1526,1531,1535,1539,1553,1570,1588,1605,1623,1649,1680,1707,1742,1781,1821,1865,1909,1949,1993,2028,2063,2102,2142,2177,2212,2239,2265,2287,2305,2318,2322,2327,2327,2322,2322,2318,2314,2300,2287,2274,2256,2234,2212,2190,2173,2155,2138,2120,2098,2076,2054,2028,2010,1988,1975,1957,1940,1927,1909,1896,1883,1869,1856,1839,1825,1808,1795,1777,1764,1746,1733,1720,1711,1702,1698,1689,1680,1671,1667,1658,1645,1632,1614,1601,1592,1579,1575,1566,1557,1548,1544,1535,1531,1531,1535,1544,1553,1566,1583,1601,1623,1645,1676,1702,1733,1768,1808,1852,1896,1935,1975,2010,2037,2072,2107,2133,2160,2177,2195,2204,2208,2208,2208,2199,2186,2177,2168,2155,2138,2116,2098,2076,2054,2028,2006,1984,1962,1944,1927,1905,1878,1852,1825,1799,1773,1751,1724,1698,1680,1663,1645,1632,1614,1597,1579,1557,1535,1513,1495,1478,1465,1456,1447,1443,1438,1434,1434,1434,1430,1430,1430,1430,1425,1425,1425,1425,1425,1425,1425,1421,1416,1416,1416,1416,1425,1434,1447,1456,1473,1491,1513,1539,1570,1605,1645,1689,1733,1777,1825,1878,1931,1984,2037,2085,2124,2160,2199,2234,2265,2296,2327,2344,2366,2380,2388,2393,2393,2384,2371,2358,2344,2327,2309,2287,2265,2239,2217,2195,2173,2155,2133,2111,2089,2067,2045,2023,1997,1975,1953,1935,1922,1909,1900,1891,1878,1861,1847,1830,1808,1781,1759,1737,1715,1698,1680,1667,1658,1641,1627,1610,1597,1579,1561,1548,1531,1517,1504,1487,1473,1465,1456,1447,1438,1430,1421,1416,1421,1434,1438,1443,1447,1460,1473,1487,1504,1522,1544,1570,1601,1636,1676,1711,1742,1777,1817,1852,1883,1913,1949,1975,2001,2023,2050,2072,2094,2116,2129,2138,2138,2138,2133,2124,2120,2107,2089,2072,2050,2032,2010,1993,1979,1962,1953,1935,1922,1900,1878,1856,1834,1812,1790,1768,1751,1733,1715,1698,1680,1667,1649,1632,1614,1601,1583,1561,1539,1522,1504,1495,1491,1487,1478,1465,1452,1438,1421,1408,1394,1386,1372,1359,1350,1342,1328,1315,1306,1293,1284,1276,1271,1271,1271,1271,1271,1271,1276,1289,1302,1320,1342,1364,1390,1416,1447,1482,1522,1557,1592,1623,1658,1689,1720,1742,1759,1777,1786,1795,1799,1795,1790,1781,1768,1759,1751,1742,1733,1724,1711,1693,1671,1649,1627,1601,1579,1557,1539,1522,1504,1487,1469,1447,1425,1399,1372,1350,1328,1306,1293,1280,1262,1249,1232,1214,1196,1179,1161,1148,1130,1117,1100,1091,1086,1078,1073,1064,1056,1047,1042,1034,1034,1034,1029,1029,1034,1034,1034,1029,1029,1029,1029,1029,1029,1034,1038,1042,1051,1060,1073,1086,1108,1139,1174,1214,1254,1293,1342,1386,1430,1473,1513,1548,1588,1627,1663,1702,1737,1764,1790,1817,1834,1852,1865,1869,1874,1865,1856,1843,1830,1812,1795,1777,1755,1737,1720,1702,1685,1671,1658,1641,1627,1610,1592,1579,1561,1548,1531,1517,1504,1495,1487,1478,1465,1452,1438,1421,1408,1390,1377,1359,1346,1328,1315,1302,1381,1504,1561,1588,1597,1597,1592,1583,1575,1561,1548,1535,1531,1526,1513,1504,1495,1487,1478,1473,1465,1456,1452,1452,1452,1460,1469,1478,1491,1504,1522,1544,1566,1588,1610,1636,1667,1693,1724,1751,1781,1812,1847,1878,1909,1935,1962,1984,2006,2019,2028,2037,2037,2037,2032,2032,2028,2023,2015,2006,2001,1993,1984,1971,1957,1949,1935,1918,1905,1887,1874,1856,1847,1834,1821,1812,1799,1790,1781,1773,1759,1746,1733,1715,1702,1685,1671,1654,1641,1632,1623,1619,1614,1610,1605,1601,1601,1597,1592,1592,1583,1579,1570,1566,1561,1557,1553,1548,1539,1535,1526,1517,1509,1509,1504,1500,1500,1500,1504,1513,1517,1531,1548,1566,1588,1614,1636,1663,1689,1720,1746,1773,1803,1834,1856,1883,1905,1931,1953,1975,2001,2019,2032,2045,2050,2054,2050,2045,2037,2032,2023,2015,2006,1993,1975,1957,1949,1935,1918,1896,1878,1861,1843,1825,1812,1803,1795,1786,1777,1764,1755,1746,1729,1707,1685,1658,1641,1623,1605,1588,1575,1561,1557,1553,1548,1539,1535,1526,1517,1509,1500,1487,1473,1456,1438,1421,1408,1394,1381,1372,1359,1342,1333,1328,1324,1324,1320,1320,1320,1324,1328,1333,1342,1350,1364,1377,1394,1412,1434,1460,1495,1531,1570,1605,1645,1685,1724,1759,1799,1830,1856,1883,1905,1922,1931,1944,1953,1957,1962,1966,1966,1971,1971,1971,1971,1971,1966,1966,1966,1966,1966,1966,2067,2217,2296,2340,2362,2371,2380,2384,2384,2384,2384,2380,2371,2358,2349,2336,2327,2314,2300,2278,2256,2230,2217,2212,2204,2195,2190,2182,2173,2164,2146,2124,2111,2098,2085,2076,2072,2067,2058,2054,2045,2037,2032,2028,2023,2023,2023,2023,2028,2045,2063,2085,2111,2142,2182,2212,2248,2278,2314,2344,2375,2410,2441,2476,2516,2556,2591,2622,2648,2674,2696,2714,2723,2727,2727,2723,2709,2692,2670,2652,2635,2622,2608,2595,2582,2573,2560,2551,2542,2534,2520,2503,2476,2450,2428,2415,2397,2384,2375,2353,2336,2318,2296,2274,2252,2226,2204,2186,2173,2160,2151,2142,2133,2124,2120,2120,2116,2111,2107,2098,2098,2094,2085,2076,2063,2054,2045,2037,2032,2023,2015,2006,1993,1979,1971,1962,1957,1953,1953,1953,1957,1971,1993,2015,2037,2072,2111,2155,2190,2230,2265,2300,2344,2393,2441,2490,2542,2591,2639,2679,2714,2749,2775,2802,2824,2837,2846,2846,2850,2850,2850,2837,2824,2806,2793,2775,2753,2731,2709,2683,2665,2643,2626,2604,2591,2578,2564,2551,2538,2525,2516,2503,2490,2481,2476,2463,2446,2428,2410,2397,2384,2371,2362,2349,2336,2322,2309,2292,2270,2248,2230,2217,2208,2190,2173,2151,2129,2107,2080,2063,2054,2045,2028,2006,1984,1962,1940,1918,1900,1887,1878,1874,1874,1878,1887,1900,1922,1944,1966,1988,2015,2050,2085,2124,2164,2195,2226,2256,2292,2327,2362,2397,2432,2468,2503,2534,2556,2569,2573,2578,2481,2336,2256,2208,2182,2168,2160,2155,2151,2151,2155,2164,2168,2173,2177,2182,2177,2173,2173,2168,2164,2160,2155,2151,2146,2146,2151,2155,2160,2160,2164,2164,2164,2168,2168,2173,2182,2190,2195,2195,2195,2195,2195,2190,2190,2186,2186,2182,2173,2164,2155,2151,2142,2133,2120,2116,2111,2111,2111,2116,2120,2129,2138,2151,2164,2177,2195,2217,2239,2270,2305,2344,2393,2446,2498,2551,2600,2639,2674,2718,2767,2811,2850,2894,2934,2973,3000,3017,3026,3022,3013,3000,2991,2978,2965,2951,2934,2921,2899,2877,2846,2811,2771,2736,2701,2665,2635,2608,2591,2569,2547,2520,2498,2481,2463,2450,2432,2410,2393,2371,2344,2318,2292,2265,2239,2212,2195,2177,2164,2151,2142,2133,2120,2107,2094,2080,2067,2054,2041,2028,2015,2001,1988,1979,1966,1949,1935,1918,1905,1891,1878,1865,1852,1843,1847,1856,1869,1878,1891,1913,1944,1979,2019,2072,2129,2182,2239,2292,2349,2406,2463,2525,2591,2648,2705,2758,2806,2850,2890,2921,2951,2969,2982,2991,3000,2995,2987,2973,2960,2938,2912,2890,2863,2841,2815,2793,2767,2745,2709,2679,2652,2630,2613,2600,2582,2564,2547,2529,2507,2490,2463,2437,2415,2393,2371,2344,2318,2292,2265,2239,2212,2195,2182,2177,2173,2173,2173,2168,2160,2146,2133,2120,2107,2094,2080,2072,2063,2050,2032,2015,1988,1966,1940,1913,1887,1869,1852,1843,1839,1847,1856,1865,1878,1900,1931,1966,1887,1755,1715,1729,1755,1790,1825,1869,1918,1962,2001,2032,2063,2085,2102,2120,2129,2124,2120,2120,2116,2111,2094,2072,2050,2023,2001,1975,1949,1927,1900,1883,1869,1856,1843,1830,1808,1786,1768,1751,1737,1729,1729,1724,1720,1720,1715,1711,1702,1689,1680,1676,1676,1676,1680,1685,1685,1685,1689,1698,1707,1715,1720,1724,1724,1724,1720,1720,1720,1724,1724,1724,1720,1720,1720,1724,1724,1729,1733,1733,1742,1755,1773,1790,1812,1839,1874,1918,1966,2015,2063,2107,2146,2186,2239,2287,2336,2380,2415,2454,2494,2529,2564,2600,2630,2657,2683,2705,2714,2718,2718,2705,2687,2674,2661,2648,2635,2617,2595,2569,2542,2512,2481,2454,2428,2406,2380,2353,2327,2296,2261,2234,2208,2186,2155,2129,2107,2085,2063,2037,2015,1988,1966,1949,1931,1909,1887,1865,1843,1825,1812,1799,1786,1773,1764,1751,1742,1733,1729,1724,1715,1702,1693,1685,1671,1654,1641,1623,1605,1592,1579,1570,1566,1575,1583,1592,1605,1619,1632,1658,1685,1711,1742,1786,1834,1891,1957,2028,2085,2133,2190,2252,2314,2375,2437,2490,2538,2582,2613,2643,2665,2683,2687,2687,2683,2679,2670,2652,2635,2622,2604,2582,2556,2534,2520,2503,2485,2468,2441,2410,2384,2358,2336,2318,2300,2283,2265,2243,2226,2199,2173,2146,2120,2102,2085,2067,2054,2037,2019,1997,1979,1962,1944,1927,1909,1896,1878,1856,1839,1817,1799,1781,1759,1737,1724,1715,1658,1579,1535,1513,1504,1500,1500,1500,1504,1504,1509,1513,1526,1535,1539,1544,1561,1583,1619,1658,1702,1751,1799,1847,1887,1913,1940,1971,2001,2037,2076,2111,2146,2182,2221,2252,2274,2287,2292,2287,2278,2265,2256,2243,2230,2221,2204,2182,2151,2120,2085,2050,2019,1984,1953,1922,1896,1865,1830,1795,1764,1733,1702,1676,1654,1636,1614,1588,1570,1553,1539,1526,1513,1500,1487,1482,1478,1478,1482,1482,1487,1491,1500,1500,1504,1504,1500,1495,1495,1495,1500,1504,1504,1504,1504,1504,1509,1517,1526,1535,1539,1544,1553,1570,1583,1605,1632,1667,1707,1751,1799,1852,1909,1966,2028,2085,2138,2190,2248,2309,2366,2432,2494,2551,2604,2648,2692,2727,2749,2758,2762,2762,2753,2745,2731,2714,2692,2665,2643,2626,2608,2591,2569,2542,2520,2494,2472,2446,2415,2388,2362,2336,2309,2287,2274,2256,2234,2217,2195,2168,2142,2116,2094,2063,2032,1997,1966,1935,1909,1887,1869,1843,1821,1799,1786,1773,1764,1751,1742,1729,1715,1698,1685,1667,1645,1627,1610,1592,1579,1561,1548,1535,1522,1513,1504,1500,1504,1509,1513,1526,1539,1557,1579,1605,1636,1676,1720,1764,1808,1843,1887,1940,1993,2050,2111,2173,2230,2283,2336,2384,2428,2459,2485,2516,2542,2569,2586,2595,2600,2604,2604,2604,2595,2586,2569,2551,2529,2507,2481,2459,2432,2410,2384,2358,2331,2305,2283,2261,2243,2217,2195,2168,2142,2111,2085,2058,1993,1909,1856,1817,1795,1781,1768,1755,1742,1733,1724,1715,1711,1702,1689,1676,1658,1641,1627,1610,1592,1570,1548,1531,1509,1495,1482,1465,1456,1447,1443,1447,1447,1447,1447,1447,1447,1447,1456,1473,1491,1509,1535,1570,1601,1632,1676,1724,1773,1821,1874,1927,1979,2028,2072,2111,2142,2160,2177,2195,2217,2234,2252,2256,2261,2265,2261,2252,2243,2234,2217,2199,2182,2160,2138,2120,2102,2080,2063,2041,2019,1997,1971,1944,1918,1891,1861,1830,1799,1777,1751,1729,1707,1689,1667,1645,1627,1610,1588,1561,1539,1517,1500,1478,1460,1443,1434,1416,1403,1390,1377,1359,1337,1311,1280,1249,1218,1188,1161,1144,1130,1122,1117,1122,1122,1122,1122,1122,1130,1139,1148,1170,1196,1223,1254,1284,1320,1364,1412,1465,1526,1583,1645,1711,1777,1839,1896,1953,2006,2050,2085,2116,2142,2168,2190,2208,2226,2243,2248,2252,2252,2256,2252,2248,2248,2248,2248,2248,2243,2234,2226,2217,2199,2182,2164,2146,2138,2124,2116,2102,2094,2080,2072,2063,2050,2041,2028,2006,1988,1966,1940,1909,1883,1861,1834,1812,1795,1781,1777,1773,1764,1751,1742,1733,1724,1715,1711,1707,1693,1680,1667,1649,1632,1619,1610,1605,1605,1605,1605,1605,1605,1614,1632,1649,1667,1693,1724,1751,1773,1803,1834,1874,1918,1966,2015,2063,2107,2151,2190,2234,2270,2292,2318,2340,2358,2371,2384,2393,2402,2406,2410,2410,2402,2384,2366,2349,2358,2380,2380,2371,2358,2344,2322,2300,2274,2252,2234,2217,2204,2186,2168,2151,2129,2102,2085,2063,2041,2023,2006,1988,1971,1962,1949,1940,1931,1922,1909,1896,1887,1874,1861,1852,1843,1834,1830,1821,1803,1790,1773,1755,1742,1724,1707,1693,1680,1671,1667,1667,1671,1671,1671,1671,1671,1676,1685,1698,1711,1733,1759,1790,1817,1847,1887,1922,1966,2006,2050,2094,2142,2182,2221,2261,2292,2318,2340,2366,2388,2406,2424,2441,2446,2450,2450,2441,2428,2415,2397,2380,2362,2344,2327,2309,2292,2274,2256,2243,2226,2212,2195,2177,2164,2146,2129,2111,2089,2063,2041,2015,1988,1966,1940,1918,1896,1878,1856,1830,1803,1777,1751,1724,1702,1685,1671,1663,1654,1645,1641,1632,1623,1614,1597,1575,1548,1522,1500,1478,1456,1434,1421,1408,1399,1390,1386,1386,1386,1386,1386,1390,1403,1416,1438,1460,1482,1509,1544,1583,1627,1680,1729,1781,1839,1887,1935,1984,2023,2058,2098,2142,2182,2212,2239,2261,2278,2287,2296,2296,2296,2296,2292,2292,2292,2287,2283,2274,2265,2256,2248,2243,2239,2230,2226,2221,2217,2217,2212,2208,2204,2195,2186,2177,2168,2160,2151,2142,2133,2124,2111,2098,2085,2067,2050,2037,2019,2006,1993,1979,1962,1949,1940,1922,1909,1896,1887,1874,1861,1847,1834,1821,1812,1799,1795,1795,1795,1790,1790,1790,1795,1803,1817,1830,1847,1865,1891,1918,1944,1971,1997,2023,2054,2089,2129,2168,2212,2252,2287,2318,2340,2358,2371,2388,2406,2424,2432,2441,2446,2446,2446,2446,2446,2437,2424,2410,2393,2380,2362,2344,2331,2309,2292,2270,2248,2234,2221,2208,2190,2173,2160,2142,2124,2111,2094,2076,2058,2037,2015,1993,1979,1971,1957,1949,1940,1927,1918,1905,1891,1878,1869,1861,1852,1843,1830,1821,1808,1795,1781,1768,1755,1742,1729,1720,1711,1702,1693,1689,1693,1693,1693,1698,1702,1711,1720,1733,1746,1764,1781,1803,1821,1847,1874,1905,1940,1975,2010,2050,2094,2133,2177,2217,2243,2270,2296,2322,2344,2362,2380,2393,2397,2402,2402,2402,2397,2384,2375,2362,2349,2336,2322,2305,2287,2270,2256,2239,2230,2217,2204,2190,2177,2160,2142,2124,2107,2094,2076,2058,2037,2019,2006,1993,1979,1971,1962,1949,1935,1918,1905,1887,1874,1861,1843,1830,1812,1799,1786,1768,1751,1737,1729,1720,1707,1693,1676,1663,1649,1636,1627,1619,1605,1597,1583,1575,1566,1561,1561,1561,1575,1592,1610,1632,1654,1676,1698,1715,1737,1768,1799,1830,1865,1896,1931,1962,1984,1997,2015,2028,2045,2054,2063,2076,2085,2089,2085,2080,2072,2067,2058,2050,2037,2028,2019,2010,2001,1993,1984,1984,1979,1979,1979,1979,1979,1979,1979,1975,1971,1962,1957,1949,1940,1931,1922,1918,1913,1913,1913,1913,1913,1913,1913,1913,1913,1913,1918,1918,1922,1922,1922,1922,1922,1922,1922,1922,1922,1922,1918,1913,1913,1913,1913,1913,1900,1883,1874,1869,1865,1869,1878,1887,1905,1922,1935,1953,1971,1993,2019,2041,2072,2107,2142,2177,2208,2239,2274,2305,2331,2353,2380,2397,2410,2424,2428,2428,2424,2419,2415,2406,2397,2393,2380,2366,2349,2331,2314,2296,2283,2261,2239,2221,2199,2182,2168,2155,2138,2116,2098,2080,2058,2041,2023,2006,1988,1971,1957,1944,1931,1922,1909,1896,1883,1869,1856,1843,1830,1821,1808,1795,1786,1773,1759,1742,1729,1711,1698,1689,1680,1671,1663,1654,1649,1645,1641,1636,1632,1632,1636,1641,1645,1654,1663,1676,1689,1711,1729,1751,1781,1808,1839,1874,1905,1940,1975,2010,2050,2089,2124,2155,2177,2204,2230,2256,2274,2296,2309,2327,2340,2349,2353,2358,2353,2344,2336,2327,2318,2300,2287,2274,2256,2243,2226,2208,2195,2182,2168,2155,2138,2124,2107,2085,2067,2050,2032,2019,2001,1988,1971,1953,1935,1922,1909,1896,1883,1869,1852,1839,1830,1817,1808,1795,1786,1777,1768,1755,1742,1729,1711,1698,1689,1680,1671,1663,1654,1649,1645,1636,1632,1627,1627,1632,1641,1645,1658,1671,1689,1702,1720,1733,1751,1773,1795,1821,1847,1878,1909,1935,1966,1993,2023,2050,2067,2089,2111,2129,2146,2160,2164,2173,2177,2177,2177,2173,2164,2155,2151,2138,2124,2107,2085,2063,2041,2015,1993,1971,1949,1927,1913,1900,1883,1865,1843,1821,1803,1786,1768,1751,1737,1720,1707,1689,1680,1671,1663,1654,1645,1636,1632,1623,1592,1557,1544,1535,1535,1535,1531,1531,1526,1522,1517,1513,1509,1500,1495,1495,1495,1500,1504,1513,1522,1526,1535,1548,1566,1583,1601,1619,1636,1658,1685,1707,1737,1768,1803,1843,1883,1922,1962,2001,2041,2076,2111,2138,2164,2195,2226,2256,2287,2314,2331,2340,2344,2344,2344,2344,2340,2331,2322,2314,2300,2287,2278,2265,2252,2239,2221,2204,2186,2164,2142,2124,2102,2085,2072,2058,2045,2032,2015,1997,1979,1957,1935,1918,1896,1874,1856,1839,1821,1803,1786,1773,1755,1737,1724,1715,1707,1698,1685,1676,1663,1654,1641,1627,1614,1601,1592,1583,1575,1570,1566,1557,1553,1548,1544,1544,1544,1544,1544,1548,1557,1570,1583,1597,1610,1627,1645,1667,1698,1729,1773,1812,1852,1891,1931,1962,1993,2028,2067,2098,2133,2164,2199,2226,2248,2265,2278,2283,2283,2278,2278,2278,2270,2265,2261,2252,2248,2234,2221,2204,2182,2155,2133,2107,2085,2067,2045,2023,2006,1988,1975,1957,1944,1927,1913,1896,1878,1856,1839,1821,1803,1786,1773,1759,1751,1742,1729,1715,1707,1693,1685,1676,1667,1654,1641,1627,1614,1601,1592,1575,1561,1553,1535,1517,1504,1487,1473,1456,1443,1434,1425,1416,1408,1403,1403,1412,1421,1438,1460,1482,1509,1539,1570,1601,1636,1667,1698,1729,1755,1781,1812,1839,1865,1887,1913,1931,1949,1957,1966,1971,1971,1966,1957,1953,1944,1935,1918,1900,1883,1865,1852,1839,1843,1865,1874,1874,1869,1869,1865,1861,1852,1847,1839,1830,1821,1812,1808,1799,1790,1781,1768,1759,1755,1755,1751,1751,1746,1742,1737,1737,1729,1724,1720,1720,1715,1711,1707,1698,1693,1685,1680,1671,1667,1663,1663,1663,1663,1663,1663,1663,1663,1663,1663,1663,1667,1680,1693,1711,1742,1764,1790,1821,1852,1883,1909,1940,1975,2015,2050,2080,2116,2151,2186,2221,2256,2283,2309,2327,2344,2358,2366,2366,2362,2349,2336,2318,2305,2287,2270,2256,2239,2221,2204,2186,2164,2146,2124,2102,2085,2063,2045,2028,2010,1988,1966,1944,1927,1909,1896,1878,1865,1847,1834,1817,1799,1781,1768,1751,1737,1724,1707,1693,1680,1667,1658,1649,1641,1632,1623,1614,1605,1597,1592,1583,1575,1570,1557,1539,1522,1509,1491,1478,1469,1460,1460,1465,1469,1473,1487,1500,1522,1544,1570,1601,1636,1667,1707,1746,1790,1834,1874,1909,1949,1988,2028,2072,2111,2142,2173,2199,2217,2239,2252,2256,2256,2256,2252,2243,2234,2226,2212,2195,2182,2168,2155,2138,2116,2098,2080,2063,2045,2023,2006,1993,1975,1957,1940,1927,1913,1905,1891,1878,1865,1847,1834,1817,1799,1781,1768,1751,1733,1715,1702,1685,1676,1667,1658,1649,1641,1632,1623,1614,1605,1597,1588,1575,1557,1548,1535,1522,1509,1500,1491,1482,1478,1473,1478,1478,1482,1487,1491,1500,1509,1526,1544,1566,1592,1619,1649,1680,1711,1746,1777,1803,1834,1869,1900,1935,1966,1993,2015,2037,2058,2085,2102,2111,2111,2107,2102,2094,2085,2072,2054,2032,2006,1984,1962,1940,1927,1909,1891,1861,1834,1803,1777,1751,1724,1707,1685,1667,1654,1641,1632,1614,1601,1583,1566,1548,1531,1509,1487,1469,1456,1443,1434,1430,1421,1412,1408,1408,1403,1403,1399,1399,1399,1399,1399,1399,1399,1399,1399,1399,1399,1399,1403,1408,1416,1421,1430,1438,1452,1469,1491,1513,1544,1579,1619,1658,1702,1751,1799,1852,1905,1953,1997,2037,2089,2142,2195,2234,2274,2314,2344,2366,2388,2410,2424,2432,2437,2437,2428,2415,2397,2384,2362,2344,2322,2305,2287,2265,2243,2226,2212,2195,2177,2155,2138,2116,2094,2076,2058,2037,2019,2001,1984,1962,1944,1922,1905,1887,1869,1852,1834,1817,1799,1781,1764,1751,1729,1707,1689,1676,1663,1654,1645,1636,1627,1619,1610,1601,1597,1588,1575,1561,1548,1539,1531,1522,1513,1504,1495,1491,1491,1491,1491,1495,1504,1522,1544,1566,1592,1623,1658,1693,1729,1768,1808,1843,1887,1927,1971,2015,2058,2102,2142,2182,2217,2243,2265,2278,2292,2305,2314,2318,2322,2318,2305,2292,2274,2261,2243,2230,2221,2212,2199,2190,2173,2155,2138,2116,2094,2067,2041,2015,1993,1971,1957,1940,1922,1905,1887,1869,1852,1834,1817,1799,1781,1764,1746,1733,1720,1707,1698,1689,1680,1671,1663,1654,1645,1636,1627,1619,1614,1605,1601,1592,1583,1575,1561,1548,1531,1517,1504,1495,1487,1482,1482,1487,1509,1544,1570,1597,1623,1654,1685,1720,1755,1795,1834,1869,1909,1949,1984,2023,2058,2094,2124,2155,2182,2204,2217,2221,2226,2226,2221,2212,2208,2195,2182,2164,2146,2129,2107,2080,2058,2037,2015,1993,1971,1953,1935,1913,1896,1869,1847,1825,1799,1773,1751,1729,1707,1685,1663,1645,1623,1605,1583,1561,1539,1517,1495,1478,1465,1456,1452,1447,1447,1447,1447,1447,1447,1447,1443,1443,1443,1438,1438,1438,1438,1438,1438,1438,1438,1438,1438,1443,1452,1456,1469,1482,1504,1526,1553,1579,1610,1649,1693,1737,1790,1847,1900,1944,1993,2045,2102,2155,2208,2252,2296,2340,2375,2410,2432,2446,2463,2476,2481,2485,2485,2490,2485,2472,2459,2446,2428,2410,2393,2375,2353,2327,2296,2270,2243,2221,2204,2186,2168,2151,2133,2116,2098,2080,2054,2032,2010,1993,1979,1962,1949,1935,1918,1905,1887,1874,1861,1843,1825,1812,1795,1777,1759,1746,1729,1720,1711,1702,1698,1689,1685,1671,1658,1645,1636,1627,1619,1610,1601,1592,1592,1588,1592,1597,1605,1619,1636,1663,1680,1707,1733,1764,1795,1825,1852,1887,1927,1966,2010,2050,2094,2133,2173,2208,2243,2270,2292,2305,2318,2327,2331,2336,2336,2327,2314,2300,2287,2270,2252,2239,2230,2217,2208,2199,2190,2177,2160,2142,2120,2098,2080,2063,2045,2028,2010,1988,1971,1953,1935,1922,1905,1887,1869,1852,1839,1821,1803,1790,1777,1759,1742,1729,1715,1702,1693,1685,1676,1671,1667,1663,1658,1649,1645,1636,1627,1623,1614,1605,1597,1592,1583,1575,1570,1561,1561,1566,1570,1575,1583,1601,1619,1641,1667,1698,1729,1755,1777,1812,1852,1891,1931,1971,2010,2050,2089,2129,2164,2190,2208,2221,2234,2248,2252,2256,2256,2256,2248,2239,2226,2212,2199,2190,2173,2155,2142,2124,2111,2094,2076,2058,2041,2023,2001,1984,1966,1957,1944,1931,1918,1905,1891,1874,1861,1843,1830,1812,1795,1781,1768,1755,1742,1724,1711,1698,1685,1667,1654,1632,1614,1597,1579,1561,1548,1535,1513,1495,1482,1469,1456,1447,1434,1425,1412,1399,1394,1390,1386,1386,1386,1386,1390,1403,1416,1430,1447,1460,1478,1500,1517,1544,1575,1610,1645,1685,1720,1755,1786,1817,1852,1883,1909,1931,1957,1979,1993,2006,2015,2010,2006,2001,1993,1988,1979,1971,1962,1957,1957,1953,1949,1949,1944,1944,1940,1935,1931,1931,1927,1922,1918,1913,1905,1900,1900,1900,1896,1891,1887,1883,1883,1883,1883,1883,1883,1883,1883,1883,1883,1878,1874,1869,1865,1856,1847,1839,1825,1812,1795,1781,1764,1751,1733,1720,1711,1707,1707,1711,1711,1711,1711,1715,1724,1737,1751,1773,1799,1830,1861,1891,1922,1953,1984,2015,2054,2089,2129,2164,2199,2234,2265,2292,2314,2331,2344,2353,2358,2358,2358,2349,2340,2327,2314,2296,2283,2265,2243,2221,2204,2190,2168,2151,2133,2116,2098,2080,2058,2041,2019,1993,1993,2006,2006,2006,1997,1988,1975,1962,1949,1931,1918,1900,1887,1869,1856,1843,1830,1812,1795,1781,1768,1755,1742,1733,1724,1720,1711,1707,1702,1693,1685,1676,1663,1649,1641,1632,1623,1614,1610,1601,1597,1601,1605,1610,1619,1632,1649,1671,1693,1724,1755,1786,1825,1861,1896,1935,1975,2015,2054,2094,2133,2173,2212,2248,2278,2305,2318,2331,2344,2358,2362,2362,2358,2353,2344,2331,2318,2305,2292,2278,2265,2248,2226,2204,2182,2164,2142,2120,2102,2085,2067,2054,2041,2032,2019,2001,1988,1971,1957,1940,1927,1909,1896,1878,1865,1847,1834,1821,1808,1795,1781,1773,1764,1759,1751,1742,1733,1724,1720,1715,1707,1702,1693,1685,1680,1667,1654,1641,1619,1601,1588,1575,1570,1561,1553,1548,1548,1557,1561,1570,1583,1605,1627,1654,1680,1711,1746,1777,1808,1839,1869,1905,1940,1971,2001,2028,2054,2076,2094,2102,2111,2116,2120,2116,2107,2089,2067,2041,2019,1997,1975,1957,1940,1922,1905,1883,1865,1847,1830,1817,1803,1790,1781,1773,1768,1764,1755,1751,1742,1733,1724,1720,1711,1702,1693,1685,1680,1671,1667,1663,1654,1645,1641,1645,1649,1649,1649,1649,1645,1641,1641,1641,1641,1645,1645,1645,1649,1658,1663,1671,1680,1685,1693,1702,1711,1720,1737,1759,1777,1790,1808,1834,1861,1887,1922,1962,2001,2028,2063,2098,2138,2173,2212,2252,2283,2314,2340,2366,2388,2406,2419,2432,2437,2441,2446,2446,2441,2432,2419,2406,2388,2366,2344,2327,2309,2292,2274,2256,2234,2208,2182,2160,2133,2111,2089,2063,2041,2019,1997,1975,1957,1940,1922,1905,1891,1874,1856,1834,1817,1799,1786,1768,1751,1737,1724,1715,1707,1698,1689,1680,1671,1663,1658,1649,1645,1636,1627,1614,1601,1588,1575,1561,1544,1531,1522,1513,1509,1500,1495,1491,1495,1504,1513,1526,1548,1570,1601,1636,1671,1702,1742,1786,1834,1883,1931,1979,2028,2072,2116,2160,2199,2230,2256,2287,2309,2327,2340,2344,2344,2336,2322,2305,2292,2274,2261,2248,2239,2226,2212,2195,2177,2160,2138,2116,2089,2063,2041,2015,1997,1975,1957,1940,1922,1909,1896,1878,1861,1847,1830,1812,1795,1781,1764,1751,1737,1724,1715,1707,1698,1689,1680,1671,1658,1649,1641,1632,1623,1610,1597,1588,1570,1557,1548,1535,1522,1513,1500,1495,1491,1482,1473,1469,1473,1478,1491,1509,1531,1553,1579,1610,1641,1671,1702,1737,1768,1808,1847,1883,1922,1957,1993,2019,2045,2063,2072,2085,2098,2107,2116,2120,2120,2111,2102,2094,2080,2063,2045,2023,2006,1979,1953,1927,1900,1869,1834,1803,1773,1746,1720,1702,1680,1663,1645,1623,1605,1583,1561,1544,1522,1504,1482,1465,1456,1452,1447,1443,1438,1434,1430,1421,1416,1412,1412,1412,1412,1412,1412,1416,1416,1421,1416,1412,1412,1408,1403,1403,1403,1403,1403,1403,1412,1425,1438,1452,1473,1495,1517,1548,1579,1619,1658,1698,1737,1773,1821,1869,1944,2028,2098,2160,2217,2270,2314,2353,2393,2424,2450,2472,2494,2516,2529,2538,2538,2534,2520,2507,2490,2472,2454,2432,2406,2380,2358,2336,2314,2296,2274,2252,2230,2208,2186,2164,2146,2133,2116,2098,2080,2063,2045,2028,2010,1993,1975,1957,1935,1918,1900,1878,1852,1830,1812,1795,1781,1768,1759,1742,1729,1711,1698,1685,1676,1663,1654,1645,1636,1627,1619,1605,1592,1579,1570,1561,1557,1548,1539,1531,1522,1513,1509,1509,1513,1526,1544,1570,1597,1632,1667,1711,1751,1790,1834,1883,1927,1979,2028,2072,2116,2151,2177,2204,2230,2256,2283,2305,2322,2331,2336,2340,2336,2331,2327,2318,2309,2296,2287,2270,2252,2239,2217,2190,2164,2138,2111,2089,2067,2050,2037,2023,2006,1993,1975,1957,1940,1922,1905,1887,1874,1856,1834,1812,1790,1777,1759,1746,1737,1724,1715,1707,1698,1693,1685,1671,1663,1645,1632,1619,1610,1601,1592,1583,1575,1561,1544,1531,1522,1513,1509,1509,1509,1509,1509,1509,1513,1522,1539,1557,1579,1601,1627,1658,1698,1733,1773,1817,1865,1918,1966,2019,2058,2085,2111,2142,2168,2195,2217,2230,2243,2252,2261,2261,2261,2252,2243,2239,2226,2212,2195,2177,2155,2133,2111,2089,2067,2050,2028,2015,2001,1984,1966,1949,1927,1900,1874,1847,1821,1799,1781,1755,1737,1724,1707,1685,1658,1636,1614,1597,1570,1544,1522,1509,1495,1482,1473,1460,1447,1438,1425,1408,1390,1372,1346,1324,1324,1342,1346,1346,1337,1328,1324,1315,1306,1302,1302,1302,1311,1315,1324,1337,1355,1372,1399,1430,1469,1513,1557,1605,1658,1715,1768,1817,1861,1896,1940,1984,2023,2058,2085,2111,2129,2142,2146,2146,2142,2138,2129,2129,2124,2120,2111,2107,2098,2089,2085,2076,2076,2072,2072,2072,2072,2072,2072,2072,2072,2072,2072,2063,2054,2045,2037,2028,2019,2010,2001,1988,1975,1957,1944,1927,1913,1896,1883,1865,1852,1839,1830,1821,1817,1803,1795,1781,1768,1755,1746,1737,1729,1720,1715,1707,1702,1698,1698,1698,1707,1711,1720,1729,1737,1751,1773,1790,1812,1834,1861,1891,1922,1953,1988,2019,2054,2085,2120,2151,2182,2204,2226,2252,2274,2292,2305,2314,2314,2318,2314,2309,2305,2296,2287,2278,2270,2256,2243,2226,2208,2190,2173,2151,2129,2107,2085,2072,2054,2041,2023,2010,1993,1975,1957,1940,1918,1900,1883,1865,1847,1834,1825,1817,1808,1799,1790,1781,1773,1764,1751,1742,1733,1729,1720,1711,1702,1693,1685,1671,1658,1649,1641,1627,1614,1601,1592,1583,1570,1566,1561,1557,1561,1566,1575,1583,1592,1610,1627,1649,1671,1698,1733,1768,1808,1839,1874,1918,1962,2006,2050,2089,2124,2151,2177,2199,2226,2248,2274,2292,2305,2314,2314,2318,2314,2309,2305,2296,2287,2270,2248,2226,2208,2186,2164,2146,2124,2107,2089,2076,2063,2045,2032,2019,2006,1997,1984,1971,1957,1944,1927,1913,1900,1887,1874,1856,1878,1922,1940,1940,1935,1927,1913,1900,1891,1883,1874,1861,1852,1839,1821,1803,1777,1751,1729,1707,1689,1671,1658,1649,1632,1619,1605,1597,1597,1592,1597,1610,1623,1636,1654,1671,1689,1715,1737,1764,1790,1817,1843,1869,1905,1935,1966,1997,2023,2054,2085,2116,2151,2182,2204,2226,2234,2234,2234,2234,2230,2230,2226,2217,2212,2199,2190,2177,2168,2155,2146,2138,2129,2124,2116,2111,2107,2094,2085,2072,2058,2045,2032,2028,2023,2019,2010,2006,2006,2001,1993,1988,1979,1975,1971,1971,1966,1966,1966,1966,1966,1966,1966,1966,1966,1966,1966,1966,1962,1962,1957,1953,1953,1953,1957,1957,1962,1962,1966,1966,1966,1966,1971,1984,1997,2010,2028,2045,2072,2102,2142,2182,2226,2270,2314,2353,2397,2441,2485,2516,2542,2573,2600,2626,2643,2661,2683,2696,2701,2701,2696,2683,2670,2657,2639,2622,2600,2578,2556,2529,2503,2481,2454,2432,2410,2388,2366,2344,2322,2300,2283,2265,2248,2234,2217,2204,2186,2168,2151,2133,2120,2102,2089,2072,2054,2037,2019,2001,1984,1975,1966,1962,1957,1953,1944,1935,1927,1918,1909,1900,1891,1883,1874,1865,1856,1847,1839,1830,1825,1817,1808,1799,1795,1799,1803,1812,1830,1852,1874,1900,1935,1966,2001,2041,2080,2129,2177,2221,2270,2318,2366,2406,2441,2481,2516,2551,2582,2613,2635,2652,2670,2674,2679,2679,2670,2661,2643,2630,2613,2595,2573,2556,2534,2516,2494,2476,2406,2309,2252,2217,2190,2168,2151,2133,2116,2094,2072,2050,2028,2010,1993,1975,1962,1944,1927,1909,1891,1874,1856,1839,1821,1803,1786,1773,1768,1764,1759,1755,1751,1746,1737,1729,1720,1711,1702,1693,1685,1680,1676,1667,1658,1649,1641,1636,1641,1645,1654,1663,1671,1685,1702,1724,1751,1781,1817,1856,1900,1944,1984,2023,2063,2102,2142,2177,2208,2239,2265,2292,2314,2331,2340,2344,2344,2336,2322,2314,2305,2296,2283,2265,2248,2226,2204,2182,2160,2138,2116,2089,2058,2023,1993,1971,1944,1913,1887,1861,1834,1808,1781,1759,1742,1724,1707,1693,1680,1667,1649,1632,1614,1597,1579,1561,1544,1531,1522,1513,1509,1504,1500,1500,1495,1491,1491,1491,1491,1491,1491,1491,1491,1491,1491,1491,1491,1491,1495,1504,1513,1526,1544,1566,1592,1627,1663,1698,1737,1781,1830,1878,1935,1997,2058,2120,2182,2239,2296,2340,2380,2424,2468,2507,2542,2573,2600,2617,2630,2639,2639,2630,2617,2600,2582,2564,2547,2529,2507,2485,2463,2437,2410,2384,2362,2340,2322,2305,2287,2270,2252,2234,2217,2199,2182,2164,2146,2129,2107,2085,2063,2045,2028,2010,1993,1975,1957,1940,1922,1905,1887,1869,1852,1839,1821,1803,1786,1773,1759,1751,1742,1733,1724,1715,1707,1698,1689,1680,1671,1663,1654,1645,1636,1636,1641,1645,1654,1671,1689,1711,1733,1755,1781,1812,1852,1900,1949,1997,2045,2089,2133,2173,2208,2248,2287,2322,2327,2309,2318,2336,2353,2371,2388,2397,2397,2397,2397,2397,2388,2384,2375,2358,2344,2327,2309,2287,2265,2239,2212,2186,2164,2142,2124,2102,2085,2067,2045,2023,1997,1975,1953,1931,1913,1896,1878,1861,1843,1825,1808,1790,1773,1759,1742,1729,1720,1707,1693,1680,1667,1654,1645,1636,1636,1632,1623,1614,1610,1601,1597,1592,1583,1575,1566,1557,1548,1544,1544,1544,1553,1561,1570,1583,1605,1632,1658,1693,1724,1759,1795,1834,1878,1922,1966,2006,2041,2080,2124,2164,2199,2230,2261,2283,2300,2318,2331,2340,2340,2340,2340,2336,2322,2309,2292,2270,2248,2226,2204,2177,2155,2133,2116,2089,2067,2050,2032,2023,2006,1988,1971,1944,1922,1900,1883,1861,1839,1812,1786,1764,1737,1715,1689,1663,1641,1623,1601,1588,1579,1566,1553,1535,1517,1500,1478,1452,1430,1408,1386,1368,1355,1342,1328,1315,1298,1280,1262,1245,1236,1227,1223,1223,1223,1227,1236,1249,1267,1284,1306,1337,1372,1408,1452,1500,1548,1601,1654,1698,1742,1799,1856,1918,1975,2032,2080,2120,2151,2177,2195,2199,2204,2204,2204,2204,2204,2199,2190,2182,2177,2173,2168,2160,2155,2146,2138,2129,2120,2120,2116,2111,2111,2107,2102,2094,2085,2076,2067,2058,2050,2041,2032,2019,2001,1988,1971,1953,1935,1922,1909,1900,1891,1883,1865,1852,1834,1817,1799,1781,1764,1751,1733,1715,1698,1685,1671,1663,1654,1649,1649,1649,1649,1649,1649,1658,1702,1768,1808,1843,1874,1909,1944,1984,2015,2050,2085,2124,2164,2204,2239,2270,2300,2331,2362,2388,2415,2437,2459,2472,2481,2485,2490,2490,2490,2485,2476,2463,2450,2432,2419,2402,2384,2362,2340,2318,2300,2283,2270,2252,2234,2217,2195,2168,2146,2124,2098,2076,2054,2032,2019,2001,1988,1975,1957,1940,1927,1909,1891,1874,1861,1843,1825,1812,1803,1795,1786,1781,1773,1768,1759,1751,1742,1733,1724,1711,1707,1702,1693,1685,1680,1671,1663,1654,1649,1649,1649,1658,1667,1680,1693,1715,1742,1768,1799,1830,1869,1913,1962,2006,2050,2089,2124,2155,2195,2230,2270,2305,2340,2375,2410,2437,2463,2481,2490,2494,2494,2490,2481,2472,2459,2441,2428,2410,2393,2366,2336,2305,2283,2261,2243,2226,2212,2195,2182,2160,2142,2120,2098,2076,2054,2032,2019,2001,1988,1975,1957,1940,1927,1909,1896,1883,1869,1856,1843,1830,1817,1803,1795,1786,1777,1768,1759,1751,1742,1729,1715,1698,1680,1667,1649,1632,1614,1597,1579,1570,1557,1548,1544,1539,1539,1544,1553,1557,1570,1588,1614,1645,1685,1720,1759,1795,1825,1861,1887,1913,1944,1975,2006,2032,2058,2080,2098,2111,2120,2129,2129,2124,2120,2111,2094,2072,2050,2032,2023,2010,1997,1988,1975,1966,1953,1944,1931,1922,1918,1909,1900,1896,1896,1891,1883,1874,1861,1852,1839,1825,1812,1803,1795,1786,1781,1777,1773,1768,1773,1777,1777,1781,1786,1786,1786,1786,1759,1715,1693,1685,1676,1676,1671,1671,1671,1676,1676,1676,1676,1676,1676,1676,1676,1676,1676,1685,1698,1715,1737,1768,1803,1839,1874,1913,1949,1988,2032,2080,2124,2173,2217,2256,2292,2336,2380,2419,2459,2498,2529,2547,2560,2560,2556,2547,2538,2525,2512,2494,2476,2459,2441,2424,2402,2375,2340,2309,2278,2256,2226,2199,2173,2142,2116,2085,2058,2037,2010,1984,1962,1944,1931,1918,1900,1883,1874,1861,1843,1830,1812,1795,1777,1759,1742,1729,1711,1693,1685,1671,1663,1654,1641,1632,1623,1610,1592,1579,1566,1548,1535,1522,1504,1495,1482,1473,1465,1465,1469,1473,1482,1495,1517,1544,1575,1614,1654,1693,1733,1781,1830,1887,1940,1993,2037,2076,2124,2173,2226,2270,2314,2353,2388,2415,2432,2441,2446,2446,2446,2437,2424,2410,2393,2375,2358,2336,2318,2296,2274,2248,2226,2208,2186,2160,2138,2111,2085,2058,2037,2010,1988,1971,1949,1935,1918,1900,1883,1865,1843,1825,1808,1790,1768,1751,1733,1711,1698,1685,1671,1663,1654,1645,1632,1623,1614,1605,1597,1583,1566,1557,1548,1535,1522,1513,1500,1487,1473,1465,1456,1447,1447,1452,1456,1465,1473,1487,1509,1535,1561,1597,1627,1663,1698,1733,1768,1808,1839,1874,1913,1953,1993,2023,2058,2098,2129,2160,2186,2204,2212,2217,2212,2208,2195,2173,2151,2120,2089,2058,2023,1993,1966,1940,1918,1900,1878,1852,1830,1808,1781,1755,1720,1671,1641,1619,1601,1588,1579,1561,1544,1531,1522,1513,1500,1491,1487,1487,1482,1478,1473,1469,1460,1452,1443,1434,1430,1425,1421,1416,1416,1416,1421,1430,1430,1434,1438,1443,1443,1447,1456,1465,1473,1482,1500,1517,1539,1561,1588,1623,1658,1698,1742,1790,1843,1891,1940,1988,2041,2080,2120,2164,2204,2243,2283,2322,2358,2393,2424,2446,2468,2476,2481,2481,2476,2468,2454,2441,2424,2406,2384,2366,2349,2327,2300,2270,2243,2212,2190,2168,2146,2129,2111,2094,2067,2041,2015,1988,1957,1935,1918,1896,1874,1847,1821,1790,1764,1742,1720,1702,1685,1663,1649,1636,1623,1610,1597,1588,1575,1566,1557,1548,1535,1522,1504,1495,1482,1473,1465,1452,1434,1421,1408,1390,1377,1364,1350,1346,1350,1355,1364,1377,1394,1421,1447,1482,1526,1566,1610,1654,1707,1755,1799,1847,1891,1944,1993,2041,2089,2133,2177,2212,2239,2261,2278,2287,2300,2305,2309,2309,2300,2287,2270,2252,2234,2217,2195,2177,2155,2133,2107,2080,2054,2032,2006,1984,1957,1931,1909,1891,1874,1856,1839,1821,1803,1786,1768,1746,1729,1711,1693,1671,1649,1632,1619,1610,1597,1588,1575,1566,1557,1548,1535,1522,1504,1487,1469,1452,1443,1425,1408,1390,1372,1350,1337,1328,1324,1320,1320,1320,1324,1333,1346,1364,1386,1408,1438,1465,1504,1544,1583,1627,1671,1720,1759,1803,1852,1900,1949,1997,2045,2089,2133,2164,2190,2208,2217,2217,2212,2204,2195,2186,2182,2186,2182,2173,2160,2138,2116,2089,2067,2041,2006,1975,1944,1913,1883,1852,1821,1790,1764,1733,1711,1693,1676,1658,1641,1619,1592,1570,1553,1531,1504,1478,1452,1425,1412,1399,1381,1364,1346,1328,1311,1293,1271,1249,1218,1192,1166,1148,1135,1122,1113,1100,1091,1082,1073,1064,1056,1047,1038,1038,1047,1064,1082,1104,1126,1157,1188,1227,1267,1315,1368,1416,1469,1526,1583,1632,1680,1733,1790,1843,1896,1944,1988,2037,2076,2116,2142,2164,2190,2208,2217,2221,2226,2226,2230,2230,2226,2221,2212,2208,2199,2190,2182,2168,2155,2142,2129,2111,2094,2076,2063,2041,2023,2001,1979,1962,1940,1922,1905,1883,1865,1843,1821,1795,1773,1755,1737,1720,1707,1689,1680,1667,1658,1649,1641,1632,1623,1614,1605,1601,1592,1579,1561,1544,1522,1509,1491,1482,1469,1460,1456,1452,1456,1465,1469,1478,1487,1500,1522,1548,1579,1619,1654,1689,1733,1777,1817,1865,1913,1962,2006,2050,2089,2129,2164,2190,2212,2230,2239,2239,2239,2234,2230,2221,2217,2204,2190,2173,2146,2124,2098,2080,2058,2032,2006,1984,1962,1944,1922,1896,1874,1847,1825,1808,1790,1777,1759,1742,1720,1702,1680,1658,1645,1627,1614,1605,1597,1588,1583,1575,1566,1557,1544,1526,1513,1500,1482,1469,1452,1434,1416,1399,1386,1377,1368,1359,1350,1346,1337,1333,1333,1333,1328,1333,1342,1355,1368,1381,1399,1421,1443,1473,1504,1544,1588,1632,1742,1891,1993,2067,2129,2182,2230,2270,2305,2336,2366,2397,2424,2450,2463,2472,2476,2472,2468,2459,2450,2441,2428,2419,2406,2388,2375,2358,2340,2322,2300,2283,2261,2243,2226,2208,2190,2173,2160,2142,2124,2111,2098,2080,2063,2041,2019,2001,1984,1971,1953,1935,1918,1905,1887,1869,1852,1830,1808,1786,1764,1737,1720,1702,1685,1667,1654,1645,1632,1619,1610,1597,1579,1570,1561,1548,1531,1517,1509,1500,1500,1500,1500,1504,1509,1517,1531,1544,1561,1583,1614,1645,1676,1707,1742,1781,1821,1865,1905,1944,1984,2023,2058,2089,2120,2146,2168,2182,2199,2212,2226,2230,2230,2230,2226,2217,2212,2212,2208,2199,2190,2177,2164,2146,2133,2116,2102,2094,2085,2080,2076,2072,2063,2058,2054,2045,2041,2037,2028,2028,2028,2023,2023,2019,2015,2010,2006,1997,1997,1993,1988,1979,1979,1975,1975,1975,1966,1962,1957,1953,1944,1935,1922,1913,1905,1896,1887,1878,1874,1869,1869,1874,1887,1905,1927,1949,1975,2001,2037,2067,2102,2142,2186,2230,2265,2296,2336,2375,2410,2446,2481,2507,2534,2556,2573,2591,2604,2608,2608,2604,2595,2582,2564,2547,2534,2516,2498,2476,2450,2428,2410,2393,2375,2358,2340,2322,2300,2278,2256,2234,2217,2199,2186,2173,2164,2151,2138,2124,2107,2089,2072,2058,2041,2023,2006,1988,1975,1962,1953,1940,1931,1922,1913,1905,1896,1887,1878,1869,1861,1847,1834,1825,1808,1795,1781,1768,1729,1676,1645,1627,1619,1614,1610,1610,1614,1623,1632,1645,1667,1689,1715,1751,1790,1830,1874,1918,1962,2001,2045,2089,2133,2177,2217,2256,2292,2322,2349,2371,2388,2402,2410,2419,2419,2424,2419,2410,2397,2388,2380,2371,2362,2349,2340,2327,2305,2283,2261,2239,2217,2195,2173,2155,2133,2120,2107,2098,2085,2072,2063,2045,2032,2015,1997,1984,1966,1949,1931,1913,1896,1883,1874,1865,1856,1847,1839,1830,1821,1812,1803,1795,1786,1777,1768,1764,1751,1733,1715,1698,1676,1654,1632,1614,1601,1592,1588,1588,1588,1592,1592,1597,1605,1614,1623,1645,1667,1689,1724,1759,1795,1825,1856,1891,1927,1962,1997,2032,2067,2098,2124,2142,2155,2164,2164,2160,2151,2142,2129,2120,2102,2089,2076,2063,2050,2032,2019,2006,1988,1975,1957,1940,1922,1909,1891,1878,1865,1856,1847,1843,1839,1839,1839,1839,1839,1834,1834,1830,1825,1821,1817,1812,1812,1808,1803,1803,1799,1803,1808,1812,1821,1825,1825,1834,1839,1843,1843,1843,1843,1839,1834,1834,1839,1847,1856,1861,1865,1865,1869,1878,1887,1900,1922,1949,1979,2010,2041,2076,2107,2133,2168,2208,2239,2274,2309,2344,2380,2415,2446,2476,2503,2525,2547,2564,2582,2595,2600,2604,2608,2604,2600,2586,2573,2556,2534,2507,2481,2454,2428,2402,2380,2362,2340,2318,2300,2274,2252,2226,2204,2177,2155,2138,2120,2107,2089,2072,2058,2041,2023,2001,1944,1865,1817,1781,1759,1742,1720,1707,1693,1685,1671,1663,1654,1645,1636,1627,1619,1610,1605,1597,1583,1566,1548,1526,1509,1495,1478,1465,1456,1443,1438,1430,1430,1430,1438,1443,1456,1478,1500,1531,1566,1605,1649,1685,1729,1773,1825,1878,1931,1979,2028,2072,2120,2164,2208,2248,2287,2314,2336,2349,2362,2366,2371,2366,2362,2349,2331,2314,2296,2283,2270,2256,2239,2217,2195,2173,2146,2120,2089,2063,2037,2010,1988,1975,1962,1949,1935,1922,1905,1887,1865,1843,1821,1799,1777,1759,1742,1729,1711,1702,1693,1680,1667,1654,1645,1636,1627,1619,1610,1601,1597,1583,1566,1539,1517,1500,1482,1469,1456,1443,1430,1421,1416,1412,1412,1412,1412,1421,1430,1447,1469,1491,1522,1561,1601,1641,1676,1711,1755,1803,1852,1905,1949,1993,2037,2076,2111,2142,2168,2190,2212,2234,2248,2256,2256,2256,2252,2243,2226,2208,2186,2164,2142,2120,2098,2072,2041,2006,1971,1931,1896,1865,1839,1808,1777,1751,1729,1711,1693,1680,1667,1654,1641,1623,1601,1579,1553,1526,1504,1482,1456,1425,1399,1368,1342,1315,1293,1276,1258,1236,1218,1205,1192,1179,1161,1144,1122,1100,1086,1073,1060,1051,1042,1038,1042,1051,1060,1069,1082,1100,1117,1135,1157,1183,1214,1249,1284,1320,1359,1399,1443,1491,1544,1605,1663,1720,1777,1830,1887,1940,1979,2019,2058,2094,2124,2151,2173,2195,2208,2217,2230,2234,2239,2234,2226,2217,2208,2199,2195,2195,2230,2287,2309,2318,2318,2309,2292,2274,2256,2234,2212,2190,2173,2146,2120,2098,2072,2045,2023,2001,1984,1966,1949,1935,1927,1913,1900,1887,1878,1865,1856,1847,1834,1821,1812,1799,1781,1768,1751,1733,1720,1707,1693,1685,1671,1663,1658,1658,1658,1654,1654,1654,1654,1654,1654,1667,1680,1698,1720,1737,1759,1781,1817,1852,1887,1922,1953,1988,2019,2050,2080,2111,2138,2155,2168,2177,2186,2186,2186,2182,2177,2168,2160,2146,2133,2116,2102,2094,2076,2054,2037,2015,1988,1966,1949,1927,1905,1883,1865,1852,1834,1817,1799,1781,1768,1755,1733,1715,1698,1689,1676,1667,1663,1658,1645,1636,1627,1619,1605,1588,1575,1557,1544,1526,1513,1509,1504,1491,1482,1473,1465,1456,1447,1443,1434,1425,1416,1412,1408,1403,1399,1394,1394,1399,1403,1412,1421,1434,1452,1469,1482,1500,1513,1535,1561,1592,1623,1658,1689,1724,1755,1786,1817,1843,1865,1887,1909,1927,1935,1940,1940,1940,1940,1935,1931,1922,1913,1905,1896,1883,1869,1856,1839,1825,1808,1790,1773,1755,1737,1724,1715,1707,1702,1693,1680,1667,1649,1641,1632,1619,1605,1588,1575,1561,1553,1539,1526,1513,1500,1487,1478,1469,1465,1456,1447,1434,1430,1421,1412,1399,1381,1368,1350,1333,1315,1293,1276,1258,1240,1232,1227,1232,1232,1232,1232,1232,1232,1232,1232,1236,1245,1249,1258,1267,1276,1289,1306,1320,1337,1359,1381,1403,1430,1456,1478,1504,1566,1645,1693,1729,1755,1773,1786,1790,1795,1790,1786,1777,1773,1768,1764,1764,1759,1755,1751,1751,1751,1746,1742,1733,1729,1720,1715,1711,1707,1707,1702,1698,1693,1689,1689,1680,1676,1676,1671,1671,1671,1671,1671,1671,1671,1671,1671,1671,1671,1671,1671,1671,1676,1680,1680,1680,1680,1671,1667,1658,1649,1645,1636,1632,1632,1627,1627,1627,1627,1627,1627,1627,1632,1636,1649,1663,1680,1702,1724,1746,1773,1799,1825,1852,1874,1900,1922,1949,1975,1997,2023,2045,2063,2080,2094,2098,2098,2102,2102,2102,2098,2089,2085,2076,2063,2054,2045,2032,2019,2006,1993,1975,1962,1944,1931,1918,1900,1887,1878,1869,1856,1847,1839,1825,1817,1808,1799,1795,1790,1781,1777,1777,1773,1759,1746,1737,1724,1715,1702,1689,1680,1671,1663,1658,1654,1649,1641,1632,1623,1619,1610,1601,1597,1597,1592,1592,1592,1597,1601,1610,1614,1619,1619,1623,1627,1627,1632,1641,1654,1667,1685,1707,1733,1759,1786,1812,1843,1865,1891,1918,1944,1966,1993,2015,2032,2054,2067,2080,2089,2098,2098,2098,2094,2089,2085,2076,2072,2067,2058,2054,2045,2037,2028,2023,2010,1993,1975,1957,1944,1935,1927,1922,1913,1905,1896,1883,1874,1865,1856,1847,1839,1830,1825,1821,1817,1812,1808,1803,1799,1795,1786,1777,1768,1764,1755,1751,1746,1746,1746,1742,1737,1729,1724,1715,1707,1698,1685,1671,1663,1658,1654,1649,1649,1645,1645,1645,1610,1553,1535,1544,1566,1597,1636,1680,1729,1781,1839,1896,1953,2010,2063,2111,2164,2208,2252,2287,2318,2340,2362,2380,2393,2397,2388,2380,2362,2349,2331,2314,2305,2292,2278,2261,2230,2186,2142,2098,2058,2028,2006,1979,1949,1927,1905,1878,1852,1817,1786,1755,1733,1711,1693,1671,1649,1627,1614,1601,1575,1544,1513,1491,1478,1473,1469,1469,1469,1469,1469,1469,1469,1478,1482,1491,1495,1500,1495,1487,1473,1465,1465,1465,1465,1469,1478,1482,1491,1513,1539,1570,1601,1636,1671,1720,1777,1843,1900,1962,2028,2107,2186,2270,2366,2459,2547,2630,2714,2789,2872,2943,3000,3053,3101,3145,3176,3198,3215,3220,3211,3198,3180,3154,3127,3092,3066,3039,3013,2991,2969,2943,2921,2899,2877,2855,2833,2811,2797,2784,2762,2740,2718,2696,2670,2639,2608,2573,2547,2520,2507,2494,2481,2463,2450,2432,2415,2397,2384,2366,2349,2331,2314,2305,2292,2274,2252,2234,2217,2195,2173,2151,2133,2116,2094,2072,2054,2037,2019,2001,1997,1993,1988,1988,1988,1993,2001,2010,2019,2032,2050,2067,2098,2142,2186,2239,2300,2375,2450,2520,2591,2657,2727,2784,2841,2899,2960,3017,3070,3119,3163,3193,3215,3233,3255,3264,3259,3250,3237,3220,3202,3189,3171,3154,3132,3101,3070,3039,3009,2982,2960,2938,2916,2899,2881,2868,2846,2819,2789,2758,2723,2692,2661,2639,2617,2591,2564,2542,2520,2507,2494,2481,2468,2459,2446,2437,2318,2142,2050,2006,1979,1971,1962,1957,1953,1944,1935,1927,1918,1909,1900,1891,1883,1874,1865,1852,1843,1834,1825,1830,1834,1843,1852,1869,1891,1918,1949,1979,2015,2054,2094,2138,2177,2217,2261,2300,2340,2380,2415,2450,2485,2525,2560,2595,2622,2643,2657,2657,2652,2643,2635,2626,2617,2604,2595,2582,2564,2547,2520,2490,2459,2432,2406,2380,2358,2336,2314,2287,2261,2230,2204,2173,2151,2129,2107,2089,2072,2054,2041,2023,2010,1988,1975,1957,1940,1918,1891,1865,1847,1825,1803,1781,1764,1742,1724,1711,1698,1680,1667,1654,1641,1632,1623,1614,1597,1579,1570,1561,1561,1561,1570,1583,1601,1623,1641,1663,1685,1711,1742,1781,1825,1874,1927,1975,2032,2089,2142,2190,2248,2300,2358,2410,2459,2512,2564,2613,2648,2674,2701,2723,2740,2749,2758,2762,2762,2767,2767,2767,2762,2749,2740,2727,2709,2692,2679,2670,2657,2648,2635,2626,2617,2604,2595,2586,2573,2551,2534,2512,2485,2459,2432,2406,2380,2366,2349,2340,2327,2318,2305,2296,2287,2274,2261,2252,2239,2230,2217,2208,2195,2182,2168,2151,2138,2129,2111,2094,2072,2054,2041,2028,2023,2028,2028,2032,2032,2032,2032,2032,2037,2045,2058,2080,2107,2142,2186,2239,2292,2344,2388,2432,2476,2525,2578,2626,2665,2701,2727,2753,2775,2797,2815,2824,2824,2828,2824,2815,2802,2784,2762,2745,2723,2705,2687,2670,2652,2630,2608,2591,2569,2542,2520,2494,2402,2278,2208,2164,2133,2111,2094,2080,2067,2058,2045,2032,2019,2006,1993,1979,1966,1953,1935,1927,1913,1896,1883,1874,1865,1856,1839,1825,1817,1808,1799,1795,1786,1786,1781,1777,1768,1764,1759,1755,1751,1751,1751,1755,1759,1768,1777,1786,1795,1808,1821,1839,1861,1887,1922,1966,2010,2058,2098,2133,2173,2217,2261,2300,2340,2371,2402,2428,2450,2468,2490,2498,2503,2507,2507,2503,2494,2476,2459,2441,2424,2406,2388,2375,2362,2349,2340,2331,2318,2305,2292,2274,2252,2234,2212,2195,2177,2160,2142,2129,2116,2098,2085,2067,2054,2037,2019,1997,1979,1962,1944,1922,1905,1883,1861,1839,1821,1808,1790,1773,1759,1746,1733,1720,1707,1698,1685,1671,1654,1641,1623,1605,1592,1575,1561,1553,1544,1535,1526,1522,1522,1522,1526,1535,1544,1557,1575,1601,1627,1663,1698,1733,1773,1812,1852,1891,1940,1984,2028,2067,2102,2138,2164,2190,2208,2230,2243,2256,2265,2274,2274,2270,2265,2256,2248,2239,2230,2221,2212,2204,2195,2190,2186,2182,2173,2168,2160,2151,2142,2133,2120,2111,2102,2098,2098,2089,2085,2085,2080,2080,2080,2080,2080,2080,2080,2080,2080,2080,2080,2080,2080,2080,2080,2080,2072,2058,2045,2032,2015,2001,1988,1979,1966,1957,1949,1935,1927,1918,1913,1913,1922,1935,1962,1993,2028,2054,2080,2107,2133,2160,2195,2234,2274,2305,2344,2380,2415,2454,2490,2525,2560,2586,2613,2630,2643,2648,2591,2507,2463,2441,2424,2406,2393,2375,2362,2344,2327,2314,2296,2283,2265,2252,2234,2212,2199,2186,2173,2160,2146,2133,2120,2107,2094,2080,2063,2041,2019,2001,1979,1962,1949,1935,1922,1909,1900,1887,1874,1865,1852,1843,1830,1821,1808,1799,1790,1786,1773,1764,1751,1737,1724,1711,1702,1693,1689,1689,1689,1689,1693,1693,1693,1693,1693,1693,1698,1702,1715,1729,1746,1773,1799,1830,1861,1896,1931,1957,1993,2028,2067,2107,2142,2177,2208,2239,2265,2283,2300,2314,2327,2340,2349,2353,2358,2358,2358,2353,2349,2340,2327,2309,2296,2283,2265,2248,2230,2212,2190,2173,2155,2142,2129,2111,2102,2089,2076,2063,2045,2032,2015,1997,1979,1962,1949,1935,1922,1909,1900,1896,1883,1874,1865,1852,1843,1834,1821,1808,1799,1786,1777,1764,1755,1742,1724,1711,1693,1676,1658,1645,1632,1619,1605,1592,1583,1575,1566,1561,1557,1557,1561,1570,1588,1610,1632,1654,1685,1711,1737,1764,1790,1821,1852,1883,1909,1927,1949,1971,1988,2006,2019,2028,2037,2045,2050,2058,2063,2058,2054,2045,2032,2015,2001,1984,1975,1966,1957,1949,1944,1940,1940,1935,1927,1927,1922,1922,1922,1922,1922,1922,1918,1913,1909,1909,1905,1905,1905,1905,1900,1896,1891,1891,1891,1891,1891,1891,1896,1896,1896,1896,1896,1896,1896,1896,1896,1896,1896,1896,1896,1896,1896,1896,1896,1896,1900,1909,1913,1918,1927,1931,1935,1944,1949,1957,1966,1971,1988,2006,2032,2054,2072,2094,2120,2151,2186,2217,2252,2287,2322,2358,2393,2419,2428,2437,2446,2450,2454,2454,2450,2441,2437,2424,2410,2393,2375,2358,2340,2322,2305,2287,2270,2243,2221,2199,2173,2155,2138,2116,2098,2076,2058,2041,2023,2001,1979,1957,1935,1913,1896,1878,1865,1852,1847,1839,1830,1825,1817,1812,1803,1795,1781,1773,1759,1742,1724,1711,1693,1680,1663,1645,1632,1619,1610,1601,1592,1583,1579,1575,1579,1579,1579,1583,1592,1601,1610,1619,1632,1649,1663,1685,1711,1733,1759,1790,1825,1865,1909,1953,1993,2037,2080,2124,2160,2182,2199,2212,2230,2248,2261,2274,2283,2287,2287,2287,2287,2278,2265,2252,2234,2217,2199,2186,2173,2164,2151,2142,2129,2116,2098,2085,2072,2054,2041,2019,2001,1979,1957,1935,1918,1905,1896,1878,1865,1847,1834,1817,1803,1786,1768,1755,1737,1729,1720,1711,1702,1685,1671,1658,1641,1627,1619,1610,1601,1592,1583,1575,1566,1557,1548,1539,1531,1526,1522,1517,1522,1526,1531,1539,1548,1561,1579,1601,1619,1636,1649,1671,1693,1720,1742,1768,1799,1825,1852,1878,1896,1918,1931,1940,1949,1957,1966,1975,1975,1971,1966,1957,1949,1940,1931,1918,1905,1891,1874,1856,1839,1821,1803,1786,1759,1737,1711,1685,1654,1636,1619,1601,1583,1570,1553,1535,1522,1504,1487,1469,1447,1430,1412,1403,1390,1381,1372,1364,1355,1355,1350,1350,1350,1350,1350,1350,1377,1416,1434,1443,1447,1452,1452,1452,1447,1447,1447,1447,1447,1452,1456,1460,1465,1473,1491,1509,1531,1553,1575,1601,1632,1663,1689,1720,1746,1781,1821,1861,1900,1935,1966,1997,2032,2067,2098,2120,2142,2164,2182,2190,2199,2199,2195,2186,2177,2168,2164,2155,2146,2138,2124,2116,2102,2089,2080,2067,2050,2037,2023,2006,1993,1975,1957,1940,1927,1913,1900,1887,1874,1861,1852,1839,1825,1812,1799,1786,1768,1755,1737,1720,1702,1689,1676,1663,1654,1645,1636,1632,1627,1619,1610,1597,1583,1570,1561,1553,1544,1535,1526,1522,1513,1504,1491,1482,1473,1465,1460,1456,1456,1460,1465,1473,1482,1487,1500,1513,1531,1553,1575,1597,1623,1654,1685,1715,1746,1777,1803,1830,1861,1887,1913,1931,1944,1957,1966,1975,1979,1988,1988,1988,1984,1984,1979,1975,1966,1957,1949,1935,1922,1909,1900,1891,1883,1874,1861,1852,1839,1825,1808,1795,1777,1759,1742,1724,1707,1698,1689,1680,1671,1667,1658,1649,1641,1636,1627,1619,1610,1605,1597,1592,1588,1579,1575,1566,1557,1548,1544,1535,1526,1517,1513,1504,1500,1495,1487,1478,1473,1465,1460,1456,1456,1456,1460,1465,1473,1482,1495,1517,1535,1557,1583,1605,1632,1663,1693,1724,1755,1786,1812,1839,1865,1891,1913,1927,1940,1949,1957,1957,1953,1949,1944,1940,1935,1935,1935,1935,1935,1935,1935,1931,1927,1913,1900,1883,1869,1852,1830,1812,1817,1834,1834,1817,1799,1777,1764,1742,1729,1715,1702,1689,1671,1654,1636,1614,1597,1570,1548,1531,1504,1487,1473,1465,1460,1456,1447,1434,1421,1403,1381,1364,1342,1320,1298,1280,1267,1249,1236,1232,1227,1223,1223,1223,1227,1236,1249,1267,1284,1302,1324,1350,1381,1416,1452,1491,1535,1583,1632,1685,1737,1781,1821,1865,1909,1953,1993,2032,2063,2089,2102,2120,2133,2146,2155,2164,2173,2182,2190,2190,2190,2190,2186,2186,2177,2173,2173,2168,2160,2151,2142,2129,2120,2111,2102,2094,2085,2080,2072,2058,2041,2028,2015,1997,1984,1966,1953,1940,1922,1909,1891,1874,1856,1843,1830,1821,1817,1808,1795,1781,1773,1759,1751,1742,1733,1729,1724,1724,1724,1724,1724,1724,1720,1715,1711,1715,1724,1733,1742,1751,1764,1781,1799,1817,1834,1856,1878,1905,1940,1979,2015,2054,2089,2116,2138,2164,2195,2230,2261,2287,2309,2327,2340,2349,2362,2366,2366,2358,2349,2340,2331,2322,2309,2300,2292,2278,2261,2239,2217,2199,2182,2160,2142,2124,2107,2089,2072,2054,2041,2028,2019,2010,2001,1988,1971,1953,1935,1913,1896,1874,1856,1839,1821,1808,1795,1781,1777,1773,1773,1768,1768,1764,1755,1746,1737,1729,1720,1711,1698,1693,1685,1676,1667,1663,1658,1658,1663,1671,1680,1689,1702,1715,1733,1755,1773,1795,1821,1852,1887,1927,1966,2006,2041,2076,2107,2133,2160,2186,2217,2252,2283,2314,2340,2362,2375,2388,2388,2384,2380,2371,2375,2384,2384,2380,2371,2366,2358,2349,2340,2331,2322,2309,2300,2287,2274,2261,2252,2239,2221,2204,2186,2168,2155,2142,2133,2124,2111,2102,2094,2080,2067,2054,2041,2023,2010,1997,1988,1979,1966,1957,1949,1935,1922,1913,1905,1896,1887,1878,1869,1861,1852,1847,1843,1834,1830,1821,1812,1803,1795,1790,1790,1786,1790,1799,1803,1812,1821,1834,1852,1874,1896,1918,1940,1971,1997,2023,2054,2080,2107,2129,2155,2173,2186,2195,2204,2212,2217,2217,2212,2204,2199,2186,2177,2168,2160,2146,2138,2129,2120,2111,2102,2094,2089,2080,2072,2067,2063,2054,2045,2037,2028,2023,2019,2010,2006,1997,1993,1984,1979,1971,1962,1953,1944,1935,1927,1922,1918,1918,1918,1918,1918,1918,1918,1918,1918,1918,1918,1918,1918,1918,1918,1918,1918,1918,1918,1918,1918,1918,1922,1927,1935,1949,1962,1975,1993,2010,2032,2054,2080,2111,2142,2168,2195,2221,2248,2274,2300,2327,2353,2380,2402,2424,2446,2472,2498,2525,2542,2564,2578,2582,2586,2586,2578,2573,2564,2551,2538,2520,2507,2494,2485,2468,2454,2441,2428,2410,2397,2384,2366,2353,2344,2336,2322,2305,2283,2265,2243,2221,2199,2186,2173,2160,2151,2138,2124,2116,2102,2094,2085,2076,2072,2063,2058,2050,2041,2032,2019,2006,1997,1984,1971,1957,1940,1927,1922,1918,1918,1913,1909,1905,1896,1887,1883,1887,1891,1896,1905,1913,1922,1935,1953,1966,1984,2010,2037,2072,2041,1979,1971,1993,2019,2050,2094,2138,2186,2226,2261,2292,2322,2349,2375,2388,2397,2402,2402,2402,2397,2388,2375,2366,2358,2344,2336,2318,2300,2283,2261,2243,2226,2208,2186,2164,2151,2138,2124,2116,2102,2085,2063,2045,2023,2006,1984,1966,1949,1940,1931,1918,1900,1883,1861,1843,1830,1821,1817,1808,1799,1790,1777,1759,1737,1720,1702,1689,1671,1654,1641,1627,1614,1605,1601,1597,1601,1605,1610,1614,1614,1619,1619,1619,1619,1623,1636,1654,1676,1702,1737,1773,1812,1856,1900,1940,1975,2006,2041,2080,2111,2142,2177,2208,2230,2243,2248,2252,2252,2248,2243,2234,2226,2217,2208,2195,2186,2177,2164,2146,2133,2111,2085,2063,2037,2010,1988,1962,1935,1913,1896,1874,1852,1830,1803,1781,1759,1742,1715,1689,1663,1641,1623,1610,1597,1583,1570,1557,1544,1531,1522,1509,1500,1491,1478,1473,1469,1465,1465,1465,1465,1460,1456,1456,1452,1447,1443,1443,1443,1447,1452,1460,1473,1491,1517,1544,1566,1597,1627,1663,1702,1742,1795,1847,1905,1957,2010,2067,2111,2155,2204,2252,2300,2353,2402,2446,2485,2525,2551,2569,2578,2578,2573,2564,2564,2564,2556,2542,2525,2507,2490,2468,2446,2428,2406,2384,2366,2344,2322,2305,2283,2265,2248,2234,2221,2204,2186,2168,2151,2129,2107,2089,2067,2045,2019,1997,1971,1949,1927,1913,1900,1887,1874,1861,1847,1830,1817,1799,1781,1764,1746,1729,1711,1693,1680,1663,1645,1623,1614,1605,1601,1597,1597,1592,1597,1601,1605,1605,1610,1619,1632,1645,1667,1689,1715,1746,1777,1812,1843,1883,1913,1944,1975,2015,2050,2089,2129,2164,2199,2234,2265,2292,2314,2327,2331,2331,2331,2331,2331,2331,2331,2327,2318,2305,2287,2270,2248,2230,2212,2195,2177,2160,2146,2129,2111,2094,2080,2067,2058,2050,2032,2019,1997,1975,1953,1927,1905,1883,1865,1852,1839,1830,1821,1812,1803,1795,1781,1773,1759,1746,1737,1724,1715,1702,1685,1667,1654,1641,1632,1619,1610,1597,1592,1588,1583,1583,1579,1583,1592,1597,1605,1610,1623,1636,1654,1671,1689,1715,1746,1777,1812,1847,1883,1913,1949,1993,2032,2076,2116,2155,2190,2221,2248,2270,2287,2296,2296,2296,2296,2287,2274,2261,2243,2226,2212,2195,2177,2160,2142,2120,2098,2076,2050,2023,1997,1971,1944,1922,1900,1887,1869,1856,1847,1834,1817,1799,1781,1764,1742,1720,1693,1671,1645,1623,1605,1592,1579,1557,1539,1517,1500,1487,1469,1456,1438,1416,1394,1372,1355,1346,1333,1324,1320,1315,1315,1315,1315,1315,1324,1333,1346,1355,1364,1377,1394,1416,1443,1469,1504,1539,1579,1614,1658,1702,1746,1786,1830,1874,1922,1975,2023,2076,2120,2164,2199,2234,2270,2296,2314,2331,2349,2362,2366,2375,2380,2384,2388,2393,2393,2393,2393,2384,2375,2362,2353,2340,2322,2305,2287,2270,2248,2226,2204,2182,2160,2142,2116,2094,2076,2054,2032,2019,2028,2045,2045,2037,2023,2010,1993,1979,1966,1957,1953,1944,1935,1927,1918,1909,1900,1887,1878,1869,1856,1843,1830,1817,1803,1786,1773,1759,1751,1742,1742,1742,1737,1742,1746,1759,1773,1790,1817,1843,1874,1909,1944,1975,2006,2041,2080,2116,2155,2195,2226,2261,2292,2327,2358,2380,2402,2415,2428,2437,2441,2441,2441,2437,2428,2419,2406,2393,2380,2366,2349,2336,2318,2300,2287,2270,2252,2234,2217,2204,2186,2173,2155,2138,2124,2111,2094,2076,2054,2032,2015,1993,1979,1971,1962,1953,1944,1935,1922,1913,1905,1891,1883,1869,1856,1839,1825,1808,1795,1786,1777,1764,1751,1737,1729,1720,1711,1702,1698,1693,1693,1698,1707,1711,1715,1720,1729,1742,1755,1773,1790,1817,1843,1878,1913,1944,1975,2010,2045,2085,2124,2160,2195,2230,2261,2292,2318,2336,2353,2362,2371,2375,2380,2380,2380,2380,2371,2362,2349,2331,2318,2300,2287,2270,2248,2226,2204,2177,2155,2133,2107,2085,2063,2041,2019,1997,1979,1962,1944,1931,1913,1891,1874,1861,1839,1821,1799,1777,1755,1737,1720,1707,1693,1680,1667,1654,1636,1614,1592,1566,1544,1522,1500,1487,1469,1452,1438,1421,1408,1403,1394,1394,1390,1390,1390,1399,1412,1425,1438,1456,1473,1491,1517,1548,1583,1623,1667,1711,1746,1790,1834,1883,1931,1975,2019,2058,2098,2138,2177,2204,2221,2239,2261,2278,2292,2309,2322,2331,2336,2340,2340,2344,2344,2349,2349,2344,2344,2340,2336,2331,2327,2314,2305,2296,2283,2274,2256,2243,2230,2221,2212,2199,2182,2164,2142,2120,2098,2076,2054,2037,2019,2006,1997,1988,1979,1975,1966,1957,1949,1940,1927,1918,1905,1896,1883,1874,1861,1852,1839,1825,1812,1799,1786,1777,1768,1768,1764,1764,1764,1768,1777,1790,1803,1825,1847,1878,1905,1935,1962,1988,2015,2041,2076,2111,2146,2182,2212,2243,2274,2305,2331,2349,2366,2375,2384,2388,2388,2388,2384,2375,2362,2349,2340,2331,2318,2305,2287,2274,2256,2234,2212,2190,2168,2146,2124,2102,2080,2063,2054,2041,2023,2010,1997,1984,1971,1953,1940,1927,1909,1896,1883,1869,1856,1843,1830,1817,1799,1786,1773,1768,1764,1759,1751,1746,1742,1737,1729,1720,1711,1698,1685,1671,1654,1641,1632,1623,1614,1605,1601,1601,1605,1614,1619,1632,1649,1676,1707,1737,1768,1799,1830,1856,1883,1913,1949,1984,2019,2050,2080,2111,2142,2168,2190,2212,2226,2230,2234,2234,2234,2230,2226,2217,2212,2204,2190,2182,2173,2160,2146,2129,2111,2089,2072,2050,2028,2006,1988,1979,1971,1957,1949,1940,1931,1918,1905,1887,1874,1861,1843,1825,1803,1786,1768,1755,1746,1737,1724,1715,1711,1698,1689,1676,1658,1641,1619,1597,1579,1561,1544,1531,1522,1509,1495,1482,1469,1452,1438,1425,1412,1403,1403,1403,1403,1403,1403,1412,1425,1443,1465,1491,1517,1544,1566,1583,1605,1627,1649,1671,1693,1715,1737,1755,1781,1817,1843,1861,1869,1874,1874,1865,1856,1843,1834,1825,1817,1808,1799,1790,1777,1768,1764,1755,1746,1742,1733,1729,1720,1711,1707,1698,1689,1685,1676,1671,1667,1658,1654,1645,1632,1623,1610,1605,1597,1597,1592,1592,1592,1592,1592,1592,1592,1592,1597,1597,1597,1597,1597,1592,1592,1592,1592,1592,1592,1592,1597,1592,1592,1592,1592,1592,1597,1605,1610,1619,1623,1632,1641,1654,1667,1689,1707,1729,1751,1777,1799,1825,1847,1878,1909,1940,1971,1997,2028,2050,2076,2094,2107,2116,2120,2124,2120,2116,2111,2102,2085,2067,2050,2037,2023,2006,1993,1979,1966,1953,1940,1918,1900,1883,1861,1843,1825,1812,1795,1781,1773,1759,1746,1733,1720,1707,1689,1676,1663,1649,1636,1623,1610,1601,1597,1588,1579,1570,1561,1561,1557,1553,1548,1539,1531,1517,1509,1500,1487,1473,1460,1447,1434,1425,1412,1399,1390,1386,1377,1377,1377,1381,1394,1403,1416,1434,1447,1469,1495,1522,1553,1583,1614,1645,1680,1715,1751,1781,1817,1843,1874,1900,1922,1940,1953,1966,1979,1984,1988,1993,1988,1979,1971,1962,1953,1940,1927,1909,1900,1887,1874,1856,1843,1830,1817,1808,1799,1795,1786,1777,1764,1746,1733,1724,1707,1693,1680,1667,1654,1641,1623,1610,1597,1583,1575,1570,1561,1553,1544,1539,1531,1531,1526,1526,1526,1517,1509,1495,1487,1478,1465,1456,1447,1443,1434,1425,1416,1408,1394,1381,1377,1372,1372,1372,1399,1447,1478,1504,1526,1544,1566,1583,1605,1623,1641,1663,1689,1720,1751,1781,1812,1843,1869,1900,1927,1953,1975,1988,2001,2010,2019,2019,2015,2006,1988,1975,1949,1927,1900,1869,1852,1834,1817,1790,1768,1751,1742,1733,1724,1720,1711,1698,1685,1671,1663,1654,1649,1645,1641,1636,1632,1627,1627,1623,1619,1614,1610,1610,1605,1597,1592,1588,1588,1588,1588,1588,1588,1588,1588,1588,1588,1592,1592,1592,1592,1592,1592,1592,1592,1597,1605,1619,1636,1654,1671,1689,1707,1724,1742,1764,1790,1821,1852,1887,1922,1962,1993,2019,2050,2080,2116,2146,2177,2208,2239,2265,2292,2309,2327,2336,2336,2336,2331,2327,2314,2305,2296,2287,2278,2265,2256,2243,2230,2217,2199,2182,2164,2142,2120,2102,2080,2063,2045,2032,2023,2015,2006,1997,1979,1962,1944,1922,1905,1887,1865,1847,1825,1808,1795,1786,1773,1759,1755,1751,1746,1742,1737,1737,1733,1729,1720,1715,1711,1702,1693,1680,1671,1663,1649,1641,1632,1627,1619,1610,1605,1605,1605,1605,1605,1610,1619,1636,1654,1671,1689,1715,1742,1768,1795,1821,1856,1896,1940,1984,2023,2063,2098,2138,2177,2212,2239,2261,2278,2296,2314,2318,2322,2322,2327,2327,2322,2318,2314,2309,2305,2296,2283,2265,2248,2230,2212,2195,2173,2155,2138,2120,2098,2085,2067,2054,2041,2032,2023,2010,2001,1993,1975,1957,1940,1922,1905,1891,1883,1874,1861,1852,1843,1834,1825,1812,1799,1786,1773,1764,1755,1751,1742,1733,1715,1698,1676,1658,1636,1614,1592,1570,1557,1548,1539,1526,1517,1513,1509,1509,1517,1535,1553,1575,1601,1636,1671,1702,1737,1768,1799,1834,1869,1905,1940,1971,2006,2032,2058,2072,2076,2085,2098,2102,2102,2098,2089,2080,2067,2058,2050,2037,2028,2023,2015,2006,1993,1984,1971,1962,1953,1940,1931,1927,1927,1927,1927,1922,1913,1905,1896,1887,1878,1865,1856,1847,1839,1834,1830,1830,1825,1821,1821,1821,1821,1830,1834,1843,1847,1852,1856,1856,1861,1865,1861,1852,1843,1834,1834,1834,1839,1843,1843,1843,1843,1847,1856,1865,1878,1887,1900,1922,1949,1975,2006,2037,2067,2098,2129,2160,2195,2234,2278,2318,2358,2397,2437,2472,2507,2538,2569,2600,2622,2639,2652,2665,2674,2670,2665,2657,2643,2635,2622,2604,2586,2564,2542,2512,2485,2459,2432,2406,2384,2362,2340,2318,2300,2287,2270,2256,2239,2221,2199,2182,2160,2138,2116,2098,2085,2072,2063,2054,2045,2037,2028,2019,2010,2001,1993,1984,1971,1962,1953,1944,1935,1927,1918,1909,1891,1874,1852,1834,1817,1803,1786,1773,1764,1759,1755,1755,1755,1764,1773,1781,1795,1812,1839,1869,1900,1935,1975,2019,2063,2102,2151,2208,2265,2322,2380,2419,2463,2507,2538,2564,2591,2613,2630,2643,2652,2648,2648,2648,2643,2635,2622,2613,2604,2591,2582,2569,2547,2529,2507,2481,2454,2428,2406,2388,2371,2353,2344,2336,2274,2195,2146,2111,2085,2063,2045,2028,2006,1988,1975,1962,1953,1940,1931,1922,1913,1905,1896,1887,1883,1874,1869,1869,1865,1856,1852,1843,1830,1817,1799,1786,1768,1755,1746,1737,1729,1724,1724,1724,1724,1729,1737,1746,1755,1773,1795,1817,1843,1869,1900,1931,1966,2001,2037,2072,2107,2142,2182,2217,2252,2283,2309,2331,2353,2380,2402,2419,2428,2437,2432,2428,2419,2406,2384,2366,2344,2322,2296,2270,2248,2226,2204,2186,2168,2146,2129,2107,2089,2072,2050,2028,2001,1984,1966,1949,1935,1922,1909,1887,1869,1852,1834,1817,1795,1768,1742,1715,1693,1671,1654,1641,1627,1614,1597,1583,1570,1561,1553,1539,1522,1509,1495,1487,1482,1478,1473,1473,1473,1478,1478,1482,1495,1509,1526,1544,1561,1583,1610,1641,1671,1698,1720,1751,1786,1830,1869,1918,1966,2019,2072,2124,2177,2226,2265,2296,2331,2366,2397,2428,2454,2476,2494,2503,2507,2507,2503,2494,2490,2485,2481,2481,2476,2472,2468,2459,2450,2441,2432,2424,2415,2397,2384,2362,2340,2318,2296,2274,2248,2226,2208,2186,2173,2160,2146,2138,2124,2116,2102,2089,2076,2063,2054,2045,2037,2028,2023,2015,2006,1997,1984,1971,1957,1944,1935,1922,1913,1905,1891,1878,1865,1861,1852,1843,1834,1825,1825,1830,1839,1847,1869,1891,1918,1940,1966,1997,2028,2067,2111,2160,2208,2252,2296,2344,2384,2424,2454,2476,2498,2516,2534,2556,2569,2573,2578,2578,2551,2512,2481,2459,2441,2428,2415,2397,2380,2366,2349,2327,2309,2287,2265,2243,2221,2204,2182,2164,2146,2133,2120,2107,2098,2085,2067,2054,2037,2023,2010,1997,1988,1975,1962,1944,1931,1918,1905,1891,1878,1865,1856,1847,1843,1834,1825,1817,1803,1790,1781,1768,1759,1751,1742,1737,1729,1724,1715,1707,1702,1702,1707,1715,1724,1737,1751,1773,1795,1821,1847,1878,1913,1949,1993,2041,2085,2124,2168,2204,2243,2283,2314,2344,2375,2402,2424,2437,2446,2450,2454,2454,2450,2446,2432,2424,2415,2406,2393,2384,2375,2366,2349,2336,2314,2296,2278,2256,2239,2217,2199,2177,2155,2138,2124,2116,2107,2094,2076,2063,2045,2028,2015,1997,1979,1962,1944,1931,1913,1900,1883,1869,1861,1852,1852,1847,1843,1839,1830,1821,1812,1808,1803,1795,1786,1777,1768,1764,1755,1751,1742,1737,1737,1746,1751,1759,1768,1777,1790,1808,1825,1843,1865,1883,1909,1940,1975,2010,2045,2080,2116,2146,2173,2199,2221,2243,2265,2287,2305,2327,2340,2353,2362,2366,2362,2358,2349,2336,2314,2292,2265,2239,2212,2186,2160,2138,2120,2098,2072,2050,2028,2006,1984,1966,1944,1927,1905,1883,1865,1856,1843,1834,1825,1817,1812,1803,1795,1786,1777,1773,1764,1764,1764,1764,1764,1759,1759,1755,1746,1742,1742,1737,1733,1729,1724,1720,1711,1711,1711,1711,1711,1720,1724,1733,1742,1755,1777,1799,1821,1843,1865,1891,1918,1944,1979,2019,2037,2037,2063,2107,2155,2208,2265,2318,2366,2415,2450,2485,2525,2564,2595,2626,2648,2661,2670,2670,2670,2657,2648,2635,2613,2595,2573,2551,2529,2507,2481,2459,2437,2415,2393,2371,2353,2336,2322,2309,2296,2278,2256,2230,2199,2168,2138,2102,2067,2041,2019,1997,1975,1949,1927,1909,1891,1874,1856,1834,1812,1790,1773,1755,1733,1715,1698,1680,1667,1658,1654,1649,1645,1636,1627,1619,1614,1605,1592,1583,1575,1570,1561,1557,1561,1566,1575,1588,1605,1627,1645,1667,1693,1724,1764,1808,1852,1896,1949,1993,2045,2085,2124,2168,2221,2274,2327,2375,2415,2450,2476,2503,2525,2547,2556,2560,2560,2560,2547,2534,2512,2494,2472,2450,2428,2402,2384,2366,2353,2331,2305,2278,2252,2221,2195,2168,2142,2116,2094,2067,2041,2023,2006,1988,1975,1957,1944,1927,1905,1883,1861,1847,1830,1817,1808,1799,1786,1777,1759,1746,1733,1715,1698,1680,1667,1654,1641,1632,1623,1614,1605,1597,1583,1575,1561,1553,1544,1544,1548,1553,1566,1588,1614,1641,1667,1689,1720,1755,1795,1843,1896,1953,2010,2058,2098,2142,2182,2226,2265,2305,2344,2375,2402,2424,2446,2459,2463,2459,2450,2432,2410,2393,2371,2358,2340,2318,2292,2261,2226,2195,2168,2133,2102,2067,2037,2010,1979,1953,1931,1905,1883,1861,1839,1821,1799,1781,1759,1733,1707,1680,1649,1614,1583,1548,1513,1487,1469,1447,1421,1399,1377,1359,1337,1320,1306,1289,1320,1372,1399,1412,1412,1408,1399,1394,1390,1386,1386,1381,1386,1390,1403,1416,1434,1452,1473,1495,1522,1544,1570,1601,1636,1671,1707,1742,1781,1821,1856,1900,1940,1984,2023,2063,2102,2142,2177,2204,2226,2243,2256,2270,2283,2296,2305,2309,2309,2309,2309,2309,2309,2300,2296,2283,2270,2261,2248,2239,2226,2217,2208,2195,2182,2164,2142,2124,2107,2089,2072,2054,2037,2023,2006,1993,1979,1966,1953,1940,1927,1918,1909,1905,1896,1891,1883,1874,1865,1856,1843,1830,1817,1803,1790,1781,1764,1751,1737,1729,1720,1711,1707,1707,1702,1698,1702,1707,1711,1715,1724,1729,1737,1746,1759,1781,1803,1834,1865,1896,1935,1966,1993,2028,2058,2098,2133,2168,2199,2230,2252,2270,2287,2300,2309,2309,2309,2309,2300,2296,2287,2274,2261,2248,2234,2221,2212,2199,2190,2182,2168,2151,2138,2120,2098,2080,2063,2050,2032,2015,1997,1984,1975,1962,1949,1935,1922,1909,1896,1883,1869,1861,1847,1839,1825,1812,1799,1781,1768,1755,1742,1737,1729,1724,1715,1707,1702,1698,1693,1685,1671,1663,1649,1641,1632,1623,1614,1610,1610,1610,1619,1623,1632,1645,1667,1689,1715,1742,1768,1795,1825,1856,1883,1909,1935,1966,1997,2028,2063,2098,2129,2164,2190,2212,2226,2239,2243,2239,2234,2230,2221,2221,2217,2212,2204,2195,2190,2182,2173,2160,2142,2120,2098,2076,2054,2032,2006,1984,1966,1944,1927,1909,1922,1944,1944,1935,1918,1900,1878,1861,1843,1825,1808,1786,1768,1751,1733,1715,1702,1689,1676,1658,1641,1619,1597,1579,1561,1548,1539,1535,1526,1517,1513,1509,1504,1504,1504,1504,1504,1504,1504,1513,1526,1539,1553,1566,1583,1601,1627,1654,1689,1724,1764,1799,1830,1865,1900,1944,1993,2041,2085,2133,2173,2217,2261,2300,2331,2353,2371,2375,2384,2384,2388,2388,2388,2388,2388,2388,2388,2384,2380,2366,2353,2340,2327,2318,2309,2300,2292,2283,2278,2270,2256,2243,2230,2212,2195,2177,2160,2146,2129,2111,2098,2085,2072,2063,2054,2045,2032,2023,2010,1997,1979,1971,1957,1949,1940,1927,1913,1900,1883,1869,1856,1843,1825,1817,1808,1799,1795,1790,1790,1790,1790,1790,1795,1799,1808,1817,1830,1843,1865,1891,1918,1953,1984,2015,2041,2063,2089,2120,2151,2186,2221,2261,2292,2322,2349,2371,2393,2406,2415,2424,2428,2424,2415,2402,2384,2371,2358,2349,2336,2327,2318,2309,2300,2287,2270,2256,2239,2226,2212,2199,2186,2173,2155,2138,2124,2102,2085,2072,2063,2050,2041,2028,2015,2006,1993,1984,1971,1957,1949,1940,1927,1913,1905,1891,1878,1865,1847,1834,1825,1817,1812,1812,1808,1803,1795,1790,1781,1773,1764,1759,1755,1759,1759,1764,1768,1773,1781,1795,1812,1825,1843,1865,1891,1918,1953,1984,2010,2037,2063,2094,2129,2164,2204,2239,2270,2300,2322,2344,2362,2375,2380,2384,2388,2388,2388,2384,2380,2366,2353,2340,2327,2318,2309,2300,2292,2283,2274,2265,2256,2243,2226,2208,2186,2168,2151,2133,2111,2094,2076,2063,2054,2045,2032,2023,2019,2010,1993,1979,1966,1949,1935,1918,1900,1883,1865,1847,1830,1812,1799,1786,1773,1755,1742,1729,1707,1685,1663,1645,1632,1619,1610,1601,1592,1583,1575,1566,1561,1557,1553,1557,1561,1566,1575,1592,1610,1632,1654,1680,1702,1729,1755,1781,1817,1852,1883,1918,1953,1988,2023,2050,2072,2080,2089,2098,2107,2116,2120,2116,2111,2107,2098,2089,2080,2072,2067,2063,2063,2063,2063,2058,2058,2058,2058,2058,2058,2058,2054,2054,2050,2050,2050,2050,2050,2050,2050,2050,2050,2050,2050,2050,2050,2050,2050,2050,2050,2054,2058,2058,2058,2058,2058,2058,2050,2045,2041,2037,2032,2019,2010,1997,1984,1975,1966,1966,1966,1962,1962,1966,1975,1984,2001,2019,2037,2058,2085,2107,2138,2173,2208,2243,2274,2300,2331,2358,2388,2419,2450,2476,2503,2520,2542,2560,2569,2573,2569,2569,2569,2560,2547,2534,2516,2498,2481,2463,2446,2428,2406,2388,2366,2349,2331,2318,2300,2287,2270,2256,2239,2221,2208,2190,2177,2164,2151,2133,2120,2098,2080,2063,2041,2023,2006,1988,1975,1962,1953,1940,1931,1922,1909,1896,1883,1869,1856,1843,1830,1812,1803,1795,1786,1777,1768,1759,1751,1742,1733,1724,1715,1711,1715,1720,1724,1733,1751,1768,1790,1817,1843,1874,1905,1940,1971,2001,2032,2067,2102,2146,2155,2151,2168,2195,2217,2243,2270,2292,2309,2327,2340,2349,2353,2358,2362,2362,2362,2358,2353,2344,2331,2318,2300,2287,2270,2252,2234,2217,2204,2190,2182,2173,2155,2138,2116,2098,2076,2054,2028,2001,1979,1953,1935,1918,1900,1878,1861,1839,1817,1799,1781,1764,1746,1729,1711,1693,1680,1667,1654,1641,1627,1619,1610,1592,1575,1553,1531,1509,1482,1465,1447,1430,1416,1408,1408,1408,1412,1412,1416,1425,1430,1434,1443,1456,1473,1495,1517,1544,1570,1605,1645,1685,1729,1777,1825,1874,1918,1962,2001,2045,2076,2098,2120,2138,2151,2160,2173,2182,2190,2195,2199,2199,2199,2199,2199,2199,2199,2199,2199,2199,2195,2190,2190,2186,2182,2177,2177,2168,2164,2160,2155,2151,2146,2146,2142,2138,2129,2120,2107,2094,2076,2063,2045,2028,2010,2001,1988,1971,1957,1944,1931,1918,1905,1891,1878,1861,1847,1834,1825,1817,1812,1808,1799,1795,1790,1790,1790,1790,1790,1790,1799,1812,1825,1839,1861,1887,1918,1944,1975,2001,2032,2063,2094,2133,2164,2195,2230,2261,2296,2322,2349,2366,2380,2388,2397,2402,2402,2402,2402,2402,2402,2397,2388,2375,2358,2344,2327,2309,2296,2278,2256,2239,2221,2204,2190,2177,2164,2155,2146,2129,2111,2094,2067,2045,2028,2006,1988,1966,1949,1931,1913,1900,1887,1874,1865,1856,1847,1839,1830,1825,1817,1808,1799,1786,1777,1764,1751,1737,1720,1702,1689,1680,1667,1663,1658,1649,1658,1676,1693,1702,1711,1720,1724,1724,1733,1746,1764,1790,1821,1852,1883,1913,1944,1975,2006,2041,2080,2120,2160,2199,2234,2270,2296,2318,2331,2344,2353,2358,2362,2362,2362,2362,2362,2353,2344,2340,2327,2314,2296,2278,2261,2248,2234,2221,2208,2195,2177,2164,2151,2133,2120,2107,2089,2067,2050,2032,2010,1993,1975,1962,1944,1931,1913,1900,1887,1874,1861,1847,1834,1817,1799,1781,1764,1742,1724,1711,1693,1685,1671,1649,1632,1614,1592,1575,1561,1553,1539,1531,1522,1517,1509,1504,1495,1491,1482,1478,1473,1478,1487,1500,1522,1544,1566,1588,1614,1641,1676,1711,1742,1777,1808,1843,1878,1913,1944,1975,1997,2015,2032,2045,2058,2067,2076,2085,2085,2085,2080,2080,2076,2076,2072,2067,2058,2054,2045,2037,2028,2019,2010,2001,1993,1988,1984,1984,1984,1984,1984,1984,1984,1984,1984,1984,1984,1984,1984,1979,1975,1971,1971,1966,1966,1966,1966,1966,1966,1957,1949,1935,1927,1918,1905,1891,1874,1856,1839,1825,1817,1803,1795,1790,1786,1786,1786,1786,1799,1812,1825,1843,1856,1878,1900,1931,1957,1988,2019,2050,2080,2111,2146,2177,2208,2230,2256,2278,2300,2318,2336,2353,2362,2362,2362,2362,2362,2353,2340,2327,2314,2296,2278,2261,2248,2239,2226,2212,2199,2186,2173,2160,2142,2129,2111,2098,2080,2063,2041,2023,2006,1993,1975,1962,1944,1931,1922,1909,1900,1887,1874,1861,1852,1843,1825,1812,1795,1777,1759,1751,1737,1729,1720,1711,1707,1698,1685,1676,1667,1658,1649,1641,1632,1619,1614,1614,1614,1619,1623,1632,1641,1649,1658,1667,1685,1707,1737,1773,1808,1843,1874,1905,1944,1984,2028,2072,2116,2160,2199,2234,2270,2296,2318,2336,2344,2344,2344,2344,2344,2344,2340,2336,2322,2309,2300,2287,2278,2270,2261,2248,2230,2212,2195,2177,2160,2142,2124,2102,2080,2058,2037,2023,2010,1997,1984,1975,1962,1953,1944,1927,1913,1896,1878,1861,1847,1830,1812,1795,1777,1764,1751,1742,1733,1729,1720,1711,1702,1698,1689,1685,1676,1667,1658,1649,1641,1632,1619,1610,1605,1601,1601,1605,1614,1623,1632,1645,1663,1689,1711,1737,1759,1790,1821,1847,1883,1913,1944,1971,1997,2028,2054,2080,2102,2120,2138,2146,2155,2164,2168,2164,2160,2151,2142,2124,2111,2089,2067,2045,2028,2010,1993,1975,1957,1935,1909,1883,1856,1830,1803,1777,1755,1729,1715,1702,1685,1671,1658,1649,1641,1632,1619,1605,1588,1579,1566,1561,1553,1548,1539,1531,1522,1517,1513,1509,1500,1491,1482,1473,1469,1465,1460,1456,1456,1456,1456,1456,1460,1469,1478,1487,1495,1504,1513,1526,1544,1570,1597,1632,1671,1711,1751,1795,1843,1896,1944,1984,2028,2072,2116,2160,2208,2248,2287,2327,2362,2388,2415,2428,2432,2437,2437,2437,2437,2432,2424,2406,2388,2371,2353,2336,2318,2305,2292,2283,2270,2261,2252,2234,2217,2199,2177,2151,2129,2111,2089,2072,2054,2037,2023,2015,2001,1988,1971,1953,1935,1918,1896,1878,1852,1830,1812,1795,1777,1759,1742,1729,1720,1711,1702,1693,1689,1685,1680,1671,1663,1654,1645,1636,1627,1619,1610,1601,1597,1592,1592,1597,1601,1610,1619,1627,1636,1649,1671,1693,1720,1742,1764,1786,1817,1852,1887,1931,1975,2019,2067,2111,2151,2186,2217,2239,2256,2278,2296,2314,2327,2331,2336,2336,2336,2331,2322,2314,2300,2292,2283,2274,2261,2243,2226,2204,2186,2164,2142,2124,2107,2089,2076,2054,2037,2019,1997,1984,1971,1953,1940,1927,1913,1900,1883,1869,1852,1843,1830,1817,1808,1795,1781,1768,1755,1746,1737,1729,1724,1715,1707,1698,1689,1680,1671,1663,1654,1645,1636,1627,1623,1614,1610,1601,1597,1597,1605,1610,1619,1632,1649,1671,1693,1720,1746,1773,1808,1843,1883,1931,1975,2015,2054,2094,2133,2168,2204,2230,2252,2274,2292,2309,2327,2331,2331,2327,2314,2305,2292,2283,2274,2265,2256,2248,2234,2217,2195,2173,2146,2120,2094,2067,2041,2019,1997,1979,1962,1944,1927,1909,1891,1874,1856,1839,1817,1790,1768,1751,1733,1715,1693,1676,1654,1636,1614,1588,1566,1544,1522,1504,1491,1478,1465,1452,1434,1416,1399,1377,1355,1337,1320,1306,1302,1302,1302,1302,1306,1315,1333,1346,1364,1381,1403,1430,1456,1482,1509,1548,1588,1632,1676,1724,1777,1830,1883,1935,1984,2028,2063,2094,2151,2221,2270,2305,2336,2362,2380,2397,2410,2424,2432,2441,2441,2441,2437,2437,2437,2437,2432,2424,2415,2406,2397,2388,2384,2375,2366,2358,2349,2340,2331,2318,2300,2283,2265,2243,2226,2204,2182,2160,2138,2120,2102,2085,2072,2063,2054,2045,2037,2028,2019,2010,2006,1997,1993,1984,1979,1966,1953,1940,1922,1905,1891,1874,1865,1861,1856,1856,1861,1861,1865,1865,1869,1874,1887,1900,1918,1935,1962,1984,2015,2045,2076,2111,2142,2177,2212,2252,2292,2331,2362,2388,2415,2446,2468,2485,2503,2516,2525,2525,2525,2520,2507,2494,2485,2472,2459,2446,2428,2410,2393,2375,2362,2344,2327,2309,2287,2270,2252,2230,2212,2195,2173,2155,2138,2124,2111,2098,2085,2072,2058,2045,2032,2015,2001,1993,1979,1971,1957,1949,1935,1922,1909,1896,1887,1878,1874,1865,1861,1852,1843,1839,1830,1817,1808,1795,1790,1786,1777,1768,1764,1759,1759,1764,1773,1781,1803,1825,1856,1883,1905,1935,1966,2001,2037,2076,2111,2151,2190,2234,2274,2314,2344,2371,2397,2419,2437,2454,2472,2485,2498,2503,2503,2498,2490,2476,2463,2446,2428,2410,2393,2380,2362,2344,2327,2305,2287,2274,2261,2248,2234,2221,2204,2186,2168,2146,2129,2111,2094,2076,2058,2041,2028,2015,1997,1984,1962,1935,1905,1878,1856,1830,1812,1799,1781,1773,1768,1759,1746,1729,1711,1693,1676,1658,1641,1623,1610,1597,1588,1579,1570,1561,1553,1548,1544,1539,1539,1539,1548,1561,1553,1535,1531,1535,1553,1575,1605,1641,1680,1720,1759,1799,1843,1887,1927,1962,2001,2037,2072,2102,2129,2155,2177,2195,2204,2217,2221,2226,2226,2226,2226,2226,2221,2212,2208,2199,2190,2182,2173,2168,2160,2155,2155,2151,2151,2146,2138,2133,2124,2120,2120,2111,2107,2098,2089,2085,2076,2067,2058,2050,2045,2037,2028,2015,2001,1988,1975,1966,1957,1953,1944,1935,1922,1909,1891,1878,1861,1843,1830,1812,1799,1790,1786,1781,1781,1781,1790,1799,1812,1830,1847,1865,1891,1918,1944,1975,2006,2041,2076,2111,2146,2177,2212,2248,2278,2309,2331,2349,2366,2388,2402,2406,2410,2410,2402,2397,2388,2380,2366,2358,2344,2327,2314,2305,2292,2283,2274,2256,2239,2221,2204,2186,2173,2155,2142,2124,2107,2089,2072,2054,2037,2019,2006,1988,1971,1957,1944,1927,1909,1896,1878,1861,1847,1834,1817,1803,1790,1777,1768,1764,1759,1751,1742,1737,1729,1724,1715,1707,1702,1693,1685,1676,1667,1663,1663,1658,1658,1663,1667,1676,1685,1693,1711,1729,1751,1768,1790,1817,1847,1878,1913,1949,1993,2032,2076,2116,2160,2199,2234,2265,2296,2322,2349,2366,2384,2402,2406,2410,2410,2406,2397,2388,2375,2362,2344,2327,2314,2305,2292,2274,2252,2234,2212,2195,2177,2160,2138,2120,2098,2076,2058,2045,2032,2019,2010,1997,1984,1971,1962,1949,1935,1927,1913,1905,1891,1878,1861,1843,1830,1812,1799,1786,1777,1768,1759,1751,1733,1711,1693,1680,1667,1654,1636,1627,1619,1614,1605,1597,1597,1597,1597,1601,1605,1614,1623,1636,1654,1676,1702,1733,1764,1799,1839,1883,1931,1984,2028,2072,2107,2146,2173,2199,2230,2261,2292,2314,2327,2331,2331,2322,2314,2305,2287,2270,2252,2234,2217,2195,2177,2155,2133,2111,2085,2058,2037,2015,1993,1971,1949,1922,1896,1869,1843,1817,1790,1759,1733,1707,1676,1649,1627,1605,1583,1557,1531,1509,1491,1478,1465,1452,1443,1430,1425,1425,1421,1421,1416,1416,1416,1416,1416,1416,1412,1412,1408,1412,1416,1416,1416,1416,1416,1421,1425,1438,1452,1465,1473,1491,1509,1531,1553,1583,1623,1671,1720,1773,1830,1887,1949,2006,2063,2124,2177,2221,2270,2322,2371,2415,2454,2490,2525,2551,2569,2582,2586,2586,2586,2582,2573,2560,2547,2529,2507,2485,2454,2428,2397,2366,2344,2318,2300,2278,2256,2239,2221,2199,2186,2168,2155,2138,2120,2098,2080,2058,2037,2019,2001,1979,1966,1953,1940,1927,1909,1891,1874,1861,1843,1825,1808,1790,1773,1755,1746,1733,1720,1702,1685,1671,1658,1645,1632,1623,1614,1605,1597,1588,1588,1592,1597,1605,1623,1641,1663,1689,1715,1742,1777,1808,1847,1883,1927,1971,2015,2054,2089,2129,2173,2217,2256,2292,2318,2340,2362,2380,2393,2397,2402,2402,2402,2402,2393,2384,2371,2353,2336,2322,2309,2296,2283,2270,2252,2234,2217,2199,2182,2160,2142,2124,2107,2085,2067,2045,2015,1979,1953,1935,1918,1900,1887,1869,1856,1839,1825,1808,1795,1777,1764,1755,1742,1733,1724,1720,1720,1715,1711,1707,1698,1693,1685,1676,1667,1654,1645,1632,1623,1619,1610,1601,1597,1601,1605,1610,1619,1623,1636,1654,1671,1698,1724,1751,1781,1808,1839,1874,1913,1944,1975,2006,2037,2072,2102,2133,2164,2186,2208,2226,2239,2252,2256,2256,2256,2252,2243,2230,2217,2208,2199,2190,2186,2177,2168,2160,2146,2124,2107,2085,2063,2041,2019,1997,1979,1962,1949,1927,1905,1883,1856,1830,1808,1781,1759,1742,1724,1711,1698,1689,1680,1667,1658,1654,1641,1627,1610,1592,1570,1553,1535,1517,1500,1482,1460,1443,1430,1416,1399,1386,1372,1355,1342,1324,1311,1298,1289,1284,1284,1289,1293,1306,1320,1333,1350,1377,1408,1443,1478,1522,1570,1614,1658,1702,1746,1795,1843,1891,1935,1975,2006,2037,2058,2076,2085,2094,2102,2107,2111,2111,2111,2111,2111,2111,2111,2111,2111,2107,2098,2094,2094,2089,2085,2085,2080,2076,2067,2063,2054,2045,2041,2032,2019,2006,1993,1979,1966,1957,1944,1931,1913,1900,1883,1869,1856,1843,1830,1817,1803,1786,1773,1755,1742,1733,1720,1702,1689,1680,1676,1667,1663,1654,1645,1641,1641,1636,1632,1636,1641,1649,1654,1663,1671,1689,1707,1724,1742,1764,1786,1812,1843,1869,1900,1927,1949,1971,1997,2019,2041,2063,2085,2107,2124,2138,2151,2160,2164,2168,2164,2160,2151,2146,2182,2239,2256,2261,2252,2234,2217,2199,2182,2160,2142,2124,2107,2085,2063,2045,2028,2010,1993,1971,1953,1935,1918,1905,1891,1878,1865,1852,1834,1817,1803,1786,1773,1764,1755,1746,1737,1729,1720,1707,1698,1685,1671,1663,1654,1641,1632,1623,1610,1601,1592,1588,1579,1575,1570,1561,1557,1557,1553,1557,1561,1570,1583,1601,1614,1632,1654,1676,1702,1733,1764,1799,1839,1874,1900,1927,1953,1984,2010,2037,2058,2076,2094,2111,2124,2133,2138,2138,2138,2129,2124,2116,2102,2094,2080,2063,2050,2037,2019,2006,1997,1979,1962,1940,1927,1909,1896,1878,1865,1847,1834,1817,1803,1790,1773,1759,1742,1720,1707,1689,1676,1667,1658,1649,1641,1632,1623,1610,1597,1583,1575,1566,1561,1548,1535,1517,1500,1478,1456,1443,1430,1412,1399,1381,1368,1355,1346,1337,1328,1320,1315,1315,1324,1328,1337,1350,1372,1390,1412,1430,1447,1460,1478,1491,1509,1522,1539,1557,1579,1601,1619,1632,1649,1663,1676,1680,1680,1676,1676,1676,1671,1663,1658,1649,1641,1632,1623,1619,1614,1605,1601,1601,1605,1605,1605,1605,1601,1597,1592,1583,1575,1566,1553,1544,1539,1535,1522,1513,1509,1500,1495,1487,1482,1478,1473,1469,1469,1469,1473,1473,1478,1482,1482,1482,1482,1482,1482,1482,1482,1482,1487,1487,1482,1482,1478,1478,1478,1478,1478,1478,1478,1478,1478,1482,1491,1500,1517,1531,1548,1570,1592,1614,1636,1663,1685,1707,1764,1839,1896,1940,1975,2006,2028,2050,2063,2076,2080,2080,2080,2076,2067,2058,2054,2045,2037,2028,2015,2006,1988,1975,1957,1935,1918,1905,1883,1865,1847,1834,1821,1812,1803,1790,1781,1773,1759,1751,1746,1737,1729,1720,1711,1702,1693,1689,1680,1671,1663,1649,1641,1636,1632,1623,1614,1605,1597,1588,1579,1570,1561,1557,1548,1539,1535,1535,1531,1522,1517,1513,1513,1509,1509,1509,1513,1513,1522,1526,1539,1548,1553,1566,1575,1592,1614,1636,1667,1693,1724,1755,1781,1812,1839,1861,1887,1909,1931,1953,1975,1988,2001,2010,2019,2028,2028,2023,2019,2015,2010,2006,1997,1993,1984,1975,1966,1953,1944,1935,1922,1909,1891,1883,1869,1861,1852,1839,1830,1821,1812,1803,1795,1781,1773,1768,1759,1751,1742,1737,1729,1720,1711,1707,1702,1698,1693,1685,1680,1671,1663,1658,1649,1641,1632,1619,1601,1592,1583,1579,1579,1575,1575,1570,1570,1570,1575,1575,1579,1579,1579,1583,1588,1592,1601,1605,1614,1627,1645,1658,1671,1689,1707,1724,1737,1755,1768,1786,1799,1817,1830,1843,1856,1869,1878,1883,1883,1883,1883,1874,1869,1856,1839,1825,1817,1803,1790,1777,1764,1746,1737,1724,1715,1702,1685,1676,1667,1658,1649,1636,1623,1610,1597,1588,1583,1579,1579,1575,1570,1566,1561,1566,1570,1575,1579,1579,1579,1579,1579,1579,1579,1579,1579,1579,1579,1579,1579,1575,1575,1575,1579,1579,1579,1579,1579,1583,1592,1605,1619,1632,1649,1671,1698,1724,1751,1786,1825,1869,1913,1957,2006,2054,2111,2168,2230,2287,2331,2366,2406,2441,2472,2503,2534,2560,2591,2613,2626,2635,2639,2639,2630,2622,2604,2591,2582,2569,2560,2547,2534,2516,2494,2472,2450,2432,2410,2388,2371,2358,2344,2336,2327,2314,2305,2292,2278,2270,2256,2239,2221,2204,2186,2164,2138,2107,2076,2050,2023,2006,1993,1984,1979,1979,1979,1979,1979,1979,1975,1971,1966,1957,1949,1944,1940,1931,1913,1900,1883,1869,1861,1856,1852,1852,1852,1852,1852,1856,1861,1869,1883,1905,1927,1949,1971,1993,2019,2054,2089,2124,2155,2190,2234,2287,2344,2397,2446,2490,2529,2564,2595,2626,2648,2670,2687,2696,2701,2705,2705,2705,2705,2701,2692,2674,2657,2639,2626,2608,2586,2564,2547,2525,2503,2481,2459,2437,2410,2388,2371,2362,2353,2340,2327,2318,2305,2292,2278,2265,2252,2239,2226,2212,2204,2199,2186,2173,2164,2151,2138,2124,2111,2098,2085,2072,2063,2050,2045,2032,2023,2006,1993,1979,1966,1957,1949,1944,1940,1944,1953,1971,1984,1997,2010,2023,2037,2050,2063,2089,2120,2155,2195,2239,2283,2327,2375,2428,2472,2507,2542,2573,2600,2626,2652,2665,2674,2679,2679,2674,2661,2643,2626,2613,2595,2573,2551,2525,2498,2476,2454,2432,2410,2388,2371,2358,2340,2318,2296,2270,2248,2221,2195,2173,2151,2120,2094,2063,2032,2001,1979,1962,1883,1777,1711,1667,1645,1636,1627,1623,1619,1619,1619,1619,1619,1619,1619,1619,1619,1623,1627,1627,1632,1632,1632,1632,1632,1632,1627,1623,1623,1623,1636,1654,1676,1698,1729,1764,1799,1839,1891,1949,2010,2072,2133,2182,2230,2292,2362,2432,2507,2578,2643,2709,2775,2837,2885,2925,2951,2969,2982,2987,2987,2982,2969,2960,2947,2934,2921,2907,2890,2872,2855,2828,2797,2767,2740,2718,2696,2670,2652,2630,2604,2586,2569,2556,2538,2525,2507,2494,2481,2463,2441,2419,2397,2380,2358,2336,2314,2292,2270,2243,2221,2195,2177,2164,2151,2138,2124,2111,2098,2089,2080,2067,2050,2028,2006,1988,1971,1953,1940,1927,1913,1900,1891,1887,1883,1887,1891,1905,1913,1935,1962,1997,2032,2076,2120,2164,2204,2252,2300,2353,2406,2454,2507,2551,2591,2630,2670,2709,2745,2767,2793,2815,2837,2850,2868,2872,2872,2863,2855,2841,2828,2815,2802,2789,2775,2758,2740,2718,2696,2674,2648,2622,2600,2578,2564,2551,2534,2520,2503,2481,2454,2428,2402,2375,2349,2327,2309,2296,2278,2256,2239,2217,2195,2182,2173,2164,2160,2155,2146,2133,2124,2111,2107,2094,2080,2072,2058,2045,2032,2019,2006,1993,1979,1971,1966,1962,1966,1971,1984,1993,2006,2023,2045,2076,2111,2146,2182,2208,2243,2283,2331,2380,2432,2481,2534,2582,2626,2670,2718,2767,2806,2837,2872,2903,2925,2943,2956,2956,2951,2947,2943,2938,2929,2921,2907,2885,2859,2824,2789,2753,2617,2432,2331,2274,2230,2199,2182,2168,2155,2142,2129,2116,2098,2076,2058,2037,2015,1993,1971,1953,1935,1918,1896,1874,1856,1839,1821,1799,1777,1759,1733,1707,1680,1663,1641,1623,1605,1592,1579,1561,1544,1526,1513,1504,1487,1478,1469,1469,1469,1469,1469,1469,1469,1473,1482,1495,1504,1517,1539,1561,1588,1619,1649,1689,1737,1786,1830,1874,1918,1962,2001,2045,2085,2116,2142,2168,2190,2208,2226,2243,2252,2261,2265,2261,2252,2243,2234,2226,2212,2204,2190,2182,2173,2168,2168,2164,2164,2164,2164,2164,2164,2168,2168,2168,2164,2164,2164,2164,2164,2164,2164,2164,2164,2164,2164,2164,2164,2164,2164,2164,2164,2164,2164,2160,2155,2151,2138,2120,2107,2085,2067,2054,2037,2023,2010,2001,1993,1988,1984,1984,1984,1984,1993,2010,2028,2050,2067,2089,2116,2146,2177,2199,2226,2256,2292,2327,2362,2402,2446,2485,2520,2551,2578,2604,2622,2635,2643,2652,2657,2657,2657,2657,2657,2657,2648,2630,2613,2591,2573,2547,2525,2507,2494,2481,2463,2441,2419,2402,2384,2362,2349,2336,2322,2309,2296,2274,2252,2226,2199,2182,2164,2146,2129,2111,2094,2076,2058,2037,2019,2006,1997,1984,1971,1962,1949,1940,1935,1927,1918,1909,1891,1874,1856,1843,1830,1817,1808,1795,1790,1790,1790,1795,1799,1808,1817,1825,1834,1852,1869,1887,1909,1931,1957,1984,2023,2063,2102,2142,2177,2217,2261,2314,2366,2415,2459,2494,2468,2415,2393,2393,2402,2415,2424,2424,2424,2415,2406,2397,2388,2380,2362,2353,2344,2327,2314,2300,2287,2274,2256,2243,2230,2217,2199,2190,2177,2164,2142,2124,2107,2089,2076,2063,2050,2037,2028,2019,2010,2001,1993,1984,1971,1962,1949,1935,1927,1913,1905,1896,1883,1869,1856,1839,1821,1803,1790,1777,1768,1759,1751,1742,1733,1724,1720,1711,1707,1698,1689,1689,1693,1698,1707,1715,1724,1737,1751,1764,1781,1808,1839,1869,1905,1935,1971,2006,2037,2063,2089,2102,2120,2138,2146,2160,2164,2164,2155,2151,2142,2133,2124,2111,2098,2085,2067,2054,2045,2041,2032,2023,2010,2001,1988,1979,1971,1966,1966,1962,1962,1962,1957,1953,1944,1935,1922,1913,1905,1896,1887,1883,1874,1865,1861,1861,1856,1856,1856,1856,1856,1861,1865,1865,1865,1865,1865,1865,1865,1861,1861,1856,1856,1856,1856,1856,1856,1861,1865,1869,1883,1896,1913,1927,1944,1962,1979,1997,2019,2041,2063,2080,2102,2129,2151,2182,2217,2252,2287,2314,2344,2375,2402,2424,2441,2454,2472,2490,2507,2520,2529,2534,2534,2534,2534,2525,2512,2498,2481,2463,2446,2428,2410,2393,2375,2358,2340,2318,2300,2283,2270,2252,2234,2217,2204,2186,2168,2151,2133,2111,2089,2072,2054,2045,2037,2032,2028,2019,2010,2001,1988,1979,1971,1966,1957,1949,1935,1927,1918,1905,1891,1878,1865,1852,1839,1825,1812,1795,1781,1773,1764,1759,1759,1759,1759,1759,1707,1632,1601,1597,1605,1623,1636,1654,1685,1715,1751,1790,1834,1878,1927,1975,2023,2063,2107,2138,2164,2195,2226,2252,2274,2296,2314,2331,2340,2344,2344,2344,2336,2322,2305,2292,2278,2261,2243,2226,2204,2186,2168,2155,2142,2124,2107,2089,2080,2063,2045,2032,2015,1997,1984,1962,1944,1927,1905,1887,1869,1856,1839,1825,1812,1799,1786,1773,1755,1746,1729,1720,1707,1693,1676,1663,1649,1632,1614,1592,1575,1561,1553,1548,1548,1544,1544,1535,1531,1526,1531,1535,1539,1544,1553,1570,1588,1605,1623,1641,1658,1680,1707,1742,1781,1817,1852,1891,1922,1953,1984,2010,2032,2063,2089,2120,2142,2160,2168,2168,2168,2164,2155,2146,2138,2129,2116,2102,2089,2072,2054,2037,2015,1993,1971,1944,1913,1887,1865,1847,1825,1808,1786,1768,1746,1729,1702,1676,1645,1619,1592,1575,1553,1535,1522,1509,1495,1478,1465,1452,1438,1430,1416,1412,1403,1394,1390,1390,1386,1386,1381,1381,1377,1377,1372,1372,1368,1368,1364,1364,1364,1372,1381,1390,1403,1425,1452,1482,1509,1544,1575,1605,1641,1680,1720,1768,1821,1874,1927,1979,2041,2094,2138,2173,2212,2256,2296,2336,2375,2406,2432,2454,2468,2472,2476,2472,2459,2446,2424,2406,2388,2366,2349,2327,2305,2287,2265,2243,2226,2204,2186,2173,2160,2151,2138,2129,2120,2107,2094,2080,2063,2045,2032,2015,1997,1975,1953,1931,1900,1878,1856,1839,1830,1830,1830,1825,1821,1812,1799,1786,1773,1755,1737,1720,1702,1689,1671,1658,1649,1636,1623,1619,1619,1614,1614,1614,1614,1614,1619,1623,1627,1636,1649,1663,1680,1698,1720,1742,1773,1803,1839,1874,1909,1944,1975,2006,2041,2076,2116,2146,2173,2190,2212,2230,2248,2265,2274,2278,2278,2278,2274,2265,2252,2243,2234,2221,2212,2199,2186,2177,2164,2155,2146,2138,2120,2102,2089,2076,2063,2050,2037,2023,2015,2001,1984,1971,1953,1931,1913,1891,1874,1856,1843,1830,1821,1812,1799,1790,1781,1773,1764,1755,1746,1737,1724,1711,1693,1676,1658,1649,1641,1632,1623,1614,1610,1605,1601,1601,1605,1610,1614,1614,1614,1614,1623,1632,1645,1658,1676,1698,1724,1755,1786,1821,1861,1900,1927,1953,1984,2019,2058,2098,2129,2155,2173,2190,2204,2208,2212,2208,2208,2208,2204,2195,2186,2173,2164,2155,2146,2133,2120,2102,2080,2058,2037,2010,1984,1957,1927,1905,1883,1865,1847,1834,1821,1808,1799,1786,1773,1755,1737,1715,1689,1667,1641,1623,1605,1592,1575,1566,1553,1539,1526,1509,1491,1469,1447,1421,1403,1381,1368,1355,1346,1342,1337,1337,1337,1337,1342,1342,1342,1346,1350,1364,1377,1399,1421,1443,1469,1495,1522,1557,1597,1632,1671,1711,1759,1812,1856,1896,1935,1979,2023,2067,2107,2146,2182,2208,2230,2248,2265,2274,2274,2274,2274,2274,2274,2278,2283,2287,2292,2292,2292,2283,2270,2256,2243,2234,2217,2204,2190,2177,2190,2212,2212,2204,2190,2173,2155,2142,2124,2116,2102,2089,2076,2058,2045,2028,2019,2010,2001,1997,1993,1984,1979,1971,1966,1953,1944,1935,1927,1918,1909,1905,1896,1887,1874,1861,1852,1847,1839,1830,1825,1825,1825,1830,1839,1847,1861,1874,1887,1905,1931,1962,1988,2019,2050,2080,2116,2146,2173,2199,2226,2252,2283,2309,2331,2349,2366,2380,2393,2397,2402,2402,2402,2397,2384,2371,2358,2344,2327,2314,2296,2283,2265,2256,2248,2239,2230,2221,2208,2190,2177,2168,2151,2138,2120,2107,2089,2076,2058,2041,2023,2015,2006,1997,1988,1979,1971,1962,1953,1944,1940,1935,1927,1922,1913,1905,1891,1883,1869,1852,1839,1821,1808,1795,1781,1777,1773,1768,1764,1764,1764,1764,1768,1768,1768,1773,1781,1786,1799,1812,1825,1843,1869,1896,1927,1957,1993,2023,2058,2094,2124,2151,2182,2212,2239,2261,2278,2296,2309,2318,2322,2327,2327,2327,2322,2318,2314,2300,2287,2274,2265,2252,2243,2239,2230,2221,2212,2204,2199,2190,2182,2173,2164,2155,2142,2133,2116,2098,2080,2063,2050,2032,2019,2010,2001,1993,1979,1966,1953,1940,1927,1918,1909,1900,1896,1887,1878,1865,1852,1839,1821,1799,1777,1759,1742,1724,1711,1698,1680,1667,1654,1641,1632,1623,1619,1619,1623,1632,1641,1645,1658,1667,1685,1707,1729,1746,1764,1781,1799,1817,1830,1847,1865,1887,1913,1940,1962,1984,2001,2010,2023,2032,2023,2006,1993,1979,1971,1962,1957,1953,1953,1949,1949,1949,1949,1949,1949,1949,1949,1949,1949,1949,1949,1949,1944,1940,1931,1922,1909,1900,1896,1896,1891,1891,1891,1891,1891,1891,1891,1891,1896,1896,1900,1900,1905,1913,1913,1918,1922,1927,1931,1931,1931,1931,1931,1931,1931,1931,1931,1935,1944,1949,1949,1949,1949,1949,1953,1957,1962,1971,1979,1984,1997,2019,2041,2063,2089,2120,2155,2190,2221,2248,2278,2300,2322,2344,2371,2397,2419,2441,2454,2463,2468,2468,2468,2468,2459,2450,2441,2432,2415,2402,2384,2366,2344,2327,2305,2283,2261,2243,2221,2204,2186,2173,2155,2142,2124,2111,2094,2080,2067,2050,2032,2015,2001,1979,1962,1949,1935,1927,1913,1905,1891,1883,1874,1865,1856,1847,1839,1821,1808,1790,1777,1764,1746,1733,1715,1702,1689,1680,1676,1671,1663,1663,1658,1654,1658,1663,1671,1680,1693,1711,1724,1737,1755,1781,1812,1843,1874,1909,1940,1975,2010,2045,2080,2107,2133,2160,2190,2212,2230,2248,2265,2283,2300,2314,2327,2331,2331,2327,2318,2309,2296,2287,2274,2256,2243,2226,2217,2208,2199,2190,2182,2168,2160,2146,2133,2120,2107,2094,2076,2063,2041,2019,2001,1984,1971,1957,1949,1935,1922,1905,1891,1874,1861,1847,1839,1839,1834,1825,1817,1803,1790,1773,1755,1742,1724,1711,1702,1693,1689,1685,1685,1676,1671,1663,1663,1663,1667,1671,1680,1685,1689,1693,1702,1715,1729,1742,1764,1790,1821,1852,1847,1825,1830,1852,1883,1909,1940,1975,2010,2041,2072,2102,2120,2129,2133,2133,2129,2120,2111,2102,2094,2085,2072,2054,2037,2019,2001,1979,1962,1940,1913,1887,1861,1834,1812,1795,1773,1751,1733,1711,1693,1667,1641,1610,1588,1561,1535,1509,1487,1465,1443,1425,1403,1386,1368,1350,1333,1315,1302,1289,1280,1271,1258,1249,1240,1232,1218,1210,1201,1201,1196,1196,1196,1196,1201,1205,1205,1210,1210,1214,1223,1232,1245,1262,1284,1311,1346,1386,1434,1478,1531,1588,1645,1702,1759,1812,1865,1913,1957,2006,2054,2102,2146,2186,2226,2256,2283,2305,2318,2322,2322,2322,2318,2318,2309,2292,2274,2256,2239,2217,2199,2177,2151,2124,2102,2080,2058,2041,2028,2010,1993,1979,1966,1953,1927,1905,1883,1865,1847,1834,1821,1817,1808,1795,1777,1759,1742,1724,1707,1693,1680,1667,1649,1632,1610,1592,1570,1553,1531,1513,1500,1491,1482,1473,1465,1456,1447,1438,1430,1416,1412,1412,1412,1416,1421,1434,1456,1473,1495,1517,1548,1588,1623,1663,1702,1742,1781,1817,1856,1891,1922,1962,2006,2045,2080,2111,2133,2155,2177,2186,2195,2195,2195,2190,2186,2177,2168,2155,2142,2129,2116,2107,2094,2085,2076,2063,2054,2037,2023,2001,1988,1975,1957,1940,1922,1900,1874,1847,1825,1808,1790,1773,1751,1733,1715,1698,1685,1667,1654,1641,1627,1619,1610,1601,1588,1570,1553,1531,1513,1500,1491,1478,1469,1460,1452,1443,1495,1570,1605,1619,1623,1627,1627,1632,1632,1636,1641,1649,1658,1676,1693,1711,1733,1759,1795,1825,1861,1891,1931,1971,2001,2032,2063,2094,2120,2151,2182,2212,2239,2261,2278,2287,2296,2296,2292,2283,2274,2261,2256,2256,2248,2243,2234,2226,2217,2208,2190,2177,2164,2151,2138,2120,2102,2085,2067,2045,2023,2001,1988,1975,1966,1953,1940,1927,1909,1896,1883,1874,1865,1856,1843,1830,1812,1799,1786,1773,1759,1746,1729,1720,1711,1702,1693,1680,1663,1645,1623,1605,1588,1570,1557,1539,1531,1522,1509,1495,1487,1478,1478,1478,1487,1495,1504,1526,1548,1570,1601,1632,1667,1702,1737,1768,1790,1817,1847,1878,1909,1935,1957,1975,1988,2001,2010,2015,2010,2006,2001,1993,1979,1971,1962,1949,1935,1927,1918,1913,1913,1909,1909,1909,1905,1900,1891,1883,1874,1865,1861,1861,1861,1856,1847,1839,1834,1825,1812,1799,1786,1773,1764,1751,1746,1742,1737,1737,1737,1737,1737,1737,1737,1737,1737,1737,1737,1729,1724,1724,1724,1720,1720,1720,1720,1720,1720,1720,1720,1720,1724,1729,1737,1751,1764,1781,1799,1821,1843,1874,1905,1935,1971,1997,2023,2050,2076,2107,2138,2168,2204,2239,2274,2305,2327,2349,2366,2375,2380,2384,2384,2384,2380,2371,2358,2340,2322,2309,2292,2274,2261,2248,2230,2212,2195,2177,2160,2142,2124,2107,2085,2063,2041,2019,2001,1988,1975,1966,1953,1940,1927,1909,1891,1878,1865,1847,1834,1825,1812,1803,1795,1786,1777,1768,1755,1746,1733,1720,1711,1702,1689,1676,1663,1654,1645,1641,1632,1623,1614,1605,1597,1592,1592,1592,1601,1610,1619,1632,1654,1676,1702,1729,1764,1799,1834,1874,1918,1962,2006,2054,2094,2129,2168,2212,2256,2292,2318,2340,2362,2380,2397,2402,2406,2406,2406,2402,2397,2384,2371,2353,2336,2318,2305,2296,2287,2274,2265,2248,2230,2212,2190,2168,2151,2133,2116,2098,2076,2058,2037,2023,2015,2001,1988,1979,1971,1957,1940,1927,1909,1887,1869,1852,1834,1825,1812,1795,1777,1764,1751,1737,1729,1720,1711,1702,1689,1680,1676,1667,1663,1654,1645,1636,1627,1619,1619,1619,1623,1623,1627,1636,1645,1654,1667,1685,1702,1724,1746,1768,1790,1817,1847,1883,1913,1944,1975,2006,2032,2063,2089,2116,2146,2168,2186,2195,2199,2195,2190,2177,2164,2138,2116,2089,2058,2037,2019,2001,1988,1971,1957,1940,1927,1909,1887,1869,1852,1834,1825,1812,1795,1777,1768,1759,1751,1742,1733,1729,1724,1715,1707,1698,1693,1689,1685,1685,1689,1693,1693,1698,1698,1698,1702,1702,1707,1707,1711,1711,1711,1711,1711,1715,1720,1720,1724,1724,1724,1724,1724,1733,1746,1764,1777,1790,1812,1834,1861,1887,1922,1957,1993,2023,2058,2098,2142,2186,2221,2256,2292,2327,2358,2388,2415,2441,2463,2481,2503,2520,2534,2538,2538,2538,2534,2525,2507,2494,2476,2454,2437,2419,2402,2380,2358,2336,2283,2217,2173,2142,2120,2098,2076,2050,2023,2001,1975,1949,1931,1913,1900,1887,1874,1856,1839,1821,1803,1786,1764,1746,1729,1715,1698,1685,1671,1658,1641,1623,1610,1601,1592,1583,1579,1575,1566,1561,1553,1544,1535,1526,1513,1504,1495,1487,1482,1482,1482,1487,1491,1500,1509,1526,1548,1579,1610,1645,1680,1720,1755,1790,1821,1861,1905,1953,1997,2045,2094,2138,2177,2217,2252,2278,2296,2309,2318,2322,2318,2314,2305,2292,2274,2256,2239,2221,2204,2190,2177,2168,2155,2142,2129,2111,2089,2072,2054,2032,2015,1993,1971,1949,1927,1909,1887,1874,1856,1843,1825,1812,1795,1773,1755,1737,1724,1711,1698,1685,1667,1654,1636,1623,1605,1592,1583,1575,1561,1557,1548,1539,1526,1517,1509,1495,1487,1478,1469,1465,1460,1460,1460,1465,1465,1465,1473,1482,1500,1522,1548,1583,1619,1654,1689,1724,1755,1795,1839,1878,1922,1962,2001,2041,2076,2107,2138,2164,2182,2195,2204,2208,2208,2204,2195,2186,2177,2168,2160,2146,2129,2107,2080,2058,2032,2001,1971,1935,1909,1883,1861,1843,1821,1803,1786,1764,1746,1724,1698,1676,1649,1627,1605,1583,1561,1535,1504,1478,1452,1434,1408,1386,1364,1346,1328,1320,1306,1298,1280,1262,1245,1232,1218,1205,1188,1179,1166,1148,1139,1135,1135,1135,1130,1135,1144,1157,1170,1188,1210,1232,1258,1289,1315,1346,1377,1412,1456,1495,1531,1579,1627,1685,1737,1795,1856,1909,2001,2111,2186,2243,2283,2309,2331,2349,2366,2380,2384,2388,2388,2388,2388,2384,2375,2366,2358,2349,2340,2327,2318,2309,2300,2287,2274,2256,2239,2221,2208,2190,2173,2155,2133,2111,2089,2072,2054,2041,2023,2015,2001,1993,1979,1971,1962,1953,1944,1931,1918,1905,1896,1883,1865,1852,1843,1834,1830,1825,1817,1808,1799,1795,1786,1777,1768,1764,1755,1746,1742,1737,1737,1742,1746,1755,1768,1786,1803,1825,1843,1865,1896,1918,1944,1971,2006,2041,2076,2116,2155,2190,2230,2261,2292,2314,2327,2340,2349,2353,2358,2358,2358,2358,2349,2340,2327,2318,2309,2300,2292,2278,2261,2243,2226,2204,2186,2168,2151,2133,2116,2098,2085,2076,2067,2054,2041,2032,2019,2010,1997,1984,1966,1953,1935,1922,1909,1896,1883,1865,1852,1843,1834,1825,1817,1808,1803,1790,1777,1773,1764,1755,1746,1737,1733,1724,1715,1707,1693,1685,1676,1667,1663,1658,1658,1663,1671,1680,1693,1707,1729,1751,1773,1799,1830,1856,1883,1909,1944,1979,2019,2050,2080,2116,2146,2182,2212,2243,2265,2283,2300,2309,2314,2318,2318,2318,2314,2305,2300,2292,2283,2278,2270,2261,2252,2243,2230,2212,2190,2173,2155,2138,2120,2102,2089,2076,2063,2045,2032,2015,1993,1971,1944,1922,1900,1874,1852,1834,1817,1799,1777,1759,1742,1724,1711,1698,1685,1671,1658,1645,1632,1619,1601,1588,1575,1561,1548,1531,1517,1500,1487,1473,1465,1456,1452,1452,1452,1452,1452,1452,1456,1465,1473,1487,1509,1535,1570,1605,1636,1676,1720,1768,1817,1861,1909,1957,2006,2050,2089,2124,2146,2168,2190,2217,2239,2252,2265,2278,2287,2292,2292,2292,2292,2292,2292,2283,2278,2274,2274,2270,2261,2252,2248,2239,2230,2221,2212,2208,2199,2190,2182,2173,2164,2151,2142,2133,2120,2111,2098,2085,2076,2058,2045,2032,2019,2006,1993,1984,1971,1962,1949,1931,1918,1905,1891,1878,1865,1856,1847,1843,1839,1830,1825,1825,1825,1830,1834,1843,1847,1861,1869,1887,1900,1918,1935,1953,1971,1993,2015,2041,2067,2098,2124,2155,2195,2230,2270,2309,2340,2366,2384,2397,2406,2415,2419,2419,2419,2419,2419,2406,2393,2380,2371,2362,2353,2344,2336,2327,2318,2305,2292,2274,2252,2230,2212,2190,2168,2151,2133,2120,2102,2089,2072,2054,2037,2023,2006,1988,1975,1957,1940,1927,1918,1905,1891,1878,1869,1865,1861,1856,1852,1847,1843,1839,1834,1830,1821,1817,1808,1799,1790,1781,1773,1764,1751,1742,1733,1729,1724,1720,1720,1724,1733,1751,1773,1795,1817,1839,1865,1896,1922,1949,1979,2015,2054,2094,2133,2173,2208,2248,2287,2318,2344,2362,2375,2388,2402,2410,2415,2419,2415,2410,2402,2393,2380,2371,2358,2349,2336,2322,2305,2292,2274,2252,2230,2208,2186,2168,2155,2138,2124,2111,2098,2089,2076,2063,2045,2032,2015,1997,1979,1966,1957,1949,1935,1922,1909,1891,1878,1861,1839,1817,1799,1786,1773,1759,1746,1733,1720,1702,1680,1654,1632,1614,1597,1588,1575,1570,1566,1566,1566,1570,1570,1570,1575,1583,1597,1605,1614,1623,1636,1654,1676,1693,1715,1746,1777,1817,1847,1883,1918,1949,1984,2015,2050,2076,2102,2124,2142,2155,2168,2173,2173,2177,2173,2168,2160,2151,2142,2133,2129,2124,2124,2124,2124,2124,2124,2120,2116,2111,2107,2102,2094,2089,2085,2080,2076,2076,2076,2076,2076,2076,2076,2076,2076,2072,2067,2063,2058,2058,2058,2054,2045,2045,2037,2032,2023,2010,1997,1988,1971,1957,1940,1922,1909,1900,1887,1878,1874,1869,1865,1865,1865,1865,1869,1883,1896,1909,1927,1944,1966,1997,2028,2058,2085,2111,2146,2182,2217,2252,2296,2331,2366,2397,2419,2441,2459,2472,2485,2494,2498,2503,2503,2503,2494,2481,2468,2454,2437,2419,2402,2388,2375,2362,2349,2331,2314,2296,2278,2265,2248,2234,2217,2199,2186,2164,2142,2124,2107,2089,2072,2058,2045,2032,2015,2001,1993,1979,1962,1949,1931,1913,1900,1883,1874,1865,1856,1847,1839,1834,1825,1821,1812,1803,1799,1790,1781,1773,1764,1755,1746,1737,1733,1729,1729,1733,1742,1751,1759,1773,1795,1817,1839,1861,1887,1918,1949,1975,2010,2050,2089,2129,2168,2208,2248,2283,2318,2344,2366,2380,2393,2406,2415,2419,2419,2419,2419,2419,2415,2406,2397,2384,2375,2366,2358,2349,2344,2331,2318,2305,2287,2265,2243,2221,2199,2182,2164,2146,2111,2063,2028,2006,1984,1971,1953,1940,1927,1909,1896,1883,1869,1856,1839,1825,1808,1790,1781,1777,1768,1759,1755,1751,1746,1742,1733,1724,1715,1702,1689,1671,1649,1632,1614,1597,1583,1570,1561,1553,1544,1535,1531,1526,1526,1531,1539,1553,1575,1601,1632,1667,1707,1742,1781,1817,1847,1883,1918,1953,1988,2015,2037,2045,2054,2063,2072,2076,2076,2076,2067,2058,2045,2028,2015,1997,1988,1975,1966,1953,1944,1931,1922,1909,1900,1891,1878,1865,1847,1834,1821,1808,1795,1786,1781,1777,1773,1768,1764,1759,1751,1746,1742,1742,1737,1733,1733,1729,1729,1729,1737,1746,1751,1755,1755,1764,1768,1768,1773,1773,1773,1773,1768,1768,1773,1773,1768,1768,1773,1773,1773,1773,1781,1795,1808,1825,1847,1869,1896,1927,1957,1984,2010,2037,2067,2098,2129,2164,2199,2239,2274,2309,2340,2371,2388,2406,2424,2437,2450,2459,2459,2463,2463,2459,2454,2441,2428,2410,2393,2375,2349,2322,2305,2287,2270,2252,2234,2212,2195,2177,2155,2133,2111,2085,2063,2050,2032,2015,1997,1984,1971,1953,1935,1918,1905,1891,1874,1856,1843,1830,1821,1803,1790,1777,1768,1764,1759,1751,1746,1742,1733,1724,1715,1707,1698,1689,1680,1667,1649,1636,1627,1619,1614,1605,1597,1597,1601,1605,1614,1623,1641,1663,1685,1711,1737,1768,1799,1834,1869,1905,1944,1984,2023,2063,2107,2146,2173,2195,2217,2243,2265,2287,2287,2283,2278,2278,2274,2274,2274,2270,2261,2252,2243,2230,2217,2195,2173,2151,2129,2107,2089,2072,2054,2041,2023,2010,2001,1988,1975,1962,1949,1931,1913,1900,1883,1869,1856,1843,1830,1812,1795,1777,1759,1742,1729,1715,1702,1698,1689,1685,1680,1671,1667,1658,1649,1641,1632,1623,1614,1601,1592,1583,1579,1575,1566,1557,1548,1539,1539,1544,1553,1557,1570,1588,1610,1632,1654,1676,1702,1729,1751,1777,1803,1830,1856,1891,1922,1957,1984,2006,2028,2050,2067,2085,2094,2107,2111,2111,2102,2094,2072,2050,2028,2006,1988,1971,1949,1931,1913,1896,1874,1852,1834,1812,1795,1777,1759,1742,1724,1715,1702,1693,1685,1676,1667,1658,1649,1641,1632,1627,1619,1610,1601,1592,1588,1583,1575,1570,1566,1566,1561,1561,1561,1561,1557,1557,1553,1553,1553,1553,1553,1548,1544,1548,1553,1561,1566,1575,1583,1592,1605,1623,1645,1667,1698,1729,1764,1795,1821,1852,1887,1922,1957,1997,2032,2072,2111,2151,2190,2230,2256,2274,2292,2309,2331,2349,2366,2380,2384,2388,2388,2380,2371,2353,2340,2327,2314,2300,2287,2274,2261,2252,2243,2234,2217,2199,2186,2168,2146,2124,2102,2076,2054,2028,2006,1988,1975,1957,1940,1922,1909,1891,1874,1856,1839,1821,1803,1786,1768,1751,1737,1724,1715,1711,1707,1707,1702,1698,1689,1685,1676,1667,1658,1649,1641,1632,1623,1619,1610,1601,1592,1583,1579,1579,1579,1583,1588,1597,1610,1627,1645,1671,1689,1707,1733,1768,1808,1847,1891,1935,1984,2028,2067,2102,2146,2186,2226,2265,2296,2318,2340,2358,2366,2371,2375,2371,2362,2349,2331,2314,2300,2287,2278,2265,2252,2234,2212,2190,2168,2146,2124,2098,2076,2050,2023,2001,1984,1966,1949,1935,1918,1900,1883,1865,1843,1825,1812,1803,1790,1781,1768,1751,1729,1711,1693,1680,1667,1654,1645,1636,1623,1614,1605,1592,1583,1575,1561,1553,1548,1539,1531,1522,1513,1504,1504,1504,1513,1522,1531,1544,1553,1566,1583,1610,1636,1658,1680,1711,1742,1777,1817,1856,1900,1935,1966,1993,2019,2045,2067,2094,2116,2133,2146,2160,2173,2177,2177,2168,2160,2138,2116,2085,2058,2028,1997,1975,1953,1931,1905,1878,1856,1834,1808,1786,1764,1742,1724,1702,1685,1667,1649,1636,1623,1610,1601,1588,1575,1561,1544,1535,1522,1509,1504,1495,1491,1491,1491,1491,1491,1491,1487,1478,1473,1469,1465,1456,1447,1438,1438,1434,1434,1434,1443,1452,1460,1473,1491,1513,1539,1566,1597,1623,1654,1680,1715,1755,1795,1839,1887,1935,1988,2037,2089,2142,2195,2239,2274,2314,2358,2397,2432,2463,2485,2498,2503,2507,2507,2512,2507,2503,2490,2472,2459,2450,2432,2415,2393,2375,2353,2331,2314,2300,2287,2274,2256,2239,2217,2195,2177,2160,2142,2124,2107,2085,2063,2037,2015,1993,1971,1949,1931,1909,1887,1865,1847,1825,1803,1781,1764,1751,1729,1711,1689,1671,1663,1654,1645,1636,1627,1619,1610,1601,1597,1588,1579,1570,1561,1553,1548,1544,1548,1557,1561,1570,1583,1592,1601,1614,1632,1654,1671,1702,1733,1768,1812,1856,1905,1940,1975,2010,2050,2094,2138,2182,2221,2256,2287,2309,2331,2344,2353,2353,2353,2353,2349,2344,2336,2318,2305,2283,2270,2256,2243,2230,2217,2199,2177,2160,2138,2120,2102,2085,2067,2050,2028,2001,1979,1962,1944,1927,1913,1900,1887,1869,1856,1839,1821,1803,1786,1768,1759,1751,1742,1729,1715,1702,1685,1671,1658,1649,1641,1627,1619,1614,1605,1597,1583,1575,1561,1553,1544,1535,1531,1526,1531,1535,1544,1553,1566,1588,1614,1636,1663,1689,1724,1759,1795,1830,1869,1909,1944,1979,2010,2045,2085,2116,2146,2173,2190,2204,2212,2212,2208,2204,2195,2186,2177,2168,2155,2142,2129,2107,2080,2058,2032,2006,1984,1966,1944,1927,1905,1878,1852,1825,1799,1773,1742,1707,1680,1663,1645,1627,1614,1601,1588,1575,1557,1544,1522,1500,1487,1469,1456,1447,1438,1430,1421,1412,1403,1390,1381,1377,1372,1368,1368,1368,1368,1368,1368,1368,1368,1372,1372,1368,1368,1372,1377,1386,1394,1408,1430,1465,1504,1548,1592,1636,1680,1733,1786,1843,1905,1962,2010,2067,2124,2173,2221,2261,2305,2340,2380,2406,2432,2454,2468,2476,2481,2485,2481,2472,2459,2441,2419,2393,2366,2344,2327,2305,2287,2265,2243,2217,2195,2177,2160,2138,2124,2107,2089,2067,2050,2028,2006,1984,1971,1957,1949,1940,1927,1909,1896,1878,1861,1843,1830,1817,1803,1786,1773,1759,1742,1729,1715,1698,1685,1671,1663,1654,1645,1632,1619,1610,1601,1592,1583,1575,1570,1566,1566,1570,1575,1583,1592,1601,1610,1632,1654,1676,1702,1729,1755,1790,1830,1869,1909,1949,1984,2023,2058,2094,2129,2160,2186,2212,2234,2252,2265,2274,2274,2278,2278,2278,2278,2270,2256,2243,2234,2226,2217,2208,2199,2186,2168,2146,2129,2107,2085,2063,2045,2023,2006,1988,1975,1962,1949,1935,1918,1905,1887,1869,1852,1839,1821,1803,1786,1773,1759,1742,1729,1720,1711,1702,1698,1698,1693,1689,1680,1676,1667,1663,1658,1649,1641,1632,1623,1614,1605,1597,1583,1575,1566,1561,1566,1570,1575,1588,1601,1623,1645,1667,1693,1724,1755,1786,1821,1847,1878,1913,1949,1984,2028,2067,2102,2138,2173,2199,2221,2239,2248,2252,2252,2252,2243,2234,2226,2217,2208,2199,2190,2182,2168,2160,2146,2129,2111,2089,2063,2041,2019,2001,1984,1971,1962,1949,1940,1931,1918,1900,1887,1869,1852,1834,1821,1812,1799,1786,1773,1759,1751,1733,1715,1698,1680,1667,1649,1636,1623,1614,1597,1579,1561,1544,1522,1495,1473,1456,1438,1425,1416,1412,1408,1408,1403,1408,1408,1412,1412,1416,1425,1438,1452,1473,1495,1517,1539,1566,1588,1610,1641,1671,1702,1737,1768,1803,1839,1869,1905,1931,1953,1966,1979,1984,1984,1979,1975,1971,2001,2045,2067,2080,2085,2089,2089,2089,2089,2089,2089,2080,2076,2067,2058,2050,2045,2037,2032,2023,2019,2010,2006,1997,1993,1984,1975,1971,1971,1971,1971,1971,1971,1971,1971,1971,1971,1971,1971,1971,1966,1962,1949,1940,1927,1913,1905,1896,1887,1878,1861,1847,1834,1821,1812,1803,1803,1803,1799,1799,1803,1812,1825,1839,1856,1878,1909,1944,1979,2019,2067,2116,2155,2190,2230,2274,2318,2353,2384,2415,2446,2472,2503,2525,2547,2556,2556,2556,2551,2542,2534,2516,2503,2485,2463,2437,2406,2375,2353,2331,2309,2287,2265,2243,2221,2204,2186,2168,2151,2133,2116,2098,2080,2067,2050,2032,2015,1997,1975,1962,1944,1927,1909,1891,1874,1856,1843,1825,1812,1799,1790,1781,1777,1768,1759,1751,1737,1720,1711,1702,1689,1676,1667,1654,1645,1636,1627,1619,1619,1619,1623,1627,1636,1649,1667,1689,1715,1742,1768,1803,1839,1874,1918,1966,2010,2050,2094,2138,2182,2226,2274,2318,2358,2388,2410,2432,2450,2463,2468,2468,2468,2463,2454,2441,2424,2406,2393,2380,2366,2358,2349,2340,2327,2309,2287,2270,2252,2239,2221,2199,2177,2155,2129,2107,2094,2076,2058,2041,2028,2010,1993,1975,1957,1940,1922,1900,1883,1865,1852,1839,1821,1812,1803,1795,1790,1781,1777,1768,1759,1751,1742,1737,1729,1720,1711,1698,1685,1671,1658,1641,1627,1619,1614,1614,1619,1627,1641,1654,1671,1698,1724,1751,1777,1795,1821,1847,1874,1905,1935,1971,1975,1962,1966,1984,2006,2032,2054,2072,2085,2085,2080,2076,2067,2054,2032,2010,1984,1962,1940,1922,1900,1883,1865,1852,1834,1817,1795,1777,1759,1737,1720,1702,1680,1667,1654,1645,1636,1632,1627,1627,1627,1627,1627,1627,1627,1627,1623,1619,1619,1619,1619,1614,1610,1610,1605,1605,1605,1605,1610,1610,1610,1614,1619,1623,1627,1632,1641,1645,1649,1649,1649,1649,1654,1658,1671,1685,1702,1729,1764,1799,1834,1874,1909,1940,1975,2010,2050,2094,2133,2168,2208,2243,2278,2314,2344,2375,2402,2424,2446,2463,2481,2490,2494,2494,2494,2494,2485,2472,2454,2432,2410,2393,2366,2340,2318,2292,2265,2248,2226,2208,2190,2168,2142,2116,2089,2058,2032,2010,1988,1962,1944,1922,1900,1883,1865,1843,1825,1808,1786,1768,1751,1737,1720,1698,1685,1671,1663,1654,1649,1641,1632,1619,1610,1605,1597,1592,1583,1575,1561,1553,1544,1535,1526,1513,1504,1495,1491,1487,1491,1500,1509,1526,1548,1575,1605,1641,1676,1711,1751,1799,1843,1883,1931,1975,2023,2072,2116,2164,2208,2248,2283,2305,2327,2344,2353,2358,2358,2362,2358,2353,2349,2336,2318,2300,2283,2261,2239,2221,2204,2182,2160,2142,2129,2111,2089,2067,2045,2019,1993,1975,1957,1944,1927,1909,1891,1874,1852,1834,1817,1795,1781,1768,1755,1742,1729,1715,1698,1680,1667,1654,1641,1632,1623,1610,1601,1592,1583,1570,1553,1539,1526,1513,1500,1487,1478,1469,1460,1452,1452,1456,1460,1469,1478,1495,1517,1544,1566,1597,1627,1663,1698,1729,1755,1786,1825,1865,1905,1940,1975,2006,2037,2063,2080,2098,2107,2116,2124,2129,2129,2124,2116,2111,2102,2089,2076,2054,2028,2001,1979,1957,1931,1913,1891,1865,1843,1812,1781,1746,1715,1685,1658,1632,1614,1597,1579,1553,1531,1509,1487,1465,1443,1425,1403,1386,1377,1368,1364,1359,1359,1355,1355,1355,1355,1355,1355,1355,1355,1359,1364,1364,1364,1364,1364,1359,1359,1355,1355,1355,1359,1364,1372,1377,1390,1412,1434,1460,1487,1522,1561,1605,1649,1698,1751,1799,1843,1896,1953,2010,2067,2120,2168,2212,2256,2296,2336,2375,2402,2424,2446,2459,2463,2459,2450,2437,2415,2388,2366,2340,2318,2292,2265,2243,2226,2208,2186,2168,2146,2124,2098,2076,2054,2037,2019,2006,1997,1984,1962,1944,1927,1909,1891,1874,1856,1839,1821,1803,1786,1773,1755,1737,1720,1698,1671,1654,1636,1623,1614,1601,1592,1588,1579,1566,1548,1535,1517,1504,1495,1482,1469,1456,1443,1430,1421,1412,1403,1399,1403,1412,1425,1447,1469,1495,1522,1548,1579,1610,1641,1671,1707,1751,1795,1843,1887,1931,1971,2010,2054,2089,2120,2142,2164,2186,2204,2212,2217,2221,2221,2221,2217,2208,2199,2190,2182,2173,2164,2155,2138,2124,2102,2080,2063,2045,2028,2006,1988,1971,1949,1931,1909,1891,1874,1856,1839,1817,1799,1777,1759,1742,1729,1711,1693,1676,1676,1689,1693,1689,1685,1676,1671,1663,1654,1645,1641,1636,1627,1623,1614,1601,1588,1575,1561,1548,1539,1531,1522,1517,1513,1509,1509,1517,1522,1531,1539,1553,1570,1592,1614,1641,1663,1693,1724,1755,1795,1834,1874,1913,1949,1984,2015,2050,2076,2098,2120,2142,2164,2177,2186,2190,2190,2186,2182,2173,2164,2155,2146,2133,2116,2098,2080,2063,2045,2023,2006,1984,1962,1944,1927,1913,1900,1887,1869,1856,1847,1834,1821,1808,1790,1777,1759,1737,1724,1707,1693,1676,1658,1636,1614,1597,1579,1557,1535,1517,1504,1491,1478,1465,1452,1438,1421,1408,1399,1386,1372,1359,1342,1328,1320,1311,1306,1302,1298,1298,1298,1298,1298,1306,1315,1333,1355,1377,1403,1430,1456,1491,1526,1561,1601,1641,1676,1715,1755,1790,1825,1852,1883,1909,1927,1940,1949,1957,1962,1962,1962,1957,1953,1953,1949,1949,1949,1944,1940,1931,1927,1922,1913,1913,1909,1900,1896,1896,1887,1883,1883,1878,1874,1869,1865,1865,1865,1861,1856,1852,1847,1839,1830,1825,1817,1812,1803,1795,1786,1773,1764,1755,1742,1733,1720,1711,1702,1693,1680,1663,1649,1641,1627,1619,1610,1601,1601,1605,1610,1614,1623,1632,1649,1667,1685,1707,1733,1764,1790,1817,1847,1878,1909,1940,1971,1997,2028,2058,2089,2120,2146,2168,2186,2199,2208,2212,2212,2204,2195,2190,2177,2164,2146,2129,2111,2098,2080,2063,2045,2023,2001,1979,1962,1944,1927,1909,1944,2006,2032,2037,2032,2019,2006,1988,1971,1953,1931,1913,1896,1883,1865,1852,1843,1825,1812,1795,1777,1764,1751,1737,1729,1715,1698,1680,1667,1654,1641,1627,1619,1610,1605,1597,1592,1588,1579,1570,1566,1566,1570,1570,1575,1579,1592,1605,1623,1632,1645,1663,1680,1707,1729,1751,1781,1817,1856,1896,1935,1975,2015,2054,2094,2129,2160,2182,2204,2226,2239,2252,2261,2256,2252,2248,2239,2230,2212,2195,2173,2160,2142,2129,2116,2098,2085,2067,2050,2032,2019,2001,1979,1962,1944,1931,1913,1900,1887,1874,1861,1839,1821,1799,1781,1759,1742,1729,1715,1707,1693,1685,1671,1654,1641,1627,1614,1605,1597,1588,1583,1579,1570,1561,1557,1548,1539,1526,1513,1495,1478,1460,1447,1434,1425,1421,1416,1408,1408,1403,1403,1403,1408,1416,1430,1447,1465,1482,1504,1531,1557,1588,1619,1654,1685,1715,1746,1777,1799,1817,1830,1843,1861,1874,1883,1887,1887,1883,1874,1856,1834,1808,1790,1773,1755,1737,1720,1698,1680,1658,1641,1623,1605,1597,1588,1583,1583,1579,1575,1566,1557,1553,1544,1539,1531,1526,1517,1509,1504,1500,1495,1487,1482,1478,1473,1469,1465,1465,1465,1465,1465,1460,1460,1460,1456,1452,1452,1447,1447,1447,1447,1447,1447,1447,1452,1460,1465,1473,1482,1491,1509,1522,1544,1570,1597,1623,1649,1676,1698,1720,1746,1777,1808,1843,1874,1900,1927,1953,1979,2010,2037,2058,2076,2094,2111,2124,2173,2234,2261,2270,2261,2252,2243,2230,2217,2204,2190,2177,2160,2142,2120,2102,2076,2050,2028,2001,1984,1962,1949,1935,1918,1900,1878,1861,1834,1808,1781,1755,1729,1715,1702,1693,1685,1676,1667,1658,1645,1632,1619,1601,1592,1579,1570,1566,1561,1557,1553,1544,1535,1522,1509,1491,1473,1452,1438,1425,1412,1408,1408,1408,1408,1412,1412,1416,1416,1416,1421,1434,1447,1465,1482,1504,1531,1566,1601,1636,1676,1720,1768,1812,1852,1896,1940,1975,2001,2028,2050,2072,2089,2094,2098,2102,2102,2098,2094,2085,2076,2067,2050,2032,2019,2006,1993,1975,1957,1935,1918,1900,1887,1874,1865,1852,1839,1825,1808,1786,1764,1746,1729,1715,1702,1698,1693,1689,1685,1676,1667,1663,1654,1649,1641,1632,1619,1605,1588,1575,1570,1561,1548,1539,1526,1509,1491,1473,1452,1430,1412,1390,1381,1377,1368,1359,1350,1342,1333,1324,1315,1306,1306,1311,1324,1342,1368,1390,1416,1443,1473,1500,1531,1561,1592,1627,1658,1685,1707,1729,1742,1751,1764,1773,1781,1786,1786,1777,1773,1764,1755,1742,1729,1720,1715,1711,1702,1698,1693,1693,1693,1693,1693,1693,1693,1693,1698,1702,1702,1698,1698,1693,1693,1693,1693,1693,1689,1685,1680,1680,1685,1685,1685,1685,1685,1685,1689,1698,1707,1707,1711,1715,1715,1715,1711,1711,1711,1711,1711,1711,1711,1711,1711,1711,1711,1711,1711,1711,1711,1715,1720,1724,1724,1729,1737,1746,1799,1874,1922,1962,1993,2028,2072,2111,2151,2190,2230,2265,2305,2344,2375,2402,2424,2437,2450,2459,2468,2463,2459,2450,2441,2428,2415,2397,2380,2366,2349,2331,2314,2296,2278,2256,2239,2221,2199,2182,2164,2155,2146,2138,2129,2116,2102,2089,2076,2067,2054,2045,2037,2023,2015,2006,1993,1975,1957,1940,1922,1905,1883,1869,1861,1856,1856,1856,1856,1861,1856,1843,1830,1812,1795,1777,1755,1742,1733,1724,1724,1729,1729,1729,1729,1729,1729,1729,1737,1746,1759,1777,1799,1825,1852,1878,1905,1935,1975,2019,2067,2111,2151,2190,2230,2265,2300,2331,2362,2384,2406,2424,2437,2450,2454,2454,2450,2450,2450,2446,2437,2428,2415,2397,2384,2371,2358,2349,2340,2331,2318,2300,2283,2270,2252,2234,2217,2199,2182,2164,2151,2142,2133,2120,2102,2089,2080,2072,2063,2054,2045,2037,2028,2019,2006,1997,1979,1957,1944,1931,1918,1905,1896,1887,1874,1869,1861,1856,1847,1839,1825,1817,1808,1808,1808,1803,1803,1803,1803,1808,1821,1834,1852,1869,1887,1905,1927,1953,1979,2010,2037,2067,2102,2138,2173,2212,2243,2270,2287,2305,2322,2344,2362,2380,2388,2393,2397,2397,2397,2393,2380,2371,2358,2340,2322,2305,2287,2265,2239,2217,2190,2168,2146,2129,2107,2089,2072,2054,2037,2019,1993,1971,1953,1927,1905,1883,1869,1852,1839,1825,1817,1803,1795,1790,1786,1781,1777,1773,1768,1768,1768,1768,1773,1773,1777,1773,1707,1610,1561,1539,1526,1522,1517,1517,1517,1522,1526,1526,1531,1539,1557,1583,1610,1641,1671,1707,1746,1790,1834,1887,1940,1997,2063,2133,2204,2278,2349,2415,2476,2542,2595,2635,2674,2714,2749,2771,2784,2789,2789,2784,2775,2762,2749,2740,2723,2705,2692,2674,2657,2635,2608,2586,2560,2538,2512,2490,2472,2450,2424,2406,2393,2380,2366,2349,2331,2309,2287,2265,2239,2217,2195,2173,2151,2129,2107,2080,2058,2037,2019,2001,1984,1966,1953,1944,1935,1927,1913,1905,1891,1874,1856,1830,1803,1786,1773,1755,1746,1737,1729,1720,1707,1693,1680,1671,1671,1676,1689,1707,1733,1759,1790,1821,1856,1900,1949,1997,2045,2094,2142,2195,2256,2314,2362,2402,2450,2490,2529,2564,2600,2630,2652,2670,2687,2701,2709,2714,2709,2701,2687,2679,2665,2652,2639,2630,2617,2600,2573,2547,2520,2498,2472,2446,2419,2397,2375,2353,2327,2300,2278,2261,2239,2217,2199,