1.99219	
1.99219	
1.99219	
1.99219	
1.99219	
1.99219	
1.99219	
1.99219	
1.99219	
1.99219	
1.99219	
1.99219	
1.99219	
1.99219	
1.99219	
1.99219	
1.99219	
1.99219	
1.99219	
1.99219	
1.99219	
1.99219	
1.99219	
1.99219	
1.99219	
1.93024	
1.63934	
1.35431	
1.09009	
0.844849	
0.61731	
0.403259	
0.201782	
0.00994873	
-0.171936	
-0.348022	
-0.517639	
-0.680359	
-0.836426	
-0.985168	
-1.12585	
-1.25983	
-1.38635	
-1.50391	
-1.61224	
-1.71283	
-1.80737	
-1.89758	
-1.97693	
-1.99463	
-1.99164	
-1.99207	
-1.992	
-1.992	
-1.992	
-1.992	
-1.99207	
-1.99207	
-1.99207	
-1.992	
-1.99207	
-1.99207	
-1.99207	
-1.99207	
-1.992	
-1.992	
-1.992	
-1.992	
-1.992	
-1.992	
-1.992	
-1.992	
-1.99207	
-1.992	
-1.992	
-1.992	
-1.99207	
-1.99207	
-1.992	
-1.992	
-1.992	
-1.992	
-1.992	
-1.992	
-1.992	
-1.992	
-1.992	
-1.99207	
-1.992	
-1.992	
-1.992	
-1.992	
-1.992	
-1.992	
-1.992	
-1.992	
-1.992	
-1.992	
-1.992	
-1.992	
-1.992	
-1.992	
-1.99207	
-1.99207	
-1.992	
-1.99207	
-1.992	
-1.992	
-1.992	
-1.992	
-1.992	
-1.992	
-1.992	
-1.992	
-1.992	
-1.99207	
-1.99207	
-1.99207	
-1.99207	
-1.99207	
-1.992	
-1.992	
-1.992	
-1.992	
-1.992	
-1.992	
-1.992	
-1.992	
-1.99207	
-1.992	
-1.99207	
-1.992	
-1.992	
-1.992	
-1.992	
-1.992	
-1.992	
-1.992	
-1.992	
-1.992	
-1.992	
-1.99207	
-1.99207	
-1.99207	
-1.99207	
-1.99207	
-1.99207	
-1.992	
-1.992	
-1.992	
-1.992	
-1.992	
-1.992	
-1.992	
-1.992	
-1.992	
-1.99207	
-1.992	
-1.992	
-1.99207	
-1.99017	
-1.979	
-1.96411	
-1.94183	
-1.89764	
-1.82532	
-1.73633	
-1.65088	
-1.58582	
-1.54749	
-1.5318	
-1.53192	
-1.54053	
-1.55389	
-1.57153	
-1.59259	
-1.61163	
-1.62823	
-1.63855	
-1.64081	
-1.63611	
-1.62897	
-1.61945	
-1.60956	
-1.59894	
-1.59155	
-1.58667	
-1.58337	
-1.58032	
-1.57745	
-1.57434	
-1.56909	
-1.56055	
-1.5517	
-1.54303	
-1.53351	
-1.52124	
-1.50983	
-1.4978	
-1.48163	
-1.44971	
-1.38818	
-1.30322	
-1.2146	
-1.14166	
-1.09497	
-1.07336	
-1.07025	
-1.07764	
-1.0907	
-1.10925	
-1.13409	
-1.16113	
-1.18561	
-1.20508	
-1.21674	
-1.22156	
-1.22235	
-1.21997	
-1.21594	
-1.2113	
-1.20905	
-1.2085	
-1.20947	
-1.211	
-1.2132	
-1.21558	
-1.21692	
-1.21783	
-1.21637	
-1.21143	
-1.20557	
-1.19977	
-1.1936	
-1.18561	
-1.17615	
-1.15887	
-1.11737	
-1.04822	
-0.963989	
-0.88623	
-0.828796	
-0.796082	
-0.783386	
-0.786499	
-0.799561	
-0.816467	
-0.835205	
-0.857361	
-0.881348	
-0.902222	
-0.916931	
-0.927002	
-0.930786	
-0.930298	
-0.927612	
-0.924866	
-0.924988	
-0.926697	
-0.929321	
-0.933105	
-0.937561	
-0.940918	
-0.944702	
-0.94873	
-0.95166	
-0.952332	
-0.950562	
-0.949097	
-0.948547	
-0.945618	
-0.939514	
-0.931458	
-0.911438	
-0.865356	
-0.793274	
-0.713257	
-0.644165	
-0.596497	
-0.572327	
-0.567993	
-0.57605	
-0.592163	
-0.613037	
-0.638977	
-0.670227	
-0.700806	
-0.723999	
-0.738586	
-0.746216	
-0.750916	
-0.751038	
-0.750732	
-0.752014	
-0.754761	
-0.758362	
-0.762512	
-0.767578	
-0.773499	
-0.778809	
-0.783386	
-0.786865	
-0.789673	
-0.79248	
-0.794861	
-0.794434	
-0.792114	
-0.788025	
-0.782349	
-0.771362	
-0.741394	
-0.685608	
-0.612732	
-0.542725	
-0.488708	
-0.459717	
-0.452087	
-0.45874	
-0.473755	
-0.494202	
-0.519348	
-0.546997	
-0.574219	
-0.597168	
-0.612854	
-0.621704	
-0.622925	
-0.622498	
-0.620728	
-0.618774	
-0.619202	
-0.622009	
-0.626221	
-0.631165	
-0.636902	
-0.64447	
-0.649719	
-0.652649	
-0.65564	
-0.658508	
-0.659973	
-0.660156	
-0.660461	
-0.6604	
-0.660217	
-0.652527	
-0.627625	
-0.576904	
-0.503235	
-0.424316	
-0.358337	
-0.315002	
-0.294006	
-0.292114	
-0.304077	
-0.324585	
-0.349365	
-0.377625	
-0.406982	
-0.434082	
-0.45343	
-0.466919	
-0.47406	
-0.47583	
-0.476318	
-0.476196	
-0.47699	
-0.480652	
-0.483398	
-0.485413	
-0.489807	
-0.496887	
-0.50354	
-0.508606	
-0.512085	
-0.514282	
-0.514893	
-0.517212	
-0.519409	
-0.521057	
-0.520691	
-0.519775	
-0.50647	
-0.46698	
-0.401062	
-0.326172	
-0.260376	
-0.212952	
-0.187988	
-0.181702	
-0.188599	
-0.202271	
-0.221985	
-0.248535	
-0.280701	
-0.313171	
-0.343323	
-0.366455	
-0.383118	
-0.392639	
-0.397339	
-0.39917	
-0.400085	
-0.401611	
-0.405212	
-0.410583	
-0.416199	
-0.423706	
-0.431824	
-0.440063	
-0.446594	
-0.45166	
-0.456665	
-0.461182	
-0.463257	
-0.463562	
-0.464661	
-0.465454	
-0.459778	
-0.441528	
-0.399658	
-0.335571	
-0.266235	
-0.207703	
-0.168884	
-0.15033	
-0.145935	
-0.154236	
-0.169189	
-0.190552	
-0.218811	
-0.249023	
-0.278198	
-0.302002	
-0.319824	
-0.329651	
-0.334717	
-0.338196	
-0.342896	
-0.349792	
-0.354675	
-0.361633	
-0.370728	
-0.380371	
-0.389893	
-0.397888	
-0.405273	
-0.413818	
-0.418762	
-0.420837	
-0.421875	
-0.422852	
-0.423462	
-0.425903	
-0.429382	
-0.430542	
-0.42511	
-0.404053	
-0.359863	
-0.296814	
-0.230652	
-0.175232	
-0.139648	
-0.124756	
-0.124634	
-0.135132	
-0.153687	
-0.178101	
-0.206665	
-0.236267	
-0.262573	
-0.283325	
-0.297729	
-0.306335	
-0.309998	
-0.31134	
-0.312988	
-0.315186	
-0.317017	
-0.320251	
-0.326477	
-0.334717	
-0.341919	
-0.348816	
-0.354065	
-0.355774	
-0.356812	
-0.357788	
-0.357666	
-0.3573	
-0.357849	
-0.357788	
-0.355713	
-0.351746	
-0.341003	
-0.3125	
-0.259094	
-0.191467	
-0.128662	
-0.0808105	
-0.0522461	
-0.0450439	
-0.0507813	
-0.06427	
-0.083313	
-0.107483	
-0.136047	
-0.165466	
-0.190308	
-0.209595	
-0.22229	
-0.230408	
-0.233398	
-0.236267	
-0.239563	
-0.24408	
-0.249817	
-0.256104	
-0.262024	
-0.26709	
-0.272278	
-0.276306	
-0.278625	
-0.280151	
-0.283569	
-0.288025	
-0.293274	
-0.296143	
-0.297241	
-0.296265	
-0.295105	
-0.287781	
-0.262146	
-0.216858	
-0.15686	
-0.0961304	
-0.0498657	
-0.0206909	
-0.0107422	
-0.0152588	
-0.0269775	
-0.0446777	
-0.0668945	
-0.0926514	
-0.119141	
-0.144409	
-0.166321	
-0.179688	
-0.189148	
-0.195251	
-0.200378	
-0.207275	
-0.214722	
-0.220886	
-0.228333	
-0.237366	
-0.244934	
-0.252502	
-0.261841	
-0.269409	
-0.275757	
-0.281067	
-0.283386	
-0.287659	
-0.292847	
-0.295959	
-0.298462	
-0.299438	
-0.296997	
-0.291199	
-0.271484	
-0.230957	
-0.175598	
-0.116943	
-0.0717773	
-0.0452271	
-0.0345459	
-0.0365601	
-0.0488281	
-0.0661011	
-0.0861206	
-0.109436	
-0.134705	
-0.159668	
-0.180786	
-0.197632	
-0.20874	
-0.213562	
-0.218018	
-0.223938	
-0.229858	
-0.236267	
-0.24469	
-0.253113	
-0.260803	
-0.271118	
-0.280823	
-0.288696	
-0.293945	
-0.297974	
-0.30127	
-0.302917	
-0.304382	
-0.305603	
-0.305603	
-0.304138	
-0.30072	
-0.29718	
-0.289551	
-0.268616	
-0.228638	
-0.176697	
-0.126953	
-0.0905151	
-0.0737915	
-0.0715942	
-0.0807495	
-0.0982666	
-0.117981	
-0.140076	
-0.162231	
-0.185181	
-0.204468	
-0.21875	
-0.225586	
-0.230225	
-0.23407	
-0.237366	
-0.239197	
-0.241943	
-0.245483	
-0.248657	
-0.255493	
-0.263672	
-0.270752	
-0.277222	
-0.28302	
-0.289307	
-0.293579	
-0.294678	
-0.293579	
-0.294312	
-0.293945	
-0.292786	
-0.292236	
-0.291382	
-0.289673	
-0.276367	
-0.242493	
-0.194336	
-0.140991	
-0.0977783	
-0.0743408	
-0.0673828	
-0.0743408	
-0.0875244	
-0.10376	
-0.124512	
-0.147522	
-0.171692	
-0.194336	
-0.210388	
-0.219849	
-0.222656	
-0.223755	
-0.223511	
-0.224365	
-0.224792	
-0.225037	
-0.226501	
-0.230103	
-0.233765	
-0.237122	
-0.242493	
-0.246582	
-0.248718	
-0.249878	
-0.250305	
-0.25116	
-0.252563	
-0.254944	
-0.258728	
-0.26062	
-0.259216	
-0.252258	
-0.230652	
-0.192749	
-0.143005	
-0.0974121	
-0.0672607	
-0.0524292	
-0.0484009	
-0.0545654	
-0.0664063	
-0.0827026	
-0.103516	
-0.126282	
-0.148315	
-0.167786	
-0.181946	
-0.190491	
-0.195496	
-0.19751	
-0.198853	
-0.201294	
-0.205444	
-0.211365	
-0.21637	
-0.220398	
-0.224304	
-0.229797	
-0.236145	
-0.240906	
-0.245117	
-0.248596	
-0.252136	
-0.253357	
-0.253784	
-0.254211	
-0.253906	
-0.253662	
-0.252014	
-0.245056	
-0.222473	
-0.180603	
-0.130249	
-0.0874634	
-0.0592651	
-0.0465698	
-0.0499878	
-0.0601807	
-0.0751343	
-0.0914307	
-0.108643	
-0.128601	
-0.147095	
-0.162231	
-0.174805	
-0.1828	
-0.18573	
-0.186096	
-0.187561	
-0.189331	
-0.192566	
-0.197205	
-0.203979	
-0.211975	
-0.219421	
-0.228027	
-0.234436	
-0.240112	
-0.245422	
-0.250122	
-0.252869	
-0.254517	
-0.256409	
-0.257019	
-0.257019	
-0.257629	
-0.255188	
-0.24408	
-0.218323	
-0.177612	
-0.129822	
-0.088623	
-0.06427	
-0.0559692	
-0.0593262	
-0.0706787	
-0.0848999	
-0.100647	
-0.116455	
-0.134338	
-0.151794	
-0.166138	
-0.176697	
-0.18396	
-0.186279	
-0.188171	
-0.190552	
-0.19281	
-0.195557	
-0.198303	
-0.201538	
-0.207214	
-0.21228	
-0.217529	
-0.22229	
-0.228271	
-0.232971	
-0.236755	
-0.241333	
-0.245239	
-0.246765	
-0.248901	
-0.250122	
-0.249939	
-0.246521	
-0.231689	
-0.199463	
-0.153748	
-0.106995	
-0.0714111	
-0.0524292	
-0.0493164	
-0.0576782	
-0.0719604	
-0.0894165	
-0.106934	
-0.126831	
-0.147522	
-0.16449	
-0.175781	
-0.182495	
-0.186218	
-0.188904	
-0.190308	
-0.191101	
-0.191711	
-0.195313	
-0.198914	
-0.204041	
-0.210571	
-0.216797	
-0.221924	
-0.225342	
-0.229248	
-0.231079	
-0.231201	
-0.228943	
-0.227173	
-0.225098	
-0.223267	
-0.221863	
-0.218872	
-0.204712	
-0.171692	
-0.120789	
-0.0655518	
-0.0200195	
0.00793457	
0.0197144	
0.0179443	
0.00793457	
-0.00805664	
-0.0276489	
-0.0497437	
-0.0736694	
-0.0946655	
-0.109985	
-0.122253	
-0.128845	
-0.132141	
-0.135803	
-0.141235	
-0.148499	
-0.154907	
-0.159119	
-0.162903	
-0.167908	
-0.173279	
-0.179565	
-0.185303	
-0.19104	
-0.195679	
-0.199219	
-0.203125	
-0.20636	
-0.210693	
-0.21283	
-0.213013	
-0.21283	
-0.208008	
-0.189026	
-0.148254	
-0.0960693	
-0.0491943	
-0.0172119	
-0.00317383	
-0.00317383	
-0.0134888	
-0.0296631	
-0.0484009	
-0.0678711	
-0.0891724	
-0.108521	
-0.124634	
-0.137451	
-0.145569	
-0.152649	
-0.157837	
-0.161316	
-0.166077	
-0.170166	
-0.175842	
-0.182617	
-0.18988	
-0.196472	
-0.20282	
-0.209839	
-0.215149	
-0.219849	
-0.224854	
-0.228516	
-0.232056	
-0.235474	
-0.239319	
-0.242615	
-0.245422	
-0.245117	
-0.237915	
-0.215515	
-0.173462	
-0.121399	
-0.0747681	
-0.0438232	
-0.0310059	
-0.0339966	
-0.0473022	
-0.0655518	
-0.0856323	
-0.105774	
-0.126221	
-0.145691	
-0.163574	
-0.177246	
-0.184753	
-0.190186	
-0.194702	
-0.198181	
-0.201721	
-0.206421	
-0.210876	
-0.215698	
-0.222229	
-0.228455	
-0.235657	
-0.242004	
-0.246399	
-0.249634	
-0.252258	
-0.254883	
-0.257507	
-0.260254	
-0.263	
-0.263306	
-0.262939	
-0.260742	
-0.249207	
-0.21936	
-0.171265	
-0.119995	
-0.0800781	
-0.0566406	
-0.0495605	
-0.0581055	
-0.074585	
-0.0964355	
-0.116943	
-0.139465	
-0.160522	
-0.179626	
-0.194397	
-0.205017	
-0.211182	
-0.215271	
-0.217651	
-0.218506	
-0.218018	
-0.218018	
-0.220459	
-0.222351	
-0.22644	
-0.229736	
-0.233093	
-0.238953	
-0.243835	
-0.247742	
-0.251343	
-0.252319	
-0.252441	
-0.25293	
-0.253845	
-0.25293	
-0.248779	
-0.233032	
-0.194885	
-0.136475	
-0.074585	
-0.0267334	
0.00201416	
0.010376	
0.00415039	
-0.00897217	
-0.0263672	
-0.0465698	
-0.0697632	
-0.0929565	
-0.113892	
-0.130859	
-0.144409	
-0.151184	
-0.15332	
-0.155334	
-0.159424	
-0.1651	
-0.168579	
-0.173828	
-0.180359	
-0.185486	
-0.191956	
-0.197144	
-0.202271	
-0.208679	
-0.215515	
-0.220886	
-0.225342	
-0.230408	
-0.233948	
-0.235901	
-0.237366	
-0.236389	
-0.222168	
-0.185547	
-0.131348	
-0.0769653	
-0.0333252	
-0.00817871	
0.00128174	
-0.00238037	
-0.015625	
-0.0333252	
-0.0545044	
-0.0783081	
-0.101624	
-0.12207	
-0.13916	
-0.151428	
-0.158569	
-0.16333	
-0.167908	
-0.173828	
-0.181763	
-0.188416	
-0.192139	
-0.196594	
-0.202026	
-0.208557	
-0.214172	
-0.22113	
-0.227478	
-0.230652	
-0.234192	
-0.238464	
-0.241882	
-0.24231	
-0.242798	
-0.242554	
-0.240662	
-0.232117	
-0.206055	
-0.157166	
-0.0988159	
-0.0481567	
-0.015564	
-0.00354004	
-0.00683594	
-0.0192871	
-0.0385742	
-0.0601196	
-0.0841064	
-0.108765	
-0.130554	
-0.146179	
-0.156311	
-0.162659	
-0.167114	
-0.170532	
-0.174438	
-0.179504	
-0.185913	
-0.19165	
-0.198608	
-0.206787	
-0.216187	
-0.225037	
-0.231934	
-0.237366	
-0.242065	
-0.244568	
-0.246033	
-0.24823	
-0.250305	
-0.253174	
-0.257019	
-0.259644	
-0.256836	
-0.242065	
-0.206604	
-0.153259	
-0.0955811	
-0.0487671	
-0.0219727	
-0.017395	
-0.0263672	
-0.0407104	
-0.0605469	
-0.0825195	
-0.1073	
-0.131714	
-0.153809	
-0.169922	
-0.17926	
-0.184143	
-0.185486	
-0.187744	
-0.191956	
-0.197083	
-0.204712	
-0.210205	
-0.215698	
-0.2229	
-0.229797	
-0.235535	
-0.241211	
-0.246643	
-0.251892	
-0.25592	
-0.258423	
-0.260803	
-0.261108	
-0.260803	
-0.26062	
-0.26178	
-0.255737	
-0.231079	
-0.183289	
-0.123474	
-0.0689087	
-0.0324097	
-0.0166626	
-0.0181274	
-0.0305786	
-0.0497437	
-0.0692139	
-0.0924072	
-0.120544	
-0.145813	
-0.166077	
-0.180603	
-0.190552	
-0.195374	
-0.196838	
-0.198914	
-0.201965	
-0.204285	
-0.20636	
-0.210754	
-0.217102	
-0.221802	
-0.225647	
-0.229736	
-0.233948	
-0.236267	
-0.238892	
-0.242615	
-0.244934	
-0.24646	
-0.247437	
-0.246521	
-0.242676	
-0.229858	
-0.195496	
-0.137939	
-0.0733643	
-0.0180054	
0.017334	
0.0319824	
0.0287476	
0.0145874	
-0.0065918	
-0.0305176	
-0.0550537	
-0.0827026	
-0.108887	
-0.1297	
-0.144836	
-0.151978	
-0.155701	
-0.159119	
-0.15979	
-0.161743	
-0.164368	
-0.168762	
-0.174683	
-0.181458	
-0.189209	
-0.195251	
-0.200684	
-0.206482	
-0.212402	
-0.21698	
-0.221558	
-0.22522	
-0.228821	
-0.231323	
-0.232056	
-0.229248	
-0.214722	
-0.176331	
-0.116821	
-0.0531616	
-0.00189209	
0.0282593	
0.0391235	
0.0351563	
0.0223389	
0.00317383	
-0.0189819	
-0.0418701	
-0.0685425	
-0.0962524	
-0.118713	
-0.13562	
-0.14856	
-0.155945	
-0.161316	
-0.164551	
-0.168152	
-0.174072	
-0.181702	
-0.190735	
-0.198792	
-0.207275	
-0.218506	
-0.226929	
-0.231323	
-0.234924	
-0.238098	
-0.240906	
-0.245178	
-0.247498	
-0.248413	
-0.250366	
-0.248413	
-0.235413	
-0.198914	
-0.141235	
-0.0787964	
-0.0290527	
0.0022583	
0.0133667	
0.0102539	
-0.00280762	
-0.0219116	
-0.0458984	
-0.0725098	
-0.0996094	
-0.125793	
-0.147583	
-0.161987	
-0.171204	
-0.177429	
-0.181885	
-0.1875	
-0.194031	
-0.201416	
-0.208984	
-0.21759	
-0.227234	
-0.23584	
-0.243896	
-0.25116	
-0.25824	
-0.265259	
-0.271423	
-0.27417	
-0.275391	
-0.278259	
-0.27948	
-0.278381	
-0.276794	
-0.270691	
-0.245239	
-0.197205	
-0.13269	
-0.0715332	
-0.0269775	
-0.00476074	
-0.00140381	
-0.0133667	
-0.0331421	
-0.0570679	
-0.0828247	
-0.110657	
-0.139771	
-0.163513	
-0.180237	
-0.189514	
-0.194031	
-0.197327	
-0.201721	
-0.206299	
-0.209656	
-0.21759	
-0.225281	
-0.231323	
-0.238464	
-0.245544	
-0.251221	
-0.25592	
-0.259277	
-0.263428	
-0.266479	
-0.269653	
-0.271973	
-0.272461	
-0.27301	
-0.272461	
-0.265198	
-0.239685	
-0.189087	
-0.121216	
-0.0560303	
-0.00585938	
0.0221558	
0.0294189	
0.0224609	
0.00683594	
-0.0119629	
-0.032959	
-0.0579224	
-0.0843506	
-0.109497	
-0.128052	
-0.142334	
-0.153625	
-0.160034	
-0.165161	
-0.170776	
-0.177124	
-0.183289	
-0.190979	
-0.198669	
-0.206909	
-0.213989	
-0.221069	
-0.227661	
-0.232361	
-0.236572	
-0.240417	
-0.241394	
-0.242493	
-0.246094	
-0.249756	
-0.252136	
-0.25116	
-0.239929	
-0.205322	
-0.146667	
-0.079895	
-0.0197144	
0.0192871	
0.0373535	
0.0368652	
0.0252075	
0.00671387	
-0.0150146	
-0.0393066	
-0.0654297	
-0.0925903	
-0.11792	
-0.140381	
-0.155823	
-0.1651	
-0.170227	
-0.174866	
-0.180603	
-0.187317	
-0.191895	
-0.198364	
-0.204712	
-0.214355	
-0.225281	
-0.235229	
-0.241028	
-0.247253	
-0.253906	
-0.258484	
-0.259888	
-0.260193	
-0.261841	
-0.261536	
-0.261169	
-0.258423	
-0.253052	
-0.235046	
-0.192017	
-0.131653	
-0.0704346	
-0.0238647	
0.00341797	
0.010498	
0.00378418	
-0.0119629	
-0.0302124	
-0.0529785	
-0.0787964	
-0.106506	
-0.132874	
-0.154419	
-0.169983	
-0.180054	
-0.186279	
-0.191772	
-0.196411	
-0.202209	
-0.211304	
-0.219971	
-0.2276	
-0.235901	
-0.245483	
-0.254639	
-0.263	
-0.270508	
-0.276245	
-0.279541	
-0.280457	
-0.281189	
-0.28009	
-0.280945	
-0.281311	
-0.281677	
-0.279297	
-0.273193	
-0.253845	
-0.211426	
-0.149231	
-0.0864258	
-0.0390015	
-0.0133057	
-0.00762939	
-0.0167847	
-0.0339966	
-0.0554199	
-0.0796509	
-0.108337	
-0.138672	
-0.16394	
-0.182983	
-0.197021	
-0.204895	
-0.21051	
-0.214539	
-0.21637	
-0.220581	
-0.225159	
-0.230042	
-0.234436	
-0.240417	
-0.246399	
-0.253235	
-0.260803	
-0.265625	
-0.267761	
-0.269165	
-0.270264	
-0.269836	
-0.269714	
-0.27002	
-0.269531	
-0.268433	
-0.265015	
-0.253174	
-0.220459	
-0.165955	
-0.100586	
-0.0414429	
6.10352E-05	
0.0206909	
0.022583	
0.0115967	
-0.0078125	
-0.0283813	
-0.0506592	
-0.0754395	
-0.101563	
-0.125183	
-0.142761	
-0.154236	
-0.160034	
-0.163574	
-0.167542	
-0.169617	
-0.17395	
-0.178284	
-0.184509	
-0.190552	
-0.198425	
-0.207397	
-0.213806	
-0.219788	
-0.224854	
-0.230835	
-0.236633	
-0.239563	
-0.243286	
-0.245178	
-0.246643	
-0.247009	
-0.244507	
-0.239502	
-0.223694	
-0.184692	
-0.123657	
-0.0584106	
-0.00616455	
0.0245361	
0.0349121	
0.0299683	
0.0162354	
0.000366211	
-0.0180054	
-0.0408936	
-0.0670776	
-0.0924072	
-0.116028	
-0.134033	
-0.14563	
-0.154968	
-0.161133	
-0.163696	
-0.166992	
-0.172302	
-0.178589	
-0.187317	
-0.19635	
-0.203369	
-0.211304	
-0.219543	
-0.226379	
-0.232788	
-0.238098	
-0.243652	
-0.248291	
-0.251343	
-0.253723	
-0.256226	
-0.258606	
-0.259155	
-0.255127	
-0.239197	
-0.20166	
-0.143066	
-0.0786743	
-0.026001	
0.00592041	
0.0196533	
0.0174561	
0.00708008	
-0.00994873	
-0.031189	
-0.0553589	
-0.0813599	
-0.107422	
-0.1297	
-0.147949	
-0.160889	
-0.16925	
-0.171997	
-0.174072	
-0.177124	
-0.182556	
-0.189331	
-0.19635	
-0.205444	
-0.216003	
-0.224976	
-0.234497	
-0.242188	
-0.246765	
-0.249207	
-0.251892	
-0.252869	
-0.253174	
-0.254456	
-0.256775	
-0.257263	
-0.257141	
-0.255981	
-0.249268	
-0.228271	
-0.182556	
-0.121399	
-0.0633545	
-0.0231323	
-0.00244141	
0.00366211	
-0.00488281	
-0.0223389	
-0.0427856	
-0.0650635	
-0.0918579	
-0.119629	
-0.143738	
-0.161072	
-0.170471	
-0.177185	
-0.180542	
-0.181702	
-0.183228	
-0.185486	
-0.188904	
-0.193665	
-0.200928	
-0.209778	
-0.217834	
-0.22583	
-0.230835	
-0.235413	
-0.237915	
-0.240417	
-0.242676	
-0.242737	
-0.243958	
-0.244263	
-0.243469	
-0.243347	
-0.243042	
-0.231689	
-0.198975	
-0.143005	
-0.0776978	
-0.0198364	
0.0175781	
0.0343628	
0.0335693	
0.0216064	
0.00402832	
-0.0151367	
-0.0383911	
-0.064209	
-0.0895386	
-0.109802	
-0.124023	
-0.133972	
-0.141174	
-0.147034	
-0.152405	
-0.157593	
-0.162659	
-0.168213	
-0.17395	
-0.181091	
-0.189941	
-0.198425	
-0.2052	
-0.211792	
-0.215515	
-0.218384	
-0.220703	
-0.223022	
-0.224121	
-0.224365	
-0.223328	
-0.220947	
-0.217712	
-0.204834	
-0.174194	
-0.119629	
-0.0540161	
0.00488281	
0.0471802	
0.0675659	
0.0675049	
0.0557861	
0.0375977	
0.0170898	
-0.00634766	
-0.0346069	
-0.0653076	
-0.092041	
-0.111816	
-0.124695	
-0.132446	
-0.138916	
-0.144958	
-0.152039	
-0.159241	
-0.165405	
-0.17218	
-0.180359	
-0.188416	
-0.197327	
-0.20575	
-0.215027	
-0.223145	
-0.228699	
-0.232849	
-0.235352	
-0.237366	
-0.239685	
-0.241394	
-0.243103	
-0.240295	
-0.233521	
-0.210327	
-0.160645	
-0.0958252	
-0.0341797	
0.0125122	
0.0386963	
0.0448608	
0.0380249	
0.0228271	
0.00292969	
-0.019165	
-0.0456543	
-0.0762939	
-0.103882	
-0.12677	
-0.142334	
-0.151001	
-0.155762	
-0.159241	
-0.163635	
-0.170776	
-0.178162	
-0.187378	
-0.199524	
-0.211243	
-0.221069	
-0.231934	
-0.241699	
-0.250549	
-0.257263	
-0.260498	
-0.261719	
-0.264404	
-0.266541	
-0.268311	
-0.270508	
-0.270691	
-0.267151	
-0.250732	
-0.210144	
-0.149597	
-0.0829468	
-0.0278931	
0.00592041	
0.019165	
0.0158691	
0.000488281	
-0.0195923	
-0.0428467	
-0.0722046	
-0.104126	
-0.134216	
-0.15741	
-0.174316	
-0.185547	
-0.191895	
-0.196167	
-0.200867	
-0.203979	
-0.207886	
-0.211548	
-0.216858	
-0.221558	
-0.228638	
-0.234253	
-0.239807	
-0.244873	
-0.250488	
-0.254822	
-0.25647	
-0.257019	
-0.257263	
-0.258545	
-0.259399	
-0.260742	
-0.257385	
-0.239319	
-0.196777	
-0.131531	
-0.0610962	
-0.00268555	
0.0336914	
0.050293	
0.0515747	
0.0394287	
0.0216064	
-0.000549316	
-0.0266724	
-0.0548096	
-0.0794067	
-0.0988159	
-0.113464	
-0.124207	
-0.132996	
-0.140076	
-0.145325	
-0.151245	
-0.159241	
-0.168701	
-0.177856	
-0.187073	
-0.19635	
-0.205322	
-0.214722	
-0.222229	
-0.228333	
-0.232117	
-0.233704	
-0.236633	
-0.239136	
-0.242371	
-0.243652	
-0.241028	
-0.22821	
-0.19751	
-0.143555	
-0.0740356	
-0.00714111	
0.0402832	
0.0671997	
0.0736084	
0.0641479	
0.0465698	
0.0255127	
0.00274658	
-0.0245361	
-0.0553589	
-0.0861816	
-0.111328	
-0.129822	
-0.142273	
-0.150269	
-0.15387	
-0.156799	
-0.162231	
-0.168823	
-0.178101	
-0.187805	
-0.198303	
-0.209961	
-0.220276	
-0.226074	
-0.232849	
-0.239807	
-0.245117	
-0.248718	
-0.252136	
-0.253784	
-0.254272	
-0.252502	
-0.248718	
-0.239868	
-0.216064	
-0.166809	
-0.100769	
-0.0366211	
0.0128784	
0.0405273	
0.0480957	
0.041626	
0.027771	
0.00726318	
-0.015625	
-0.041626	
-0.0707397	
-0.0983276	
-0.122681	
-0.142761	
-0.155762	
-0.162842	
-0.167053	
-0.171997	
-0.17749	
-0.184509	
-0.193848	
-0.203613	
-0.21283	
-0.221619	
-0.230103	
-0.236328	
-0.241882	
-0.246033	
-0.246704	
-0.246765	
-0.249207	
-0.251648	
-0.25415	
-0.255005	
-0.250427	
-0.237427	
-0.206482	
-0.15332	
-0.0864868	
-0.0250244	
0.0159302	
0.0350952	
0.0359497	
0.0233154	
0.00512695	
-0.0157471	
-0.0408936	
-0.0696411	
-0.100159	
-0.126648	
-0.147461	
-0.159424	
-0.164185	
-0.167053	
-0.170898	
-0.176392	
-0.182678	
-0.190552	
-0.199951	
-0.209473	
-0.218506	
-0.226501	
-0.235046	
-0.243408	
-0.248169	
-0.251709	
-0.255249	
-0.259521	
-0.261108	
-0.260742	
-0.25885	
-0.256653	
-0.247986	
-0.221191	
-0.170349	
-0.103821	
-0.0394287	
0.00787354	
0.0340576	
0.0408936	
0.0354004	
0.0213013	
0.00292969	
-0.0184326	
-0.0440063	
-0.0725098	
-0.102844	
-0.126648	
-0.140991	
-0.150574	
-0.155334	
-0.160278	
-0.166443	
-0.173584	
-0.181274	
-0.187622	
-0.19342	
-0.200867	
-0.209351	
-0.216858	
-0.223389	
-0.230408	
-0.236328	
-0.241028	
-0.244629	
-0.249451	
-0.25238	
-0.254211	
-0.254211	
-0.250183	
-0.2323	
-0.191467	
-0.130676	
-0.0652466	
-0.0114136	
0.0218506	
0.0370483	
0.0366211	
0.0256958	
0.00939941	
-0.0114746	
-0.0360718	
-0.0658569	
-0.0927734	
-0.121033	
-0.142029	
-0.153809	
-0.162292	
-0.168579	
-0.171326	
-0.177185	
-0.184082	
-0.193054	
-0.202515	
-0.210876	
-0.220886	
-0.230042	
-0.23877	
-0.246094	
-0.249878	
-0.251831	
-0.252197	
-0.254822	
-0.25592	
-0.257568	
-0.259583	
-0.260315	
-0.257324	
-0.24585	
-0.210144	
-0.151978	
-0.0863647	
-0.0300293	
0.0101318	
0.0299683	
0.0322266	
0.0237427	
0.00909424	
-0.0106201	
-0.0355225	
-0.0623169	
-0.0919189	
-0.119995	
-0.140442	
-0.155334	
-0.165039	
-0.17334	
-0.180481	
-0.18689	
-0.196777	
-0.207275	
-0.215942	
-0.226807	
-0.236511	
-0.245117	
-0.252136	
-0.260254	
-0.267944	
-0.273621	
-0.278259	
-0.282104	
-0.282959	
-0.285095	
-0.286804	
-0.287292	
-0.284668	
-0.275146	
-0.248474	
-0.199646	
-0.13678	
-0.0777588	
-0.0333862	
-0.00933838	
-0.00488281	
-0.013855	
-0.0287476	
-0.0465088	
-0.0664673	
-0.0925293	
-0.12207	
-0.145386	
-0.16394	
-0.177734	
-0.18512	
-0.189575	
-0.193115	
-0.196777	
-0.202881	
-0.210754	
-0.219177	
-0.226624	
-0.235413	
-0.24408	
-0.253052	
-0.261108	
-0.267883	
-0.272705	
-0.275879	
-0.277161	
-0.276001	
-0.274963	
-0.274292	
-0.274414	
-0.274719	
-0.269653	
-0.250732	
-0.207703	
-0.14502	
-0.081543	
-0.0305786	
0	
0.0131836	
0.0106812	
-0.000610352	
-0.0167236	
-0.036499	
-0.0603027	
-0.086731	
-0.113892	
-0.137695	
-0.154724	
-0.16394	
-0.169983	
-0.173218	
-0.176208	
-0.181946	
-0.189575	
-0.197754	
-0.205994	
-0.215088	
-0.223267	
-0.23114	
-0.236511	
-0.24115	
-0.244995	
-0.247681	
-0.249023	
-0.250793	
-0.252808	
-0.253052	
-0.253479	
-0.252747	
-0.24823	
-0.227722	
-0.181763	
-0.119324	
-0.0568848	
-0.00842285	
0.0212402	
0.0323486	
0.0291138	
0.0168457	
-0.000366211	
-0.0204468	
-0.0450439	
-0.072876	
-0.102478	
-0.127014	
-0.144409	
-0.153748	
-0.158508	
-0.163452	
-0.170227	
-0.175354	
-0.180603	
-0.18811	
-0.197876	
-0.207031	
-0.216064	
-0.224426	
-0.231323	
-0.237793	
-0.242798	
-0.246643	
-0.248596	
-0.250244	
-0.250183	
-0.250549	
-0.25061	
-0.250122	
-0.246399	
-0.228394	
-0.18927	
-0.130066	
-0.0661011	
-0.0147705	
0.0157471	
0.0280762	
0.0245972	
0.0119629	
-0.00439453	
-0.0254517	
-0.0501099	
-0.0767822	
-0.104858	
-0.128845	
-0.145508	
-0.156433	
-0.163818	
-0.169739	
-0.175476	
-0.182617	
-0.190613	
-0.199463	
-0.206238	
-0.21283	
-0.218811	
-0.225708	
-0.232727	
-0.23999	
-0.245544	
-0.248779	
-0.253052	
-0.256104	
-0.257263	
-0.258789	
-0.259888	
-0.260193	
-0.256592	
-0.243164	
-0.208801	
-0.151978	
-0.0888062	
-0.0361938	
-0.00323486	
0.00866699	
0.00421143	
-0.0102539	
-0.0293579	
-0.0494385	
-0.0731201	
-0.0986938	
-0.125	
-0.147705	
-0.16333	
-0.172791	
-0.179321	
-0.18219	
-0.183838	
-0.188538	
-0.195251	
-0.203186	
-0.211853	
-0.219055	
-0.226379	
-0.235596	
-0.24231	
-0.247681	
-0.25116	
-0.254883	
-0.25769	
-0.25946	
-0.260742	
-0.262146	
-0.263184	
-0.26178	
-0.253906	
-0.229919	
-0.180603	
-0.117493	
-0.0576172	
-0.0122681	
0.0120239	
0.0186157	
0.0133667	
0.00134277	
-0.0159912	
-0.038208	
-0.0635986	
-0.0918579	
-0.117737	
-0.136475	
-0.149231	
-0.158691	
-0.164673	
-0.170166	
-0.174805	
-0.180481	
-0.186218	
-0.19165	
-0.198364	
-0.204529	
-0.211853	
-0.219971	
-0.226868	
-0.230591	
-0.235474	
-0.240234	
-0.242371	
-0.24353	
-0.246521	
-0.249512	
-0.25177	
-0.247131	
-0.230103	
-0.191711	
-0.134644	
-0.0728149	
-0.0214844	
0.00830078	
0.0194092	
0.0186768	
0.00811768	
-0.00665283	
-0.0258179	
-0.0479736	
-0.0732422	
-0.0994873	
-0.122803	
-0.140137	
-0.151855	
-0.159485	
-0.166504	
-0.172241	
-0.177246	
-0.182556	
-0.189026	
-0.197876	
-0.207092	
-0.215881	
-0.223511	
-0.229553	
-0.235229	
-0.240479	
-0.24408	
-0.24823	
-0.251953	
-0.254944	
-0.25708	
-0.258179	
-0.257019	
-0.252686	
-0.237366	
-0.203125	
-0.149597	
-0.0919189	
-0.0444336	
-0.0165405	
-0.00549316	
-0.00823975	
-0.0188599	
-0.03302	
-0.052002	
-0.0745239	
-0.101379	
-0.12738	
-0.147461	
-0.160156	
-0.167969	
-0.174133	
-0.17926	
-0.18335	
-0.187561	
-0.193176	
-0.199036	
-0.20697	
-0.218811	
-0.229187	
-0.238831	
-0.247375	
-0.253296	
-0.260132	
-0.265503	
-0.269226	
-0.271484	
-0.272217	
-0.270813	
-0.270935	
-0.270386	
-0.266296	
-0.249512	
-0.213318	
-0.157898	
-0.100708	
-0.0557861	
-0.0292358	
-0.0200195	
-0.0231934	
-0.0338745	
-0.0490723	
-0.0702515	
-0.097229	
-0.125366	
-0.1521	
-0.173828	
-0.188599	
-0.196594	
-0.200745	
-0.202148	
-0.204651	
-0.207642	
-0.212158	
-0.217957	
-0.224609	
-0.231934	
-0.237976	
-0.24353	
-0.247803	
-0.252258	
-0.255737	
-0.257751	
-0.257813	
-0.257813	
-0.259521	
-0.260986	
-0.261902	
-0.259521	
-0.248657	
-0.222351	
-0.174316	
-0.114136	
-0.0595093	
-0.0194702	
0.00128174	
0.00610352	
0.000671387	
-0.00939941	
-0.0233765	
-0.041687	
-0.0652466	
-0.0913086	
-0.113647	
-0.129639	
-0.138855	
-0.145996	
-0.149475	
-0.1521	
-0.155945	
-0.161804	
-0.168335	
-0.173706	
-0.180969	
-0.190796	
-0.198608	
-0.205994	
-0.211304	
-0.214539	
-0.216431	
-0.219299	
-0.223389	
-0.227234	
-0.230896	
-0.234009	
-0.236023	
-0.233032	
-0.219727	
-0.185913	
-0.132874	
-0.0743408	
-0.0268555	
0.00268555	
0.0151978	
0.0140991	
0.00488281	
-0.00982666	
-0.0292358	
-0.0512085	
-0.0757446	
-0.100281	
-0.121948	
-0.137695	
-0.14856	
-0.155945	
-0.160522	
-0.164856	
-0.169983	
-0.174438	
-0.181519	
-0.188232	
-0.195374	
-0.204285	
-0.211426	
-0.217041	
-0.222656	
-0.228394	
-0.232361	
-0.233276	
-0.233643	
-0.236145	
-0.237427	
-0.236938	
-0.235291	
-0.233765	
-0.224304	
-0.197021	
-0.146301	
-0.0863037	
-0.0352173	
-0.00177002	
0.0125732	
0.0128174	
0.00396729	
-0.0112305	
-0.0279541	
-0.0487671	
-0.0737915	
-0.0993652	
-0.121643	
-0.138733	
-0.150269	
-0.157654	
-0.161072	
-0.163208	
-0.167603	
-0.173218	
-0.181213	
-0.188904	
-0.196289	
-0.204163	
-0.210144	
-0.216675	
-0.222656	
-0.228699	
-0.234375	
-0.238159	
-0.238647	
-0.240356	
-0.243286	
-0.243652	
-0.24292	
-0.241516	
-0.237	
-0.220764	
-0.184021	
-0.131226	
-0.0777588	
-0.0361328	
-0.0128784	
-0.00756836	
-0.0148926	
-0.0271606	
-0.0437012	
-0.0631104	
-0.0870361	
-0.113525	
-0.136597	
-0.153992	
-0.16571	
-0.171753	
-0.173828	
-0.17511	
-0.17804	
-0.182373	
-0.186279	
-0.190735	
-0.197754	
-0.2052	
-0.210999	
-0.217407	
-0.222961	
-0.227661	
-0.22998	
-0.229492	
-0.22821	
-0.231201	
-0.232727	
-0.23584	
-0.237427	
-0.239075	
-0.234375	
-0.212036	
-0.16803	
-0.110291	
-0.0540161	
-0.0130005	
0.00946045	
0.0128174	
0.00415039	
-0.0090332	
-0.0255737	
-0.0449829	
-0.0690918	
-0.0936279	
-0.114868	
-0.131714	
-0.142395	
-0.146912	
-0.148865	
-0.150452	
-0.152954	
-0.156494	
-0.161926	
-0.169983	
-0.18042	
-0.189941	
-0.19873	
-0.205444	
-0.211304	
-0.217712	
-0.220276	
-0.22168	
-0.222656	
-0.22522	
-0.227112	
-0.227966	
-0.226868	
-0.224426	
-0.211182	
-0.175903	
-0.123962	
-0.0665894	
-0.0203857	
0.00823975	
0.0185547	
0.0133057	
-0.000366211	
-0.0162964	
-0.0333862	
-0.0545044	
-0.0778809	
-0.101501	
-0.122742	
-0.139221	
-0.146729	
-0.150574	
-0.153992	
-0.158447	
-0.163635	
-0.170471	
-0.17749	
-0.184021	
-0.189575	
-0.196106	
-0.203247	
-0.211182	
-0.216309	
-0.222229	
-0.227905	
-0.230042	
-0.233765	
-0.236511	
-0.238831	
-0.238892	
-0.238159	
-0.232605	
-0.213867	
-0.172119	
-0.114258	
-0.0568237	
-0.0128784	
0.0119019	
0.0172729	
0.00982666	
-0.00427246	
-0.0222778	
-0.0421753	
-0.0668945	
-0.0921021	
-0.116089	
-0.136353	
-0.149963	
-0.15979	
-0.165466	
-0.169617	
-0.173645	
-0.17926	
-0.183777	
-0.19104	
-0.199036	
-0.206787	
-0.214905	
-0.220703	
-0.225098	
-0.229431	
-0.233765	
-0.23938	
-0.24353	
-0.244385	
-0.24707	
-0.250916	
-0.253296	
-0.252869	
-0.240417	
-0.205627	
-0.15271	
-0.0963745	
-0.0523682	
-0.0252075	
-0.017395	
-0.0253906	
-0.039856	
-0.0570068	
-0.0767212	
-0.0997314	
-0.123901	
-0.145508	
-0.161926	
-0.1745	
-0.183472	
-0.187744	
-0.189087	
-0.190308	
-0.191956	
-0.197144	
-0.205078	
-0.213257	
-0.221008	
-0.228882	
-0.234497	
-0.239136	
-0.241882	
-0.245911	
-0.248901	
-0.251038	
-0.250793	
-0.251038	
-0.250671	
-0.25061	
-0.246765	
-0.228821	
-0.188171	
-0.127319	
-0.0637817	
-0.0164185	
0.00958252	
0.0152588	
0.00830078	
-0.0055542	
-0.0232544	
-0.0429077	
-0.0668335	
-0.0916748	
-0.114685	
-0.130005	
-0.140137	
-0.147583	
-0.154114	
-0.158752	
-0.162476	
-0.166626	
-0.17334	
-0.180603	
-0.190186	
-0.198853	
-0.205627	
-0.210327	
-0.215515	
-0.220215	
-0.223083	
-0.227844	
-0.231873	
-0.23468	
-0.237061	
-0.238281	
-0.236816	
-0.229736	
-0.201416	
-0.149963	
-0.088562	
-0.0318604	
0.00982666	
0.03125	
0.0338745	
0.024292	
0.00836182	
-0.0115356	
-0.0353394	
-0.0603027	
-0.0847168	
-0.107788	
-0.126038	
-0.137695	
-0.145142	
-0.150513	
-0.155457	
-0.162354	
-0.169983	
-0.17572	
-0.183777	
-0.19342	
-0.200806	
-0.208191	
-0.215881	
-0.221863	
-0.22699	
-0.231445	
-0.235657	
-0.238892	
-0.242004	
-0.243713	
-0.246643	
-0.244751	
-0.232971	
-0.198975	
-0.142639	
-0.0770874	
-0.019043	
0.0177002	
0.0325317	
0.0299683	
0.0159302	
-0.00341797	
-0.0250244	
-0.0498047	
-0.0748901	
-0.100159	
-0.122009	
-0.139893	
-0.151367	
-0.158691	
-0.163086	
-0.167725	
-0.17395	
-0.179626	
-0.184998	
-0.193359	
-0.2005	
-0.207947	
-0.216553	
-0.223572	
-0.23053	
-0.23761	
-0.244812	
-0.249329	
-0.252502	
-0.253723	
-0.253845	
-0.255066	
-0.253174	
-0.240662	
-0.208923	
-0.156189	
-0.0987549	
-0.0506592	
-0.0197144	
-0.00994873	
-0.0139771	
-0.0269775	
-0.046936	
-0.0696411	
-0.0941772	
-0.119934	
-0.142151	
-0.159241	
-0.170044	
-0.176208	
-0.181641	
-0.187439	
-0.192871	
-0.200195	
-0.207458	
-0.21344	
-0.220764	
-0.228333	
-0.235229	
-0.242981	
-0.249573	
-0.255249	
-0.259583	
-0.261292	
-0.261719	
-0.262085	
-0.263123	
-0.263794	
-0.262085	
-0.253845	
-0.230408	
-0.182922	
-0.120056	
-0.0614014	
-0.0189209	
0.0045166	
0.00891113	
0.00128174	
-0.0147095	
-0.0349121	
-0.0579834	
-0.0825195	
-0.106995	
-0.127319	
-0.140991	
-0.149475	
-0.156128	
-0.160156	
-0.162415	
-0.165466	
-0.169067	
-0.174744	
-0.18219	
-0.190369	
-0.195984	
-0.202637	
-0.209778	
-0.214233	
-0.217102	
-0.221558	
-0.225403	
-0.228027	
-0.231262	
-0.233948	
-0.235962	
-0.23468	
-0.22229	
-0.18811	
-0.131836	
-0.0698853	
-0.0183716	
0.0167236	
0.0322876	
0.0299683	
0.0180054	
-0.00109863	
-0.0213013	
-0.043335	
-0.067749	
-0.0924072	
-0.113098	
-0.129456	
-0.142212	
-0.150391	
-0.15509	
-0.159424	
-0.166687	
-0.173828	
-0.182312	
-0.189697	
-0.197021	
-0.205139	
-0.21344	
-0.22052	
-0.227112	
-0.232483	
-0.236755	
-0.240234	
-0.244263	
-0.246155	
-0.247498	
-0.248413	
-0.247375	
-0.242981	
-0.222839	
-0.177979	
-0.116455	
-0.0567627	
-0.0136719	
0.00891113	
0.013855	
0.0067749	
-0.00866699	
-0.0274658	
-0.0485229	
-0.0707397	
-0.0944824	
-0.117737	
-0.137329	
-0.151184	
-0.158691	
-0.164978	
-0.168335	
-0.170227	
-0.173706	
-0.180481	
-0.188965	
-0.196777	
-0.206604	
-0.215454	
-0.224854	
-0.23468	
-0.242065	
-0.248718	
-0.255249	
-0.259155	
-0.262024	
-0.265198	
-0.266785	
-0.264954	
-0.261169	
-0.254761	
-0.234192	
-0.193054	
-0.133362	
-0.0739746	
-0.0296631	
-0.00482178	
0.00152588	
-0.00543213	
-0.0206299	
-0.0397949	
-0.0609741	
-0.0859375	
-0.112427	
-0.136169	
-0.152771	
-0.162842	
-0.168823	
-0.171936	
-0.174133	
-0.177307	
-0.182983	
-0.189392	
-0.195862	
-0.202148	
-0.209229	
-0.217407	
-0.223755	
-0.229736	
-0.237061	
-0.24115	
-0.245178	
-0.249756	
-0.253174	
-0.258057	
-0.26239	
-0.265381	
-0.265808	
-0.260803	
-0.239807	
-0.193787	
-0.130981	
-0.0675659	
-0.0201416	
0.00256348	
0.00604248	
-0.00274658	
-0.0200806	
-0.0409546	
-0.0652466	
-0.0924072	
-0.119812	
-0.143433	
-0.159363	
-0.167908	
-0.174622	
-0.178162	
-0.180603	
-0.184021	
-0.188965	
-0.195618	
-0.201599	
-0.209839	
-0.215027	
-0.21936	
-0.223206	
-0.226196	
-0.229126	
-0.232178	
-0.234741	
-0.237061	
-0.238831	
-0.239258	
-0.240417	
-0.240234	
-0.236816	
-0.221069	
-0.18042	
-0.118286	
-0.0530396	
0.000183105	
0.0325317	
0.045166	
0.0406494	
0.0279541	
0.00994873	
-0.0125732	
-0.0390625	
-0.0684204	
-0.0952759	
-0.114685	
-0.128723	
-0.137085	
-0.141968	
-0.144592	
-0.146729	
-0.148499	
-0.154419	
-0.160828	
-0.168945	
-0.178223	
-0.187988	
-0.197327	
-0.206421	
-0.215515	
-0.221436	
-0.226624	
-0.231506	
-0.234436	
-0.237549	
-0.239685	
-0.239319	
-0.237793	
-0.230835	
-0.20575	
-0.156982	
-0.0900879	
-0.0251465	
0.0221558	
0.0477905	
0.0541992	
0.0459595	
0.0291138	
0.00793457	
-0.0147095	
-0.041748	
-0.0718384	
-0.0995483	
-0.122864	
-0.140686	
-0.151855	
-0.157349	
-0.158997	
-0.161804	
-0.1651	
-0.171326	
-0.179138	
-0.187317	
-0.194031	
-0.199646	
-0.205505	
-0.212524	
-0.218689	
-0.224854	
-0.228577	
-0.231262	
-0.232361	
-0.233582	
-0.235107	
-0.236389	
-0.236511	
-0.236023	
-0.227234	
-0.197266	
-0.14325	
-0.0778809	
-0.0197754	
0.0183105	
0.0351563	
0.0348511	
0.0222778	
0.00195313	
-0.0211792	
-0.0460205	
-0.074707	
-0.104187	
-0.129028	
-0.14563	
-0.155212	
-0.160583	
-0.164246	
-0.166443	
-0.168213	
-0.172974	
-0.180115	
-0.188354	
-0.197144	
-0.206482	
-0.215454	
-0.225891	
-0.235168	
-0.242798	
-0.247009	
-0.250977	
-0.252686	
-0.253601	
-0.254456	
-0.255981	
-0.257935	
-0.257019	
-0.247986	
-0.218506	
-0.165955	
-0.102783	
-0.0457764	
-0.00567627	
0.0125122	
0.0115356	
-0.00115967	
-0.020874	
-0.0432129	
-0.0697021	
-0.0979614	
-0.125916	
-0.151001	
-0.169739	
-0.181702	
-0.187683	
-0.190857	
-0.194458	
-0.197937	
-0.203003	
-0.206604	
-0.211731	
-0.217773	
-0.223206	
-0.227661	
-0.232239	
-0.237	
-0.241577	
-0.246643	
-0.250305	
-0.252075	
-0.254333	
-0.254944	
-0.255127	
-0.253906	
-0.249512	
-0.235718	
-0.19812	
-0.139221	
-0.0735474	
-0.019043	
0.015625	
0.031311	
0.0310059	
0.0184937	
-0.000183105	
-0.0213013	
-0.0460815	
-0.0720215	
-0.0979004	
-0.1203	
-0.135376	
-0.146606	
-0.155212	
-0.159668	
-0.16217	
-0.1651	
-0.168823	
-0.173706	
-0.179993	
-0.187683	
-0.195374	
-0.202087	
-0.20929	
-0.215393	
-0.219116	
-0.222839	
-0.225403	
-0.2276	
-0.230225	
-0.232239	
-0.234314	
-0.234314	
-0.232849	
-0.2276	
-0.205078	
-0.160095	
-0.0992432	
-0.0396118	
0.0032959	
0.0275879	
0.0346069	
0.0285034	
0.0144043	
-0.00482178	
-0.0262451	
-0.0510254	
-0.0787964	
-0.103577	
-0.124512	
-0.142029	
-0.152466	
-0.158386	
-0.163635	
-0.167358	
-0.171021	
-0.174988	
-0.182922	
-0.191528	
-0.200073	
-0.208557	
-0.21521	
-0.220764	
-0.225403	
-0.228699	
-0.233276	
-0.236877	
-0.239075	
-0.240295	
-0.240051	
-0.239136	
-0.237976	
-0.232056	
-0.213989	
-0.172363	
-0.11499	
-0.0593262	
-0.0171509	
0.00714111	
0.0118408	
0.00189209	
-0.0153809	
-0.036499	
-0.0601196	
-0.0871582	
-0.115784	
-0.140503	
-0.157837	
-0.167664	
-0.174255	
-0.178772	
-0.181396	
-0.186035	
-0.190918	
-0.196594	
-0.204407	
-0.212219	
-0.218567	
-0.224731	
-0.230347	
-0.235779	
-0.239807	
-0.243652	
-0.248596	
-0.25238	
-0.255432	
-0.25592	
-0.255798	
-0.256531	
-0.256165	
-0.246277	
-0.215942	
-0.16217	
-0.100586	
-0.0494385	
-0.0177002	
-0.00708008	
-0.0111084	
-0.0231323	
-0.0410767	
-0.0620117	
-0.0843506	
-0.110352	
-0.135315	
-0.155396	
-0.168823	
-0.177307	
-0.181213	
-0.182068	
-0.180542	
-0.180786	
-0.183899	
-0.187195	
-0.190186	
-0.194885	
-0.200928	
-0.205261	
-0.209045	
-0.212891	
-0.216309	
-0.219177	
-0.221558	
-0.225281	
-0.229004	
-0.232056	
-0.235107	
-0.231506	
-0.219177	
-0.184753	
-0.129456	
-0.0704346	
-0.0223999	
0.00775146	
0.0217285	
0.0200806	
0.0090332	
-0.00524902	
-0.0241089	
-0.0487061	
-0.0753174	
-0.100586	
-0.121216	
-0.135681	
-0.145386	
-0.152527	
-0.156311	
-0.160583	
-0.166382	
-0.172363	
-0.17749	
-0.184204	
-0.191162	
-0.197021	
-0.203979	
-0.210449	
-0.217224	
-0.223389	
-0.227173	
-0.230347	
-0.234192	
-0.237366	
-0.237305	
-0.236633	
-0.233154	
-0.223877	
-0.193787	
-0.143127	
-0.0847168	
-0.0342407	
-0.00115967	
0.0137329	
0.0123291	
0.000610352	
-0.0158691	
-0.0358276	
-0.0602417	
-0.0848999	
-0.10791	
-0.127991	
-0.141113	
-0.148438	
-0.15448	
-0.158752	
-0.162537	
-0.165527	
-0.16925	
-0.174622	
-0.183411	
-0.193848	
-0.202698	
-0.210449	
-0.21637	
-0.222168	
-0.228516	
-0.232849	
-0.238647	
-0.242981	
-0.247498	
-0.252197	
-0.255859	
-0.258301	
-0.254944	
-0.235596	
-0.19519	
-0.141235	
-0.0913696	
-0.0567017	
-0.0396729	
-0.0378418	
-0.0463257	
-0.0611572	
-0.0783081	
-0.0996094	
-0.123047	
-0.143127	
-0.161011	
-0.173523	
-0.180237	
-0.184265	
-0.186584	
-0.188232	
-0.191528	
-0.196289	
-0.201538	
-0.207031	
-0.212341	
-0.219116	
-0.225891	
-0.232483	
-0.238525	
-0.244141	
-0.251282	
-0.257202	
-0.26062	
-0.264771	
-0.267639	
-0.269043	
-0.269104	
-0.264038	
-0.242737	
-0.19928	
-0.143433	
-0.0925293	
-0.0588989	
-0.0435181	
-0.0421753	
-0.0516968	
-0.0671387	
-0.0858154	
-0.108032	
-0.13031	
-0.150513	
-0.166809	
-0.178284	
-0.18512	
-0.184753	
-0.184021	
-0.184082	
-0.185608	
-0.189514	
-0.193237	
-0.198669	
-0.205444	
-0.213379	
-0.221436	
-0.226257	
-0.228699	
-0.22998	
-0.230286	
-0.230225	
-0.229797	
-0.229919	
-0.230713	
-0.230408	
-0.226746	
-0.214417	
-0.183289	
-0.133301	
-0.0783081	
-0.0314941	
-0.00134277	
0.0106812	
0.00933838	
-0.00012207	
-0.0142822	
-0.0308228	
-0.0531006	
-0.0769043	
-0.100342	
-0.11853	
-0.130859	
-0.139038	
-0.146118	
-0.152222	
-0.157837	
-0.164734	
-0.170837	
-0.178345	
-0.183533	
-0.190918	
-0.196289	
-0.202881	
-0.210022	
-0.216003	
-0.221863	
-0.224487	
-0.226929	
-0.229614	
-0.230286	
-0.230957	
-0.230164	
-0.226929	
-0.218933	
-0.193237	
-0.14679	
-0.0923462	
-0.0435791	
-0.00970459	
0.0057373	
0.00494385	
-0.00579834	
-0.0223389	
-0.0387573	
-0.057312	
-0.0785522	
-0.0996704	
-0.117737	
-0.132263	
-0.142456	
-0.149475	
-0.15564	
-0.162292	
-0.167969	
-0.172485	
-0.178955	
-0.185303	
-0.192383	
-0.199158	
-0.207153	
-0.215393	
-0.22406	
-0.22998	
-0.233093	
-0.235291	
-0.238159	
-0.240601	
-0.24231	
-0.244385	
-0.246948	
-0.246704	
-0.240234	
-0.217957	
-0.176147	
-0.125488	
-0.0797729	
-0.0471191	
-0.0291748	
-0.0278931	
-0.0368042	
-0.0496216	
-0.0638428	
-0.0821533	
-0.10437	
-0.126526	
-0.14386	
-0.155579	
-0.163696	
-0.168091	
-0.171448	
-0.173767	
-0.175964	
-0.181335	
-0.187256	
-0.193115	
-0.198303	
-0.204956	
-0.213135	
-0.222656	
-0.232361	
-0.23938	
-0.242493	
-0.244873	
-0.247192	
-0.249023	
-0.250671	
-0.25116	
-0.250061	
-0.247131	
-0.231079	
-0.193542	
-0.139465	
-0.0845337	
-0.0435181	
-0.0233765	
-0.0197144	
-0.0274048	
-0.0457153	
-0.0668945	
-0.090332	
-0.11438	
-0.137695	
-0.157898	
-0.172363	
-0.180725	
-0.185608	
-0.185486	
-0.185364	
-0.185486	
-0.1875	
-0.190063	
-0.193665	
-0.199036	
-0.204651	
-0.21051	
-0.217102	
-0.221863	
-0.226074	
-0.228271	
-0.227539	
-0.224792	
-0.222412	
-0.221313	
-0.22229	
-0.222046	
-0.219299	
-0.208557	
-0.178589	
-0.127197	
-0.0690308	
-0.0201416	
0.0117188	
0.0250854	
0.024231	
0.0142822	
-0.00250244	
-0.0217285	
-0.0437622	
-0.0678711	
-0.0929565	
-0.114075	
-0.128052	
-0.135437	
-0.139893	
-0.143311	
-0.146729	
-0.151855	
-0.156006	
-0.16272	
-0.168701	
-0.175049	
-0.182495	
-0.188843	
-0.195007	
-0.201599	
-0.207275	
-0.212524	
-0.217407	
-0.219604	
-0.221008	
-0.221924	
-0.220886	
-0.221313	
-0.219421	
-0.202209	
-0.163513	
-0.110291	
-0.0561523	
-0.0161133	
0.00360107	
0.0078125	
0.000671387	
-0.0128784	
-0.0304565	
-0.0505981	
-0.0733032	
-0.0964355	
-0.116638	
-0.133423	
-0.143738	
-0.148621	
-0.153381	
-0.157043	
-0.160095	
-0.165527	
-0.172607	
-0.180908	
-0.188538	
-0.197266	
-0.204224	
-0.211304	
-0.218201	
-0.225769	
-0.231995	
-0.239441	
-0.244446	
-0.247131	
-0.248535	
-0.248657	
-0.248596	
-0.24762	
-0.24054	
-0.219238	
-0.177429	
-0.121704	
-0.0692749	
-0.0328979	
-0.0151367	
-0.0137329	
-0.0227661	
-0.0377197	
-0.0570679	
-0.0789795	
-0.101563	
-0.122925	
-0.141541	
-0.154236	
-0.164368	
-0.169983	
-0.172607	
-0.17395	
-0.174622	
-0.178528	
-0.186646	
-0.194519	
-0.204895	
-0.214661	
-0.223999	
-0.231689	
-0.238708	
-0.244385	
-0.247742	
-0.250732	
-0.253296	
-0.255432	
-0.256775	
-0.25708	
-0.257874	
-0.256165	
-0.247192	
-0.219604	
-0.170166	
-0.112915	
-0.0614014	
-0.0288696	
-0.0182495	
-0.0234375	
-0.038269	
-0.0583496	
-0.0806885	
-0.103455	
-0.127502	
-0.149963	
-0.167114	
-0.177979	
-0.18457	
-0.187561	
-0.188782	
-0.188843	
-0.188721	
-0.192505	
-0.196472	
-0.201904	
-0.207947	
-0.215454	
-0.221558	
-0.226501	
-0.227844	
-0.228333	
-0.229187	
-0.228271	
-0.227173	
-0.227844	
-0.228638	
-0.230042	
-0.22699	
-0.217224	
-0.191772	
-0.143677	
-0.0820923	
-0.0249023	
0.0137939	
0.0300293	
0.0299072	
0.0200806	
0.0022583	
-0.0194092	
-0.041626	
-0.06427	
-0.0876465	
-0.108582	
-0.124207	
-0.133179	
-0.138428	
-0.141968	
-0.144897	
-0.148254	
-0.154175	
-0.161499	
-0.169006	
-0.176636	
-0.182861	
-0.189148	
-0.194153	
-0.199463	
-0.20459	
-0.207886	
-0.210022	
-0.212708	
-0.2146	
-0.216431	
-0.21875	
-0.218994	
-0.214172	
-0.19635	
-0.158081	
-0.101929	
-0.0464478	
-0.00378418	
0.0209351	
0.0258789	
0.0147705	
-0.00292969	
-0.0227661	
-0.0430298	
-0.0643921	
-0.0875854	
-0.109619	
-0.125549	
-0.136658	
-0.145203	
-0.150757	
-0.154602	
-0.159973	
-0.165649	
-0.170776	
-0.174744	
-0.179871	
-0.187012	
-0.195496	
-0.203003	
-0.211304	
-0.219238	
-0.22644	
-0.232605	
-0.237671	
-0.242676	
-0.24585	
-0.247559	
-0.249939	
-0.250305	
-0.246521	
-0.230225	
-0.191711	
-0.134399	
-0.0744629	
-0.0292358	
-0.00476074	
-0.00134277	
-0.012207	
-0.0296631	
-0.0489502	
-0.0706787	
-0.0949097	
-0.120178	
-0.143372	
-0.159668	
-0.169556	
-0.175598	
-0.179749	
-0.182434	
-0.184631	
-0.186035	
-0.192078	
-0.197021	
-0.203613	
-0.211182	
-0.219604	
-0.226929	
-0.232849	
-0.235657	
-0.237549	
-0.239075	
-0.242859	
-0.248657	
-0.253662	
-0.256653	
-0.259094	
-0.258179	
-0.250671	
-0.223999	
-0.173767	
-0.110901	
-0.0543213	
-0.0184326	
-0.00720215	
-0.0120239	
-0.0271606	
-0.0477905	
-0.0714722	
-0.0960083	
-0.122681	
-0.15033	
-0.172058	
-0.183899	
-0.190735	
-0.193298	
-0.193665	
-0.195068	
-0.19574	
-0.197998	
-0.203186	
-0.208313	
-0.213562	
-0.21875	
-0.224365	
-0.230957	
-0.236023	
-0.23938	
-0.240112	
-0.241333	
-0.240845	
-0.241882	
-0.242371	
-0.242249	
-0.240601	
-0.227722	
-0.189209	
-0.130432	
-0.0646362	
-0.010498	
0.0214233	
0.0319824	
0.0266724	
0.012085	
-0.00598145	
-0.0280762	
-0.0524292	
-0.0767822	
-0.0996094	
-0.119934	
-0.132446	
-0.139526	
-0.146057	
-0.151672	
-0.157043	
-0.162842	
-0.169128	
-0.176025	
-0.18396	
-0.191528	
-0.200256	
-0.208069	
-0.213562	
-0.217224	
-0.22052	
-0.224243	
-0.228699	
-0.231506	
-0.232605	
-0.231873	
-0.229919	
-0.22467	
-0.201233	
-0.152588	
-0.0870361	
-0.0230103	
0.0227661	
0.045166	
0.0492554	
0.0404663	
0.0234375	
0.0022583	
-0.0217896	
-0.0491943	
-0.0790405	
-0.104858	
-0.125732	
-0.138	
-0.144287	
-0.149414	
-0.155334	
-0.160522	
-0.165161	
-0.167664	
-0.170288	
-0.178711	
-0.190308	
-0.200562	
-0.209778	
-0.217041	
-0.220886	
-0.225342	
-0.231323	
-0.236938	
-0.240723	
-0.242737	
-0.245483	
-0.247314	
-0.241333	
-0.212646	
-0.15979	
-0.0946655	
-0.0348511	
0.00598145	
0.0258179	
0.026001	
0.0133667	
-0.00561523	
-0.0271606	
-0.0521851	
-0.0812988	
-0.109985	
-0.132141	
-0.148254	
-0.159119	
-0.164917	
-0.167908	
-0.171631	
-0.17511	
-0.180481	
-0.18866	
-0.19812	
-0.207581	
-0.216309	
-0.226868	
-0.235657	
-0.242859	
-0.248108	
-0.252869	
-0.255737	
-0.259399	
-0.262817	
-0.266663	
-0.270081	
-0.26825	
-0.25293	
-0.214355	
-0.156067	
-0.0921021	
-0.0401611	
-0.00860596	
-0.00115967	
-0.00817871	
-0.0219727	
-0.0419922	
-0.0671997	
-0.0968018	
-0.127808	
-0.153687	
-0.172119	
-0.184448	
-0.190186	
-0.192749	
-0.192993	
-0.19519	
-0.198914	
-0.202148	
-0.207825	
-0.21283	
-0.220093	
-0.229553	
-0.235962	
-0.241089	
-0.246155	
-0.249573	
-0.252014	
-0.253174	
-0.255554	
-0.258667	
-0.260376	
-0.259338	
-0.245422	
-0.210327	
-0.150391	
-0.0796509	
-0.017334	
0.0223389	
0.0383911	
0.0372925	
0.0241089	
0.00592041	
-0.0161743	
-0.0432739	
-0.0734863	
-0.101135	
-0.12323	
-0.137634	
-0.144836	
-0.146973	
-0.150146	
-0.152893	
-0.156311	
-0.160828	
-0.167664	
-0.176758	
-0.18811	
-0.200378	
-0.211853	
-0.221802	
-0.229065	
-0.236267	
-0.24115	
-0.245056	
-0.248779	
-0.252319	
-0.254395	
-0.252502	
-0.243958	
-0.222595	
-0.175598	
-0.107605	
-0.0390625	
0.013855	
0.0430908	
0.0529785	
0.0494995	
0.0359497	
0.0167847	
-0.00732422	
-0.036438	
-0.0686646	
-0.0996704	
-0.125122	
-0.143738	
-0.157043	
-0.167847	
-0.176636	
-0.184204	
-0.191589	
-0.197815	
-0.202576	
-0.208618	
-0.215637	
-0.222778	
-0.230469	
-0.238831	
-0.245361	
-0.250366	
-0.254211	
-0.259216	
-0.264465	
-0.268982	
-0.271301	
-0.271362	
-0.265137	
-0.242249	
-0.195374	
-0.133423	
-0.0719604	
-0.0234985	
0.00463867	
0.0128174	
0.00775146	
-0.00518799	
-0.024231	
-0.0476074	
-0.0731812	
-0.101929	
-0.131897	
-0.15448	
-0.170471	
-0.18158	
-0.189453	
-0.194946	
-0.199829	
-0.205688	
-0.212341	
-0.221436	
-0.230225	
-0.239929	
-0.248535	
-0.258423	
-0.266418	
-0.274719	
-0.283142	
-0.290649	
-0.294556	
-0.296936	
-0.299133	
-0.299011	
-0.297241	
-0.294128	
-0.281921	
-0.250732	
-0.200989	
-0.142944	
-0.0894165	
-0.0519409	
-0.0333252	
-0.0327148	
-0.0414429	
-0.0588379	
-0.081604	
-0.10791	
-0.135925	
-0.163635	
-0.186646	
-0.202271	
-0.21228	
-0.218567	
-0.224731	
-0.230408	
-0.233154	
-0.237	
-0.239136	
-0.243042	
-0.250977	
-0.259094	
-0.265137	
-0.269836	
-0.273865	
-0.277588	
-0.280151	
-0.28125	
-0.281738	
-0.28418	
-0.285034	
-0.284302	
-0.284546	
-0.284424	
-0.27356	
-0.244568	
-0.195251	
-0.134583	
-0.0789795	
-0.0386353	
-0.0162354	
-0.0111694	
-0.0166016	
-0.0269775	
-0.0405884	
-0.0591431	
-0.0831299	
-0.108887	
-0.129272	
-0.146423	
-0.157898	
-0.163391	
-0.166687	
-0.169067	
-0.170532	
-0.173157	
-0.178467	
-0.183533	
-0.19043	
-0.197998	
-0.205078	
-0.21167	
-0.21875	
-0.223694	
-0.226685	
-0.230042	
-0.235535	
-0.239014	
-0.241821	
-0.24176	
-0.240906	
-0.236816	
-0.225464	
-0.198975	
-0.156921	
-0.104736	
-0.0544434	
-0.0157471	
0.00537109	
0.0129395	
0.010498	
0.00146484	
-0.0131836	
-0.0315552	
-0.0531006	
-0.0767212	
-0.0983887	
-0.115295	
-0.129211	
-0.138367	
-0.14447	
-0.150269	
-0.154907	
-0.160156	
-0.163086	
-0.166687	
-0.171143	
-0.178528	
-0.187317	
-0.195801	
-0.204041	
-0.21344	
-0.221069	
-0.22522	
-0.229431	
-0.233948	
-0.236511	
-0.237549	
-0.237671	
-0.234253	
-0.227295	
-0.212463	
-0.179443	
-0.131165	
-0.0787354	
-0.0336304	
-0.003479	
0.0126953	
0.0165405	
0.00964355	
-0.00219727	
-0.0189819	
-0.0376587	
-0.0598145	
-0.0802612	
-0.0973511	
-0.110229	
-0.119202	
-0.125671	
-0.130737	
-0.137756	
-0.144409	
-0.152222	
-0.159119	
-0.166504	
-0.172729	
-0.180176	
-0.186829	
-0.192993	
-0.198975	
-0.2052	
-0.209656	
-0.212463	
-0.21698	
-0.220947	
-0.224121	
-0.226318	
-0.22644	
-0.225098	
-0.218384	
-0.198059	
-0.161377	
-0.112732	
-0.0628052	
-0.0223389	
0.00158691	
0.00982666	
0.00585938	
-0.00262451	
-0.0148926	
-0.0314941	
-0.0534668	
-0.0750122	
-0.0943604	
-0.109192	
-0.120056	
-0.129089	
-0.135986	
-0.141418	
-0.146606	
-0.154724	
-0.16333	
-0.168457	
-0.173767	
-0.179321	
-0.18335	
-0.189087	
-0.192627	
-0.19519	
-0.196716	
-0.197693	
-0.2005	
-0.203735	
-0.20459	
-0.202515	
-0.200989	
-0.199158	
-0.191833	
-0.169922	
-0.129944	
-0.0769043	
-0.0238037	
0.0160522	
0.0393677	
0.0477295	
0.0438232	
0.0340576	
0.0169067	
-0.000976563	
-0.0203247	
-0.0413208	
-0.0601196	
-0.0761108	
-0.0873413	
-0.0944214	
-0.100037	
-0.102173	
-0.103577	
-0.108765	
-0.114685	
-0.121948	
-0.130371	
-0.138367	
-0.147217	
-0.155579	
-0.160767	
-0.164001	
-0.167969	
-0.173096	
-0.178101	
-0.183228	
-0.187683	
-0.190186	
-0.191345	
-0.189514	
-0.179932	
-0.15686	
-0.116272	
-0.0682373	
-0.0236816	
0.00836182	
0.0258179	
0.0284424	
0.0205078	
0.00915527	
-0.00286865	
-0.0178223	
-0.0379028	
-0.0568848	
-0.074585	
-0.0879517	
-0.0977783	
-0.105408	
-0.112915	
-0.119385	
-0.126282	
-0.134216	
-0.141113	
-0.144348	
-0.148987	
-0.156921	
-0.165649	
-0.174438	
-0.182617	
-0.187439	
-0.192139	
-0.195801	
-0.198547	
-0.201233	
-0.2052	
-0.20874	
-0.210754	
-0.209534	
-0.205078	
-0.193665	
-0.166748	
-0.125183	
-0.0802002	
-0.0426025	
-0.020752	
-0.0123291	
-0.0134277	
-0.0220947	
-0.0343018	
-0.0474243	
-0.0628052	
-0.0807495	
-0.100403	
-0.116821	
-0.129395	
-0.137939	
-0.144165	
-0.149109	
-0.155273	
-0.161865	
-0.168457	
-0.175171	
-0.183594	
-0.193481	
-0.201904	
-0.210266	
-0.218506	
-0.225586	
-0.230652	
-0.235352	
-0.237488	
-0.239868	
-0.23938	
-0.239807	
-0.241089	
-0.242981	
-0.244324	
-0.240234	
-0.224426	
-0.192261	
-0.149353	
-0.108337	
-0.0796509	
-0.0664063	
-0.0671997	
-0.0758057	
-0.0896606	
-0.105042	
-0.120422	
-0.135864	
-0.153687	
-0.170471	
-0.181396	
-0.186157	
-0.19043	
-0.194519	
-0.198303	
-0.201294	
-0.2052	
-0.208191	
-0.213135	
-0.218872	
-0.224304	
-0.229675	
-0.235352	
-0.240662	
-0.247009	
-0.250549	
-0.25177	
-0.252747	
-0.252686	
-0.253418	
-0.254028	
-0.253174	
-0.252869	
-0.248047	
-0.228882	
-0.195862	
-0.154297	
-0.114075	
-0.085083	
-0.071228	
-0.0692749	
-0.0731201	
-0.0817261	
-0.0941772	
-0.108887	
-0.124634	
-0.140015	
-0.152954	
-0.162415	
-0.168823	
-0.175171	
-0.179688	
-0.180725	
-0.184265	
-0.188232	
-0.191711	
-0.194092	
-0.196594	
-0.20166	
-0.205444	
-0.209167	
-0.213501	
-0.217285	
-0.220703	
-0.222717	
-0.224792	
-0.227173	
-0.229248	
-0.229065	
-0.227539	
-0.226013	
-0.221436	
-0.205322	
-0.171387	
-0.126404	
-0.0852051	
-0.0574341	
-0.0437012	
-0.0401001	
-0.0457153	
-0.0559692	
-0.0667114	
-0.0797119	
-0.0950928	
-0.112122	
-0.126343	
-0.136169	
-0.142578	
-0.147827	
-0.150635	
-0.153748	
-0.159058	
-0.166199	
-0.172852	
-0.176819	
-0.181824	
-0.186462	
-0.189941	
-0.19397	
-0.199402	
-0.206421	
-0.212097	
-0.216797	
-0.21936	
-0.223145	
-0.22583	
-0.227539	
-0.22876	
-0.228699	
-0.224304	
-0.209167	
-0.176941	
-0.134155	
-0.0935669	
-0.0628052	
-0.0457764	
-0.0424805	
-0.048584	
-0.059021	
-0.0704346	
-0.0839844	
-0.0982666	
-0.112305	
-0.124084	
-0.133301	
-0.139099	
-0.144348	
-0.148926	
-0.152283	
-0.156494	
-0.162109	
-0.168213	
-0.172119	
-0.178162	
-0.185852	
-0.193481	
-0.199341	
-0.206604	
-0.213318	
-0.217957	
-0.220154	
-0.221863	
-0.225281	
-0.228821	
-0.228577	
-0.229309	
-0.230164	
-0.226746	
-0.210632	
-0.177612	
-0.134644	
-0.0929565	
-0.0617676	
-0.0450439	
-0.0420532	
-0.0493164	
-0.0616455	
-0.0753174	
-0.0889893	
-0.105957	
-0.122559	
-0.136292	
-0.146851	
-0.151001	
-0.151245	
-0.151855	
-0.152649	
-0.155518	
-0.159973	
-0.164307	
-0.170959	
-0.176392	
-0.180603	
-0.186157	
-0.191711	
-0.196716	
-0.199036	
-0.201233	
-0.204773	
-0.208374	
-0.210144	
-0.210388	
-0.209106	
-0.208313	
-0.205383	
-0.196106	
-0.171265	
-0.129883	
-0.0817261	
-0.0383911	
-0.0112305	
0.000488281	
0.000610352	
-0.00762939	
-0.0195923	
-0.0327759	
-0.048584	
-0.0683594	
-0.0870361	
-0.10022	
-0.11145	
-0.118774	
-0.122925	
-0.125671	
-0.12738	
-0.13031	
-0.133362	
-0.137024	
-0.140991	
-0.147034	
-0.154846	
-0.162109	
-0.169312	
-0.175537	
-0.179688	
-0.185791	
-0.191284	
-0.196655	
-0.200439	
-0.204102	
-0.206604	
-0.206604	
-0.201599	
-0.187195	
-0.154724	
-0.109436	
-0.0653687	
-0.0305176	
-0.012146	
-0.00646973	
-0.0111084	
-0.0213013	
-0.0343018	
-0.0489502	
-0.0665283	
-0.0854492	
-0.103149	
-0.116821	
-0.126343	
-0.134338	
-0.141663	
-0.146057	
-0.150146	
-0.152527	
-0.157288	
-0.164429	
-0.173035	
-0.181274	
-0.18811	
-0.195374	
-0.200134	
-0.20343	
-0.208618	
-0.212097	
-0.215881	
-0.218872	
-0.22113	
-0.221802	
-0.221375	
-0.219849	
-0.21283	
-0.191223	
-0.153259	
-0.107666	
-0.067627	
-0.0422363	
-0.0313721	
-0.0332642	
-0.0420532	
-0.0549927	
-0.0689087	
-0.086792	
-0.106689	
-0.124268	
-0.13855	
-0.149414	
-0.155029	
-0.158508	
-0.161316	
-0.16449	
-0.167725	
-0.172546	
-0.176575	
-0.183472	
-0.192749	
-0.202209	
-0.211853	
-0.220581	
-0.228516	
-0.23407	
-0.237732	
-0.241211	
-0.245178	
-0.247986	
-0.249634	
-0.251038	
-0.251221	
-0.244934	
-0.225037	
-0.185608	
-0.135864	
-0.0911865	
-0.0612793	
-0.0490112	
-0.0497437	
-0.0617676	
-0.0800171	
-0.0986328	
-0.116882	
-0.136902	
-0.155334	
-0.171448	
-0.182495	
-0.188538	
-0.192383	
-0.196045	
-0.198364	
-0.201538	
-0.204102	
-0.20752	
-0.208557	
-0.210754	
-0.216492	
-0.22345	
-0.228027	
-0.233887	
-0.238708	
-0.242188	
-0.244385	
-0.244324	
-0.246277	
-0.249084	
-0.249268	
-0.247253	
-0.240723	
-0.217468	
-0.174194	
-0.118835	
-0.0684814	
-0.0337524	
-0.0180664	
-0.0170898	
-0.0265503	
-0.041626	
-0.0571899	
-0.0740967	
-0.0917358	
-0.109436	
-0.124939	
-0.137451	
-0.144226	
-0.148071	
-0.151428	
-0.154968	
-0.157288	
-0.160645	
-0.165161	
-0.170044	
-0.178467	
-0.183899	
-0.189453	
-0.19458	
-0.199524	
-0.206177	
-0.211426	
-0.21637	
-0.219177	
-0.220947	
-0.222473	
-0.221069	
-0.218689	
-0.205017	
-0.170288	
-0.120361	
-0.0699463	
-0.0305786	
-0.00787354	
-0.00128174	
-0.0055542	
-0.0151978	
-0.0296021	
-0.0460205	
-0.0657959	
-0.0877075	
-0.106445	
-0.120483	
-0.13147	
-0.140259	
-0.145996	
-0.152161	
-0.156494	
-0.160034	
-0.167419	
-0.174744	
-0.179321	
-0.184692	
-0.190186	
-0.196716	
-0.204834	
-0.21228	
-0.217773	
-0.225525	
-0.233704	
-0.23999	
-0.241943	
-0.242554	
-0.240906	
-0.233215	
-0.20813	
-0.163269	
-0.108093	
-0.0583496	
-0.0266724	
-0.0133667	
-0.0128174	
-0.0213623	
-0.0343018	
-0.0509644	
-0.0692139	
-0.0899658	
-0.110352	
-0.128357	
-0.141724	
-0.151428	
-0.156677	
-0.159912	
-0.164429	
-0.169617	
-0.175659	
-0.181641	
-0.187439	
-0.192932	
-0.201111	
-0.210083	
-0.217346	
-0.225281	
-0.229919	
-0.233398	
-0.237427	
-0.24176	
-0.245544	
-0.24884	
-0.250549	
-0.248108	
-0.233887	
-0.198975	
-0.148682	
-0.0977783	
-0.0578003	
-0.0362549	
-0.0303345	
-0.0343018	
-0.0464478	
-0.0635376	
-0.0859375	
-0.110046	
-0.134216	
-0.156494	
-0.172119	
-0.182373	
-0.187378	
-0.190002	
-0.191895	
-0.193237	
-0.193542	
-0.19696	
-0.202026	
-0.208862	
-0.217712	
-0.223755	
-0.230652	
-0.23761	
-0.242554	
-0.245422	
-0.248596	
-0.251892	
-0.256897	
-0.26001	
-0.260559	
-0.260742	
-0.253113	
-0.227539	
-0.1828	
-0.125671	
-0.0731201	
-0.0396118	
-0.0223389	
-0.0199585	
-0.0279541	
-0.0435181	
-0.0639648	
-0.0861206	
-0.108887	
-0.13031	
-0.14679	
-0.158142	
-0.164734	
-0.167908	
-0.170898	
-0.172058	
-0.175232	
-0.179688	
-0.184021	
-0.188721	
-0.193542	
-0.199341	
-0.205383	
-0.209412	
-0.212341	
-0.215454	
-0.218933	
-0.220459	
-0.222534	
-0.225342	
-0.228638	
-0.229004	
-0.224121	
-0.208191	
-0.171875	
-0.119446	
-0.0646362	
-0.0194092	
0.00939941	
0.0172119	
0.012207	
0	
-0.0162964	
-0.0356445	
-0.0569458	
-0.0789795	
-0.10022	
-0.118469	
-0.130249	
-0.138428	
-0.145325	
-0.151062	
-0.156128	
-0.161194	
-0.168762	
-0.176453	
-0.183655	
-0.190613	
-0.196655	
-0.20343	
-0.213196	
-0.220642	
-0.22583	
-0.229797	
-0.233765	
-0.236694	
-0.240784	
-0.242188	
-0.240601	
-0.236816	
-0.222229	
-0.185974	
-0.133179	
-0.0783691	
-0.0357056	
-0.0108643	
-0.00164795	
-0.00494385	
-0.0148315	
-0.0283813	
-0.0455322	
-0.0666504	
-0.092041	
-0.116638	
-0.137695	
-0.154297	
-0.165344	
-0.171448	
-0.1745	
-0.179199	
-0.185425	
-0.192139	
-0.200134	
-0.208191	
-0.216064	
-0.225647	
-0.235657	
-0.245361	
-0.252075	
-0.256531	
-0.259033	
-0.262268	
-0.266479	
-0.2677	
-0.268677	
-0.267578	
-0.265015	
-0.256104	
-0.229492	
-0.183533	
-0.128357	
-0.0797119	
-0.0487061	
-0.0358276	
-0.0375977	
-0.0493164	
-0.0661011	
-0.0837402	
-0.103577	
-0.126831	
-0.14801	
-0.166504	
-0.179443	
-0.184998	
-0.187927	
-0.190063	
-0.193176	
-0.19928	
-0.206909	
-0.215332	
-0.224121	
-0.231812	
-0.23761	
-0.245239	
-0.252808	
-0.258789	
-0.264282	
-0.265442	
-0.264404	
-0.265564	
-0.266907	
-0.269165	
-0.269653	
-0.267639	
-0.257996	
-0.22937	
-0.181396	
-0.126709	
-0.0793457	
-0.0493774	
-0.0394287	
-0.0432129	
-0.055603	
-0.0708618	
-0.0887451	
-0.109741	
-0.134399	
-0.157532	
-0.174927	
-0.18396	
-0.189148	
-0.190979	
-0.190125	
-0.191284	
-0.193848	
-0.19635	
-0.197754	
-0.200134	
-0.203369	
-0.207214	
-0.2099	
-0.21283	
-0.214722	
-0.215759	
-0.217773	
-0.219727	
-0.222656	
-0.225159	
-0.226074	
-0.226746	
-0.221863	
-0.202393	
-0.161743	
-0.106262	
-0.0545654	
-0.0192261	
-0.00177002	
0.000244141	
-0.00695801	
-0.020874	
-0.038147	
-0.0584717	
-0.0813599	
-0.103027	
-0.124512	
-0.141418	
-0.152893	
-0.160217	
-0.165955	
-0.170471	
-0.174194	
-0.178101	
-0.183105	
-0.188538	
-0.194031	
-0.201416	
-0.208557	
-0.213745	
-0.21875	
-0.222839	
-0.227783	
-0.231506	
-0.235291	
-0.238586	
-0.23938	
-0.238708	
-0.237061	
-0.229553	
-0.205627	
-0.160767	
-0.105042	
-0.055481	
-0.020874	
-0.00457764	
-0.00408936	
-0.0126343	
-0.0255737	
-0.0414429	
-0.0586548	
-0.0811157	
-0.104858	
-0.127991	
-0.14679	
-0.160339	
-0.168945	
-0.172729	
-0.17572	
-0.179749	
-0.183655	
-0.191101	
-0.199829	
-0.207825	
-0.215881	
-0.223145	
-0.230164	
-0.237061	
-0.242859	
-0.247375	
-0.25354	
-0.256836	
-0.258179	
-0.261475	
-0.263367	
-0.260315	
-0.249023	
-0.22052	
-0.172791	
-0.118225	
-0.074585	
-0.0472412	
-0.0378418	
-0.0422974	
-0.0545654	
-0.0708618	
-0.0892334	
-0.110107	
-0.13269	
-0.15509	
-0.172424	
-0.183899	
-0.191162	
-0.194092	
-0.196167	
-0.199402	
-0.204407	
-0.209473	
-0.216431	
-0.223816	
-0.231323	
-0.237854	
-0.243713	
-0.248962	
-0.25177	
-0.252563	
-0.252319	
-0.253235	
-0.25647	
-0.257996	
-0.258545	
-0.259949	
-0.257874	
-0.241394	
-0.204407	
-0.150818	
-0.0958252	
-0.0529175	
-0.0302124	
-0.0258789	
-0.0335083	
-0.0471191	
-0.0649414	
-0.086853	
-0.110962	
-0.134033	
-0.154724	
-0.168823	
-0.17572	
-0.178345	
-0.180237	
-0.181458	
-0.179382	
-0.178833	
-0.181946	
-0.185303	
-0.188599	
-0.191162	
-0.194763	
-0.199585	
-0.20282	
-0.206482	
-0.209534	
-0.211304	
-0.213867	
-0.216187	
-0.217529	
-0.216187	
-0.211487	
-0.19397	
-0.157532	
-0.106567	
-0.0549316	
-0.0131836	
0.0112305	
0.0199585	
0.0198364	
0.0100098	
-0.00653076	
-0.0246582	
-0.0458374	
-0.0699463	
-0.0942383	
-0.112854	
-0.12738	
-0.137024	
-0.14209	
-0.144958	
-0.14856	
-0.153259	
-0.15741	
-0.162292	
-0.167969	
-0.174316	
-0.18103	
-0.188599	
-0.195313	
-0.203003	
-0.208496	
-0.212952	
-0.216003	
-0.21759	
-0.219055	
-0.219055	
-0.218079	
-0.211487	
-0.191101	
-0.151855	
-0.101624	
-0.0534058	
-0.0181885	
-0.00012207	
0.00299072	
-0.00390625	
-0.0159912	
-0.0327148	
-0.0531616	
-0.0768433	
-0.0999146	
-0.118225	
-0.132935	
-0.143494	
-0.149719	
-0.154663	
-0.158875	
-0.162231	
-0.165955	
-0.170654	
-0.177673	
-0.185791	
-0.192993	
-0.198792	
-0.204163	
-0.209534	
-0.215149	
-0.221069	
-0.226379	
-0.232178	
-0.235168	
-0.23584	
-0.23645	
-0.235535	
-0.228882	
-0.211609	
-0.177734	
-0.130249	
-0.081604	
-0.0432129	
-0.0203857	
-0.0120239	
-0.0143433	
-0.0250244	
-0.039978	
-0.0594482	
-0.0819092	
-0.105347	
-0.124023	
-0.139038	
-0.148132	
-0.154297	
-0.158752	
-0.161987	
-0.167175	
-0.173767	
-0.179932	
-0.187317	
-0.194763	
-0.202393	
-0.21051	
-0.218933	
-0.227417	
-0.235474	
-0.240051	
-0.243347	
-0.245422	
-0.247375	
-0.250793	
-0.252319	
-0.251831	
-0.248596	
-0.243774	
-0.229004	
-0.193481	
-0.142151	
-0.0899658	
-0.0509644	
-0.02948	
-0.0255127	
-0.0317993	
-0.0456543	
-0.0614624	
-0.0789795	
-0.101501	
-0.124146	
-0.145142	
-0.160767	
-0.170166	
-0.174683	
-0.177246	
-0.179016	
-0.179932	
-0.183228	
-0.187012	
-0.192078	
-0.197754	
-0.204712	
-0.212219	
-0.219299	
-0.224426	
-0.22998	
-0.23175	
-0.229126	
-0.225464	
-0.221436	
-0.218201	
-0.21521	
-0.213318	
-0.209045	
-0.194946	
-0.163269	
-0.113464	
-0.0563354	
-0.00848389	
0.0216064	
0.0325317	
0.0326538	
0.0240479	
0.0101929	
-0.00567627	
-0.024353	
-0.046875	
-0.0682373	
-0.085022	
-0.09729	
-0.107666	
-0.115417	
-0.121216	
-0.127563	
-0.135193	
-0.141846	
-0.151123	
-0.160706	
-0.16864	
-0.17627	
-0.185425	
-0.192627	
-0.198914	
-0.203613	
-0.205383	
-0.209229	
-0.213928	
-0.215759	
-0.216309	
-0.215027	
-0.211731	
-0.201843	
-0.177246	
-0.13446	
-0.0797119	
-0.0290527	
0.00720215	
0.0256348	
0.0310059	
0.0274658	
0.0153809	
-0.00109863	
-0.019165	
-0.0418091	
-0.0656128	
-0.085083	
-0.100098	
-0.111816	
-0.123535	
-0.132813	
-0.138855	
-0.144592	
-0.152405	
-0.15979	
-0.168762	
-0.177124	
-0.183899	
-0.191467	
-0.19873	
-0.205078	
-0.212036	
-0.215759	
-0.219666	
-0.222473	
-0.225952	
-0.227234	
-0.225952	
-0.223083	
-0.216919	
-0.203674	
-0.171021	
-0.122253	
-0.0685425	
-0.026062	
0.000244141	
0.00799561	
0.00354004	
-0.0055542	
-0.0197754	
-0.0375977	
-0.057312	
-0.0804443	
-0.102539	
-0.119934	
-0.130981	
-0.138611	
-0.146545	
-0.153442	
-0.157043	
-0.161316	
-0.167297	
-0.175964	
-0.184509	
-0.191956	
-0.199036	
-0.207703	
-0.215088	
-0.220703	
-0.225037	
-0.228455	
-0.230835	
-0.231628	
-0.231506	
-0.231567	
-0.232666	
-0.232971	
-0.224182	
-0.200562	
-0.155273	
-0.100098	
-0.0499878	
-0.0162964	
-0.00140381	
-0.00195313	
-0.0132446	
-0.0305786	
-0.0482788	
-0.0697021	
-0.0927734	
-0.114624	
-0.133606	
-0.14502	
-0.15271	
-0.158142	
-0.161316	
-0.164856	
-0.168762	
-0.174316	
-0.179932	
-0.185425	
-0.192627	
-0.198547	
-0.202148	
-0.206848	
-0.211121	
-0.212952	
-0.212036	
-0.211731	
-0.213257	
-0.21521	
-0.216675	
-0.217468	
-0.21698	
-0.20929	
-0.184998	
-0.139038	
-0.0811157	
-0.0291138	
0.00793457	
0.0256348	
0.0272827	
0.0184937	
0.00482178	
-0.0123901	
-0.0324707	
-0.0547485	
-0.0770264	
-0.098999	
-0.116333	
-0.127258	
-0.134766	
-0.139282	
-0.144775	
-0.15094	
-0.158203	
-0.167053	
-0.175049	
-0.182495	
-0.191833	
-0.200867	
-0.207886	
-0.214417	
-0.220459	
-0.226135	
-0.228882	
-0.231018	
-0.231262	
-0.231384	
-0.232056	
-0.230408	
-0.22699	
-0.210999	
-0.172241	
-0.117981	
-0.0635986	
-0.0217896	
0.00463867	
0.0174561	
0.0168457	
0.0057373	
-0.010498	
-0.0320435	
-0.0559692	
-0.0824585	
-0.105896	
-0.122681	
-0.136108	
-0.145386	
-0.151855	
-0.157166	
-0.161377	
-0.167053	
-0.173218	
-0.180115	
-0.187561	
-0.19635	
-0.205017	
-0.212524	
-0.219299	
-0.22583	
-0.232605	
-0.238037	
-0.23999	
-0.242615	
-0.246033	
-0.248901	
-0.251221	
-0.250793	
-0.243591	
-0.223083	
-0.180725	
-0.12384	
-0.0690308	
-0.0275269	
-0.00518799	
0.000305176	
-0.00421143	
-0.0166626	
-0.0317993	
-0.0489502	
-0.071106	
-0.0935059	
-0.113525	
-0.131958	
-0.146667	
-0.156372	
-0.162415	
-0.169067	
-0.176514	
-0.184143	
-0.192627	
-0.20105	
-0.209595	
-0.219177	
-0.227478	
-0.235291	
-0.241333	
-0.246399	
-0.249329	
-0.250793	
-0.251709	
-0.251892	
-0.253784	
-0.254089	
-0.254028	
-0.253113	
-0.249268	
-0.233826	
-0.195435	
-0.140869	
-0.0875244	
-0.046814	
-0.0252686	
-0.0205688	
-0.02948	
-0.0455933	
-0.0632935	
-0.0818481	
-0.102356	
-0.123108	
-0.141602	
-0.157227	
-0.16748	
-0.172852	
-0.176025	
-0.179077	
-0.181091	
-0.182129	
-0.184875	
-0.188538	
-0.192749	
-0.19812	
-0.205078	
-0.212708	
-0.219238	
-0.223999	
-0.227539	
-0.231934	
-0.234497	
-0.235291	
-0.236023	
-0.23761	
-0.238098	
-0.238586	
-0.231873	
-0.2099	
-0.166016	
-0.111206	
-0.0603638	
-0.0209351	
-0.000671387	
0.00469971	
-0.00274658	
-0.017395	
-0.03479	
-0.0535889	
-0.0736694	
-0.097229	
-0.118347	
-0.134583	
-0.144409	
-0.150452	
-0.15448	
-0.160339	
-0.166931	
-0.172546	
-0.179504	
-0.186035	
-0.192505	
-0.200134	
-0.20636	
-0.213745	
-0.221436	
-0.227051	
-0.231873	
-0.234253	
-0.234375	
-0.234558	
-0.236572	
-0.237366	
-0.235779	
-0.235779	
-0.232971	
-0.219238	
-0.183655	
-0.130493	
-0.074585	
-0.0307617	
-0.00445557	
0.00494385	
0.00128174	
-0.0103149	
-0.0270386	
-0.0476685	
-0.0703125	
-0.0941162	
-0.115784	
-0.132935	
-0.146179	
-0.15509	
-0.161682	
-0.166138	
-0.167175	
-0.169678	
-0.175171	
-0.18219	
-0.188354	
-0.193054	
-0.199036	
-0.206482	
-0.212708	
-0.217834	
-0.224243	
-0.229187	
-0.232361	
-0.233948	
-0.235229	
-0.237122	
-0.23645	
-0.237793	
-0.236755	
-0.230286	
-0.207397	
-0.163208	
-0.110107	
-0.0631714	
-0.0298462	
-0.0152588	
-0.0136108	
-0.0223389	
-0.0357056	
-0.0510254	
-0.0714111	
-0.0950928	
-0.119263	
-0.140076	
-0.15387	
-0.161743	
-0.166931	
-0.168579	
-0.17041	
-0.174011	
-0.178345	
-0.183655	
-0.190491	
-0.198792	
-0.209534	
-0.218933	
-0.22467	
-0.228943	
-0.233032	
-0.236145	
-0.23999	
-0.241821	
-0.242737	
-0.243774	
-0.245483	
-0.246765	
-0.24707	
-0.239136	
-0.213928	
-0.167969	
-0.113831	
-0.0675049	
-0.0380859	
-0.0261841	
-0.0280151	
-0.039856	
-0.0563965	
-0.0740967	
-0.0930176	
-0.114502	
-0.136047	
-0.154785	
-0.165894	
-0.173462	
-0.177002	
-0.181152	
-0.183838	
-0.186401	
-0.190002	
-0.194946	
-0.200134	
-0.203857	
-0.207458	
-0.21106	
-0.216125	
-0.220642	
-0.225525	
-0.22876	
-0.230164	
-0.231201	
-0.233154	
-0.23468	
-0.236267	
-0.23468	
-0.229675	
-0.211426	
-0.171326	
-0.116882	
-0.0639038	
-0.0244141	
-0.00195313	
0.00463867	
-6.10352E-05	
-0.0129395	
-0.0305176	
-0.0514526	
-0.072998	
-0.0950317	
-0.112671	
-0.128845	
-0.141235	
-0.146667	
-0.150146	
-0.154602	
-0.157654	
-0.162231	
-0.169434	
-0.1745	
-0.179932	
-0.186646	
-0.193298	
-0.199585	
-0.204712	
-0.21106	
-0.215881	
-0.21875	
-0.221985	
-0.223938	
-0.226074	
-0.227722	
-0.226868	
-0.225952	
-0.223328	
-0.206238	
-0.16571	
-0.110291	
-0.05896	
-0.0214844	
-0.00317383	
0.00213623	
-0.00219727	
-0.0140381	
-0.0305786	
-0.050293	
-0.0722046	
-0.093689	
-0.113892	
-0.129578	
-0.138367	
-0.143799	
-0.148071	
-0.152649	
-0.158813	
-0.165283	
-0.171387	
-0.176453	
-0.182922	
-0.190674	
-0.197815	
-0.2052	
-0.213684	
-0.219666	
-0.224426	
-0.230408	
-0.234619	
-0.23877	
-0.243958	
-0.245422	
-0.244873	
-0.243958	
-0.238281	
-0.217957	
-0.178223	
-0.125916	
-0.072876	
-0.0330811	
-0.0125122	
-0.00939941	
-0.0157471	
-0.0310059	
-0.0487671	
-0.0688477	
-0.0935669	
-0.118774	
-0.140198	
-0.154602	
-0.162231	
-0.166565	
-0.170044	
-0.173645	
-0.178162	
-0.183472	
-0.189148	
-0.194824	
-0.200928	
-0.208252	
-0.216125	
-0.224548	
-0.231262	
-0.237854	
-0.243774	
-0.246826	
-0.248169	
-0.249207	
-0.248901	
-0.250854	
-0.253052	
-0.253967	
-0.246094	
-0.21814	
-0.171326	
-0.117188	
-0.0700073	
-0.0384521	
-0.0278931	
-0.0322266	
-0.0457153	
-0.0638428	
-0.085083	
-0.107605	
-0.132385	
-0.155579	
-0.172302	
-0.181946	
-0.188965	
-0.190186	
-0.189209	
-0.191589	
-0.196106	
-0.201721	
-0.20752	
-0.215271	
-0.22406	
-0.22937	
-0.232605	
-0.235901	
-0.239502	
-0.241943	
-0.244019	
-0.245605	
-0.246826	
-0.24646	
-0.247437	
-0.248108	
-0.247131	
-0.24353	
-0.223938	
-0.181213	
-0.123047	
-0.06604	
-0.0234375	
-0.000610352	
0.003479	
-0.00408936	
-0.0164185	
-0.03302	
-0.0526733	
-0.0740967	
-0.0950928	
-0.113098	
-0.128479	
-0.138367	
-0.142944	
-0.146729	
-0.150269	
-0.15741	
-0.165161	
-0.172119	
-0.180481	
-0.187866	
-0.195679	
-0.20282	
-0.20752	
-0.211792	
-0.216187	
-0.219788	
-0.221802	
-0.226685	
-0.22937	
-0.226685	
-0.226379	
-0.224609	
-0.218811	
-0.208923	
-0.17688	
-0.123169	
-0.0657349	
-0.0166016	
0.0112915	
0.0199585	
0.0147705	
0.000366211	
-0.015564	
-0.0340576	
-0.0571899	
-0.0795288	
-0.102783	
-0.121521	
-0.136963	
-0.14856	
-0.154114	
-0.15863	
-0.163147	
-0.166992	
-0.172791	
-0.17804	
-0.185669	
-0.192505	
-0.197693	
-0.206909	
-0.216248	
-0.222168	
-0.227539	
-0.230164	
-0.231262	
-0.233032	
-0.233093	
-0.234009	
-0.23468	
-0.235168	
-0.232971	
-0.214111	
-0.176331	
-0.122437	
-0.0695801	
-0.0313721	
-0.00811768	
-0.003479	
-0.0117798	
-0.0251465	
-0.0466309	
-0.0682373	
-0.0935059	
-0.118652	
-0.137695	
-0.153198	
-0.16217	
-0.168335	
-0.173401	
-0.177917	
-0.182983	
-0.188904	
-0.194336	
-0.203186	
-0.211853	
-0.220398	
-0.228821	
-0.235718	
-0.240295	
-0.245361	
-0.250671	
-0.255005	
-0.256714	
-0.256653	
-0.257385	
-0.258606	
-0.258057	
-0.255432	
-0.242737	
-0.21051	
-0.164368	
-0.114136	
-0.0742798	
-0.0492554	
-0.043396	
-0.0517578	
-0.0667725	
-0.0860596	
-0.106873	
-0.128296	
-0.150818	
-0.1698	
-0.182861	
-0.188782	
-0.192139	
-0.195251	
-0.198792	
-0.203674	
-0.208923	
-0.213562	
-0.219543	
-0.226196	
-0.234192	
-0.242126	
-0.249756	
-0.256897	
-0.259644	
-0.260986	
-0.262573	
-0.264648	
-0.265503	
-0.264587	
-0.262939	
-0.260254	
-0.252136	
-0.230225	
-0.185364	
-0.128052	
-0.0733643	
-0.0322266	
-0.00946045	
-0.00366211	
-0.00970459	
-0.0205688	
-0.0363159	
-0.055603	
-0.0767212	
-0.100403	
-0.121094	
-0.137146	
-0.148132	
-0.154419	
-0.159851	
-0.16571	
-0.170715	
-0.174683	
-0.180054	
-0.186523	
-0.193848	
-0.201111	
-0.209656	
-0.217834	
-0.225952	
-0.232849	
-0.238464	
-0.243713	
-0.247681	
-0.250549	
-0.251831	
-0.252197	
-0.251709	
-0.24707	
-0.227417	
-0.187439	
-0.134216	
-0.0829468	
-0.0442505	
-0.0213623	
-0.0140381	
-0.0183716	
-0.0304565	
-0.0464478	
-0.0639038	
-0.0863647	
-0.108459	
-0.128235	
-0.144836	
-0.157227	
-0.163025	
-0.165649	
-0.167664	
-0.171509	
-0.177551	
-0.184326	
-0.192078	
-0.198242	
-0.203735	
-0.209167	
-0.215332	
-0.221069	
-0.227051	
-0.232666	
-0.236267	
-0.239685	
-0.241699	
-0.244995	
-0.246704	
-0.245667	
-0.244202	
-0.234619	
-0.207825	
-0.165344	
-0.118347	
-0.0765991	
-0.0488281	
-0.038147	
-0.0395508	
-0.0480957	
-0.0606079	
-0.0780029	
-0.0977173	
-0.117615	
-0.137939	
-0.154663	
-0.165527	
-0.172913	
-0.178223	
-0.181213	
-0.184692	
-0.190063	
-0.196167	
-0.202576	
-0.209229	
-0.216675	
-0.224304	
-0.231018	
-0.235962	
-0.240356	
-0.24408	
-0.244812	
-0.248047	
-0.250916	
-0.251404	
-0.249817	
-0.248108	
-0.2453	
-0.241272	
-0.226685	
-0.196106	
-0.154846	
-0.112793	
-0.0795898	
-0.0621948	
-0.0585938	
-0.0652466	
-0.0765381	
-0.0887451	
-0.103394	
-0.124878	
-0.146179	
-0.165161	
-0.178345	
-0.186829	
-0.192444	
-0.197449	
-0.200439	
-0.202454	
-0.204285	
-0.208496	
-0.212036	
-0.21637	
-0.220154	
-0.224731	
-0.229492	
-0.233093	
-0.235107	
-0.236572	
-0.239258	
-0.240601	
-0.23938	
-0.240723	
-0.23822	
-0.234009	
-0.227112	
-0.209595	
-0.174866	
-0.126587	
-0.074585	
-0.0334473	
-0.00897217	
-6.10352E-05	
-0.0010376	
-0.00939941	
-0.0222168	
-0.0391846	
-0.0599976	
-0.0823975	
-0.102173	
-0.118713	
-0.129333	
-0.135254	
-0.138	
-0.139465	
-0.141541	
-0.145935	
-0.151917	
-0.156311	
-0.161804	
-0.168274	
-0.174194	
-0.179993	
-0.185486	
-0.191284	
-0.196045	
-0.200684	
-0.204468	
-0.208557	
-0.210999	
-0.210144	
-0.208923	
-0.205994	
-0.202454	
-0.187744	
-0.154968	
-0.107239	
-0.0576782	
-0.0181274	
0.00720215	
0.0161743	
0.0131226	
0.00286865	
-0.0123291	
-0.0299072	
-0.0504761	
-0.0744629	
-0.0960083	
-0.113037	
-0.126587	
-0.134033	
-0.136658	
-0.137573	
-0.14032	
-0.144226	
-0.14978	
-0.154968	
-0.161804	
-0.168274	
-0.174377	
-0.181213	
-0.186157	
-0.192505	
-0.198059	
-0.202637	
-0.205688	
-0.207703	
-0.209717	
-0.212524	
-0.214722	
-0.214355	
-0.209595	
-0.191895	
-0.157166	
-0.109619	
-0.0616455	
-0.0256348	
-0.00640869	
-0.000549316	
-0.0065918	
-0.0199585	
-0.0363159	
-0.0545044	
-0.0752563	
-0.0974121	
-0.117676	
-0.131531	
-0.142029	
-0.149109	
-0.154114	
-0.157776	
-0.164368	
-0.174561	
-0.185364	
-0.195923	
-0.205261	
-0.212952	
-0.219421	
-0.224182	
-0.230652	
-0.236694	
-0.240417	
-0.243774	
-0.247192	
-0.250671	
-0.253113	
-0.253845	
-0.255493	
-0.254089	
-0.242432	
-0.213379	
-0.166077	
-0.112732	
-0.0670776	
-0.0392456	
-0.0279541	
-0.0303955	
-0.0410767	
-0.057251	
-0.0770264	
-0.0998535	
-0.123413	
-0.145996	
-0.164673	
-0.177673	
-0.186707	
-0.191528	
-0.194336	
-0.195129	
-0.196472	
-0.197632	
-0.199341	
-0.202881	
-0.205688	
-0.21228	
-0.218079	
-0.222656	
-0.226318	
-0.230774	
-0.234436	
-0.237915	
-0.239319	
-0.237976	
-0.238464	
-0.239868	
-0.23584	
-0.218872	
-0.180908	
-0.12384	
-0.062439	
-0.0136719	
0.0147705	
0.0231323	
0.0179443	
0.00415039	
-0.0167847	
-0.0397339	
-0.0657349	
-0.0927124	
-0.114197	
-0.126099	
-0.131653	
-0.130493	
-0.126648	
-0.122009	
-0.117065	
-0.113647	
-0.113159	
-0.116455	
-0.122986	
-0.129333	
-0.135315	
-0.140503	
-0.145996	
-0.147217	
-0.146606	
-0.148987	
-0.151123	
-0.154785	
-0.15741	
-0.156555	
-0.148132	
-0.128845	
-0.0905762	
-0.0372314	
0.0157471	
0.0546265	
0.0755615	
0.079834	
0.0716553	
0.0564575	
0.0366211	
0.0137329	
-0.0145874	
-0.0458374	
-0.0745239	
-0.0983887	
-0.116272	
-0.127441	
-0.135559	
-0.143005	
-0.150208	
-0.155273	
-0.161133	
-0.16925	
-0.177673	
-0.187439	
-0.19696	
-0.207336	
-0.217529	
-0.228271	
-0.239502	
-0.249512	
-0.258301	
-0.264221	
-0.266174	
-0.264954	
-0.254883	
-0.223389	
-0.169617	
-0.102905	
-0.0405273	
0.00769043	
0.0375977	
0.0510254	
0.0493164	
0.0356445	
0.0167847	
-0.00689697	
-0.0341187	
-0.0599365	
-0.0830688	
-0.0993042	
-0.108887	
-0.113098	
-0.115112	
-0.117676	
-0.123108	
-0.129639	
-0.134033	
-0.137817	
-0.141724	
-0.147217	
-0.153625	
-0.160217	
-0.164551	
-0.167786	
-0.171265	
-0.17511	
-0.178467	
-0.18103	
-0.183228	
-0.18158	
-0.166687	
-0.135803	
-0.0939941	
-0.0516968	
-0.0182495	
-0.000915527	
0.00189209	
-0.00531006	
-0.0197754	
-0.0392456	
-0.0634766	
-0.0897827	
-0.116333	
-0.139954	
-0.158081	
-0.172852	
-0.182922	
-0.188416	
-0.191101	
-0.19574	
-0.201477	
-0.205994	
-0.211487	
-0.216309	
-0.221436	
-0.227539	
-0.235535	
-0.241516	
-0.247864	
-0.253662	
-0.26001	
-0.26416	
-0.267334	
-0.270203	
-0.268494	
-0.25592	
-0.225281	
-0.18103	
-0.134216	
-0.0979004	
-0.0783691	
-0.0717773	
-0.0759888	
-0.0878906	
-0.102661	
-0.119568	
-0.137146	
-0.153442	
-0.16687	
-0.176147	
-0.179749	
-0.180359	
-0.181824	
-0.184082	
-0.187622	
-0.191284	
-0.196167	
-0.201599	
-0.207825	
-0.212036	
-0.216431	
-0.22052	
-0.22406	
-0.229248	
-0.233948	
-0.237976	
-0.242371	
-0.243469	
-0.241943	
-0.237976	
-0.227539	
-0.206055	
-0.174194	
-0.137024	
-0.108337	
-0.0903931	
-0.0847778	
-0.0889282	
-0.0980225	
-0.111084	
-0.126343	
-0.141907	
-0.155945	
-0.165527	
-0.172546	
-0.17804	
-0.183289	
-0.188782	
-0.195496	
-0.20166	
-0.206787	
-0.211182	
-0.21637	
-0.222534	
-0.227966	
-0.231689	
-0.235107	
-0.239502	
-0.245239	
-0.248474	
-0.253784	
-0.259033	
-0.261658	
-0.264404	
-0.265808	
-0.263306	
-0.254883	
-0.23407	
-0.207092	
-0.181519	
-0.163635	
-0.153748	
-0.151794	
-0.155151	
-0.161438	
-0.16803	
-0.176636	
-0.185669	
-0.194702	
-0.200195	
-0.203003	
-0.204346	
-0.203979	
-0.204041	
-0.207092	
-0.211609	
-0.217224	
-0.22229	
-0.224792	
-0.227966	
-0.231689	
-0.236389	
-0.239136	
-0.240417	
-0.242615	
-0.242493	
-0.242615	
-0.243042	
-0.241882	
-0.241333	
-0.240479	
-0.238159	
-0.231689	
-0.215515	
-0.192444	
-0.172913	
-0.161194	
-0.157776	
-0.160645	
-0.165039	
-0.169434	
-0.174622	
-0.176819	
-0.176636	
-0.174988	
-0.169556	
-0.163818	
-0.15741	
-0.150513	
-0.143738	
-0.137573	
-0.131775	
-0.127991	
-0.124268	
-0.119751	
-0.11499	
-0.110535	
-0.108704	
-0.105835	
-0.102417	
-0.100037	
-0.10022	
-0.100769	
-0.102661	
-0.104736	
-0.106628	
-0.109497	
-0.111328	
-0.106995	
-0.0968018	
-0.0856323	
-0.0769043	
-0.0709229	
-0.0697021	
-0.0703125	
-0.0703735	
-0.0704956	
-0.0713501	
-0.0756226	
-0.0811768	
-0.0856934	
-0.088501	
-0.086853	
-0.085022	
-0.0847168	
-0.0870361	
-0.0915527	
-0.0980835	
-0.102966	
-0.105835	
-0.10791	
-0.110779	
-0.114807	
-0.116943	
-0.11908	
-0.121521	
-0.124878	
-0.129272	
-0.13385	
-0.138367	
-0.143677	
-0.148376	
-0.152527	
-0.156433	
-0.157471	
-0.155151	
-0.147705	
-0.138367	
-0.130249	
-0.124146	
-0.122437	
-0.122375	
-0.122681	
-0.12207	
-0.121277	
-0.118103	
-0.11438	
-0.114624	
-0.114502	
-0.112305	
-0.109924	
-0.109375	
-0.110901	
-0.113708	
-0.117615	
-0.124329	
-0.128662	
-0.132568	
-0.137268	
-0.138184	
-0.138245	
-0.139954	
-0.143616	
-0.148315	
-0.153442	
-0.159363	
-0.165894	
-0.172729	
-0.177734	
-0.180115	
-0.180786	
-0.181213	
-0.182373	
-0.180481	
-0.172607	
-0.162415	
-0.155884	
-0.152832	
-0.151001	
-0.151672	
-0.15332	
-0.153809	
-0.153503	
-0.154968	
-0.155396	
-0.155518	
-0.154358	
-0.1521	
-0.149719	
-0.148254	
-0.145813	
-0.145386	
-0.150574	
-0.15448	
-0.159912	
-0.164124	
-0.165649	
-0.16687	
-0.167786	
-0.170227	
-0.172485	
-0.172852	
-0.172729	
-0.173584	
-0.177124	
-0.182251	
-0.185547	
-0.187317	
-0.190063	
-0.191101	
-0.191284	
-0.190918	
-0.186035	
-0.178894	
-0.174133	
-0.170288	
-0.168762	
-0.171997	
-0.175476	
-0.177551	
-0.177551	
-0.176025	
-0.174561	
-0.170349	
-0.165222	
-0.158569	
-0.15271	
-0.148315	
-0.145752	
-0.144897	
-0.148315	
-0.153259	
-0.157288	
-0.161377	
-0.164551	
-0.166199	
-0.167542	
-0.167725	
-0.170044	
-0.172241	
-0.174194	
-0.176147	
-0.178589	
-0.179382	
-0.180359	
-0.180786	
-0.179932	
-0.180481	
-0.180847	
-0.179504	
-0.17572	
-0.167419	
-0.159058	
-0.153931	
-0.151245	
-0.150818	
-0.155457	
-0.161133	
-0.165649	
-0.170105	
-0.171692	
-0.171143	
-0.167908	
-0.162964	
-0.158569	
-0.155762	
-0.154358	
-0.152954	
-0.152466	
-0.153442	
-0.154602	
-0.154785	
-0.154602	
-0.152039	
-0.148499	
-0.144775	
-0.138916	
-0.132446	
-0.127258	
-0.124878	
-0.122681	
-0.121155	
-0.119263	
-0.115601	
-0.111511	
-0.107971	
-0.102844	
-0.0967407	
-0.088501	
-0.0792236	
-0.0743408	
-0.0724487	
-0.0734863	
-0.074646	
-0.0760498	
-0.0754395	
-0.0762329	
-0.0786743	
-0.0828247	
-0.0883789	
-0.0894775	
-0.0889282	
-0.0898438	
-0.0918579	
-0.0944214	
-0.0961304	
-0.098877	
-0.100159	
-0.101074	
-0.103455	
-0.105835	
-0.107788	
-0.110046	
-0.111023	
-0.113342	
-0.113647	
-0.11615	
-0.119507	
-0.123596	
-0.127747	
-0.13147	
-0.135254	
-0.137939	
-0.140625	
-0.138855	
-0.13324	
-0.127869	
-0.121338	
-0.117432	
-0.117004	
-0.120422	
-0.124207	
-0.127014	
-0.130066	
-0.134705	
-0.139404	
-0.141907	
-0.143005	
-0.144348	
-0.146179	
-0.146973	
-0.150269	
-0.155334	
-0.157776	
-0.161194	
-0.164246	
-0.165955	
-0.168274	
-0.172241	
-0.175354	
-0.179443	
-0.183899	
-0.188782	
-0.192932	
-0.195557	
-0.196838	
-0.200195	
-0.204102	
-0.207214	
-0.208984	
-0.208496	
-0.207764	
-0.203735	
-0.192627	
-0.179932	
-0.167969	
-0.161255	
-0.160645	
-0.16217	
-0.167297	
-0.171875	
-0.175842	
-0.180725	
-0.187317	
-0.191528	
-0.1922	
-0.18927	
-0.186951	
-0.186035	
-0.187561	
-0.189148	
-0.191589	
-0.192749	
-0.194824	
-0.19519	
-0.19397	
-0.191528	
-0.192017	
-0.190613	
-0.1922	
-0.195068	
-0.197632	
-0.200562	
-0.204285	
-0.208374	
-0.20874	
-0.207153	
-0.20575	
-0.203796	
-0.199646	
-0.190857	
-0.177795	
-0.162048	
-0.148193	
-0.140747	
-0.137634	
-0.138306	
-0.140808	
-0.143005	
-0.147095	
-0.153442	
-0.157837	
-0.159302	
-0.159241	
-0.158691	
-0.160217	
-0.161865	
-0.16571	
-0.171387	
-0.174927	
-0.176086	
-0.180664	
-0.183044	
-0.185303	
-0.189026	
-0.192993	
-0.196777	
-0.200134	
-0.202881	
-0.204529	
-0.20575	
-0.20636	
-0.205688	
-0.205383	
-0.207397	
-0.20813	
-0.206299	
-0.199951	
-0.1875	
-0.170105	
-0.15271	
-0.140381	
-0.13501	
-0.135986	
-0.140564	
-0.143555	
-0.14801	
-0.153076	
-0.159851	
-0.164795	
-0.167053	
-0.169067	
-0.17041	
-0.171265	
-0.173096	
-0.175781	
-0.176758	
-0.179199	
-0.182312	
-0.182861	
-0.182556	
-0.182617	
-0.183044	
-0.183777	
-0.183289	
-0.183167	
-0.183838	
-0.184631	
-0.185547	
-0.1875	
-0.190063	
-0.190918	
-0.189575	
-0.185669	
-0.178101	
-0.162415	
-0.136658	
-0.110962	
-0.0919189	
-0.0789795	
-0.0724487	
-0.0713501	
-0.0736084	
-0.0759277	
-0.0778198	
-0.081543	
-0.0853271	
-0.0880127	
-0.0883179	
-0.088501	
-0.0886841	
-0.0913696	
-0.0961304	
-0.101196	
-0.105896	
-0.109253	
-0.111755	
-0.113281	
-0.114807	
-0.117371	
-0.119019	
-0.121094	
-0.124207	
-0.126465	
-0.128479	
-0.13208	
-0.136108	
-0.139709	
-0.143127	
-0.144958	
-0.147705	
-0.145203	
-0.133118	
-0.111816	
-0.0887451	
-0.0704956	
-0.0594482	
-0.0570068	
-0.0613403	
-0.0679321	
-0.0750122	
-0.0820313	
-0.0916748	
-0.10321	
-0.113586	
-0.120178	
-0.124817	
-0.129028	
-0.131775	
-0.133972	
-0.136902	
-0.142395	
-0.148193	
-0.154663	
-0.160522	
-0.165161	
-0.169922	
-0.17572	
-0.181824	
-0.188416	
-0.195435	
-0.201843	
-0.207703	
-0.214111	
-0.221191	
-0.226013	
-0.229553	
-0.230103	
-0.227112	
-0.217834	
-0.197266	
-0.167725	
-0.136963	
-0.113098	
-0.100464	
-0.0982056	
-0.102051	
-0.108215	
-0.115967	
-0.123291	
-0.133484	
-0.143555	
-0.151123	
-0.15509	
-0.156738	
-0.156494	
-0.157288	
-0.161743	
-0.168335	
-0.173401	
-0.176758	
-0.180298	
-0.182434	
-0.185913	
-0.188904	
-0.193726	
-0.197754	
-0.200378	
-0.204895	
-0.209106	
-0.211365	
-0.212463	
-0.2146	
-0.218018	
-0.219482	
-0.217773	
-0.216797	
-0.212097	
-0.196655	
-0.170532	
-0.140015	
-0.112854	
-0.093811	
-0.0863647	
-0.0894775	
-0.0949097	
-0.101807	
-0.11084	
-0.121887	
-0.134399	
-0.146545	
-0.154663	
-0.158203	
-0.160889	
-0.161865	
-0.164063	
-0.164063	
-0.164551	
-0.166382	
-0.168884	
-0.172058	
-0.175049	
-0.179504	
-0.186951	
-0.191895	
-0.196411	
-0.200073	
-0.204773	
-0.208557	
-0.211182	
-0.213379	
-0.21521	
-0.217041	
-0.216125	
-0.214172	
-0.209656	
-0.195007	
-0.167725	
-0.132935	
-0.102966	
-0.0863037	
-0.0809326	
-0.085022	
-0.0932617	
-0.104004	
-0.114563	
-0.126953	
-0.139404	
-0.148926	
-0.155396	
-0.157654	
-0.15863	
-0.161377	
-0.16449	
-0.165833	
-0.166992	
-0.16803	
-0.168945	
-0.169495	
-0.171387	
-0.172668	
-0.174744	
-0.178101	
-0.179565	
-0.179871	
-0.178894	
-0.178955	
-0.179932	
-0.17865	
-0.175049	
-0.171326	
-0.169006	
-0.166992	
-0.156128	
-0.131226	
-0.098999	
-0.0670166	
-0.041748	
-0.0287476	
-0.0240479	
-0.0263062	
-0.0327148	
-0.0423584	
-0.0543823	
-0.0679932	
-0.0808105	
-0.0923462	
-0.101196	
-0.106323	
-0.109192	
-0.109436	
-0.112	
-0.115784	
-0.119202	
-0.122253	
-0.124084	
-0.12677	
-0.132263	
-0.138489	
-0.142883	
-0.149475	
-0.154236	
-0.160767	
-0.166565	
-0.170471	
-0.173462	
-0.174744	
-0.17804	
-0.181091	
-0.182373	
-0.179871	
-0.171387	
-0.149597	
-0.115906	
-0.0823975	
-0.0557251	
-0.0407715	
-0.0358276	
-0.0403442	
-0.0482178	
-0.0584106	
-0.0693359	
-0.0803223	
-0.09375	
-0.106201	
-0.115784	
-0.122559	
-0.127686	
-0.131531	
-0.135315	
-0.140137	
-0.145569	
-0.151367	
-0.15686	
-0.160706	
-0.165955	
-0.17218	
-0.176208	
-0.182312	
-0.190796	
-0.197205	
-0.200378	
-0.204407	
-0.209351	
-0.213013	
-0.215942	
-0.219788	
-0.224121	
-0.226135	
-0.2229	
-0.208374	
-0.17981	
-0.142395	
-0.106323	
-0.0790405	
-0.0648804	
-0.0617065	
-0.067688	
-0.0779419	
-0.0891724	
-0.101563	
-0.115662	
-0.130554	
-0.143738	
-0.152161	
-0.157654	
-0.162476	
-0.164978	
-0.169189	
-0.173279	
-0.177673	
-0.18396	
-0.189087	
-0.192688	
-0.197632	
-0.20282	
-0.207214	
-0.211121	
-0.2146	
-0.219666	
-0.223755	
-0.224609	
-0.226013	
-0.227661	
-0.22876	
-0.229065	
-0.228333	
-0.227234	
-0.224792	
-0.214294	
-0.189209	
-0.152222	
-0.11261	
-0.0809937	
-0.0648193	
-0.0608521	
-0.0641479	
-0.0723267	
-0.083252	
-0.0950928	
-0.110657	
-0.128235	
-0.143066	
-0.153442	
-0.159912	
-0.16272	
-0.164612	
-0.169617	
-0.172607	
-0.176147	
-0.181091	
-0.188904	
-0.195618	
-0.200378	
-0.20459	
-0.208923	
-0.2146	
-0.221558	
-0.226318	
-0.228943	
-0.231628	
-0.233398	
-0.235901	
-0.236328	
-0.236511	
-0.234985	
-0.232239	
-0.230591	
-0.227051	
-0.212952	
-0.186401	
-0.149536	
-0.112488	
-0.0874634	
-0.076416	
-0.0758667	
-0.0838013	
-0.0957642	
-0.108398	
-0.123657	
-0.139771	
-0.155396	
-0.169556	
-0.17749	
-0.181641	
-0.18457	
-0.188843	
-0.190552	
-0.189941	
-0.190002	
-0.194214	
-0.196838	
-0.200073	
-0.205688	
-0.21106	
-0.215942	
-0.220581	
-0.225098	
-0.226746	
-0.227783	
-0.228943	
-0.22998	
-0.233337	
-0.234802	
-0.234314	
-0.233093	
-0.231689	
-0.221619	
-0.196472	
-0.155396	
-0.108765	
-0.0702515	
-0.0448608	
-0.0332031	
-0.0321655	
-0.038269	
-0.0485229	
-0.0623779	
-0.0766602	
-0.0919189	
-0.106567	
-0.118408	
-0.127563	
-0.133362	
-0.136414	
-0.139099	
-0.142822	
-0.1474	
-0.151733	
-0.154968	
-0.158752	
-0.16272	
-0.16748	
-0.174866	
-0.182068	
-0.19165	
-0.2005	
-0.205994	
-0.210266	
-0.213562	
-0.216187	
-0.218323	
-0.219238	
-0.217346	
-0.213501	
-0.201843	
-0.172485	
-0.126282	
-0.0800781	
-0.0426025	
-0.0213013	
-0.0150146	
-0.017334	
-0.0261841	
-0.0385742	
-0.0519409	
-0.0685425	
-0.0877075	
-0.107422	
-0.122925	
-0.134583	
-0.14093	
-0.143188	
-0.146729	
-0.150452	
-0.154541	
-0.160583	
-0.165771	
-0.171631	
-0.178162	
-0.184631	
-0.190613	
-0.196899	
-0.202209	
-0.207031	
-0.212952	
-0.216553	
-0.219421	
-0.22168	
-0.221069	
-0.220215	
-0.217041	
-0.211548	
-0.200867	
-0.175842	
-0.135498	
-0.0870972	
-0.0457764	
-0.0195313	
-0.0067749	
-0.00610352	
-0.0133667	
-0.026123	
-0.0421753	
-0.0611572	
-0.0835571	
-0.104919	
-0.123108	
-0.136597	
-0.145325	
-0.150269	
-0.155212	
-0.158691	
-0.162476	
-0.166382	
-0.171936	
-0.177551	
-0.183167	
-0.188477	
-0.195129	
-0.203003	
-0.212036	
-0.219849	
-0.224426	
-0.226929	
-0.225952	
-0.226563	
-0.226868	
-0.228699	
-0.231628	
-0.233948	
-0.233093	
-0.223633	
-0.196594	
-0.153259	
-0.105713	
-0.0656738	
-0.0410767	
-0.0322266	
-0.0345459	
-0.0447388	
-0.0585327	
-0.0731201	
-0.0895996	
-0.10907	
-0.128479	
-0.143738	
-0.153503	
-0.160217	
-0.16449	
-0.165833	
-0.169128	
-0.173096	
-0.176086	
-0.180115	
-0.185242	
-0.191956	
-0.19928	
-0.205139	
-0.211975	
-0.217163	
-0.22168	
-0.225342	
-0.227417	
-0.230835	
-0.230591	
-0.229858	
-0.230774	
-0.231812	
-0.228455	
-0.211853	
-0.175415	
-0.126892	
-0.0782471	
-0.039917	
-0.0183716	
-0.0107422	
-0.0145874	
-0.0239868	
-0.036499	
-0.0529175	
-0.0692139	
-0.0876465	
-0.105225	
-0.118225	
-0.126465	
-0.129822	
-0.131348	
-0.132263	
-0.135498	
-0.140808	
-0.145142	
-0.150513	
-0.156921	
-0.163269	
-0.171082	
-0.180115	
-0.18927	
-0.195984	
-0.201233	
-0.206299	
-0.212341	
-0.218323	
-0.221252	
-0.224121	
-0.225769	
-0.226379	
-0.221924	
-0.202026	
-0.161682	
-0.105957	
-0.0532227	
-0.0157471	
0.00360107	
0.00811768	
0.00286865	
-0.00823975	
-0.0231323	
-0.0403442	
-0.0608521	
-0.083313	
-0.105225	
-0.121277	
-0.132385	
-0.142517	
-0.148682	
-0.153809	
-0.158203	
-0.163757	
-0.170105	
-0.176331	
-0.184753	
-0.194458	
-0.203491	
-0.211121	
-0.217102	
-0.221863	
-0.227966	
-0.233459	
-0.236694	
-0.240173	
-0.243896	
-0.244934	
-0.24292	
-0.240784	
-0.236267	
-0.219604	
-0.183289	
-0.132507	
-0.0831299	
-0.0435791	
-0.019165	
-0.0111084	
-0.0151367	
-0.0269165	
-0.0422363	
-0.057251	
-0.0748901	
-0.0962524	
-0.117493	
-0.13501	
-0.148743	
-0.156677	
-0.162048	
-0.16571	
-0.173096	
-0.180603	
-0.187317	
-0.194946	
-0.202087	
-0.208801	
-0.215515	
-0.222351	
-0.227966	
-0.233398	
-0.238708	
-0.243835	
-0.248474	
-0.254333	
-0.255859	
-0.256409	
-0.256714	
-0.256409	
-0.253662	
-0.247009	
-0.225281	
-0.185364	
-0.132996	
-0.0831299	
-0.0478516	
-0.0297852	
-0.0280762	
-0.0374146	
-0.0524292	
-0.071167	
-0.0906982	
-0.112427	
-0.133057	
-0.149048	
-0.161621	
-0.171448	
-0.177673	
-0.182373	
-0.185486	
-0.188538	
-0.191284	
-0.19574	
-0.204102	
-0.212524	
-0.219604	
-0.227295	
-0.234558	
-0.240601	
-0.246277	
-0.251099	
-0.254883	
-0.257019	
-0.255859	
-0.255798	
-0.25647	
-0.258118	
-0.257935	
-0.253113	
-0.239868	
-0.207031	
-0.154236	
-0.095459	
-0.0462646	
-0.0166016	
-0.00756836	
-0.0130615	
-0.0275269	
-0.0457764	
-0.065979	
-0.0882568	
-0.111694	
-0.133301	
-0.149109	
-0.158386	
-0.162476	
-0.1651	
-0.165833	
-0.165771	
-0.165771	
-0.168213	
-0.172058	
-0.17627	
-0.181458	
-0.187988	
-0.195679	
-0.201416	
-0.206726	
-0.213501	
-0.218872	
-0.222961	
-0.225708	
-0.227722	
-0.230835	
-0.232361	
-0.232178	
-0.232056	
-0.228638	
-0.212097	
-0.173767	
-0.119385	
-0.0618286	
-0.0149536	
0.0137939	
0.0227661	
0.0174561	
0.0032959	
-0.0137939	
-0.032959	
-0.0548706	
-0.0793457	
-0.101257	
-0.120361	
-0.133545	
-0.140259	
-0.145508	
-0.149963	
-0.15332	
-0.15741	
-0.162476	
-0.167664	
-0.175537	
-0.185059	
-0.193787	
-0.202271	
-0.209229	
-0.217041	
-0.224976	
-0.230286	
-0.235107	
-0.238953	
-0.241516	
-0.243164	
-0.245178	
-0.245728	
-0.244385	
-0.242676	
-0.237183	
-0.216187	
-0.173096	
-0.114685	
-0.0562744	
-0.0124512	
0.0109253	
0.0162354	
0.0106812	
-0.00158691	
-0.0183716	
-0.0379639	
-0.0608521	
-0.0863037	
-0.109802	
-0.128662	
-0.140808	
-0.147217	
-0.153503	
-0.159546	
-0.165283	
-0.173035	
-0.181091	
-0.189514	
-0.200623	
-0.211548	
-0.220581	
-0.229187	
-0.235596	
-0.240417	
-0.246155	
-0.250732	
-0.252747	
-0.252991	
-0.252991	
-0.252014	
-0.251465	
-0.251343	
-0.251831	
-0.250122	
-0.240112	
-0.211487	
-0.163452	
-0.108398	
-0.0602417	
-0.0296021	
-0.0164185	
-0.0197144	
-0.0314941	
-0.046814	
-0.0649414	
-0.0852661	
-0.11145	
-0.136169	
-0.156616	
-0.171326	
-0.179993	
-0.186279	
-0.188599	
-0.188782	
-0.189697	
-0.193115	
-0.198303	
-0.205933	
-0.21637	
-0.225586	
-0.231628	
-0.234985	
-0.236633	
-0.240784	
-0.244812	
-0.248657	
-0.251282	
-0.252991	
-0.251221	
-0.250916	
-0.251221	
-0.251648	
-0.250549	
-0.24115	
-0.212769	
-0.163391	
-0.104309	
-0.0524292	
-0.0184326	
-0.00158691	
0.000183105	
-0.00927734	
-0.0254517	
-0.0427246	
-0.0608521	
-0.0814819	
-0.101563	
-0.119446	
-0.132263	
-0.139954	
-0.143616	
-0.146667	
-0.149048	
-0.149963	
-0.1521	
-0.156677	
-0.163086	
-0.170654	
-0.178284	
-0.185242	
-0.191162	
-0.19635	
-0.201111	
-0.206726	
-0.213074	
-0.216736	
-0.218384	
-0.222046	
-0.223328	
-0.2229	
-0.222351	
-0.217041	
-0.201965	
-0.166931	
-0.112488	
-0.0512695	
0.000427246	
0.0342407	
0.0463867	
0.0427246	
0.0296021	
0.0118408	
-0.00823975	
-0.0280762	
-0.0531616	
-0.0791626	
-0.100891	
-0.118408	
-0.129822	
-0.136475	
-0.142212	
-0.146729	
-0.151611	
-0.157898	
-0.164307	
-0.172058	
-0.181091	
-0.190369	
-0.19928	
-0.207336	
-0.213745	
-0.222473	
-0.230103	
-0.234741	
-0.236694	
-0.237244	
-0.236023	
-0.235596	
-0.234314	
-0.234802	
-0.234314	
-0.224426	
-0.194946	
-0.144165	
-0.0835571	
-0.0284424	
0.00964355	
0.0268555	
0.0288696	
0.0199585	
0.00402832	
-0.0146484	
-0.0367432	
-0.0614014	
-0.0870972	
-0.109924	
-0.126526	
-0.138611	
-0.14502	
-0.147278	
-0.152466	
-0.157654	
-0.163696	
-0.170349	
-0.177979	
-0.185913	
-0.194275	
-0.203796	
-0.213745	
-0.220154	
-0.22699	
-0.233032	
-0.236145	
-0.236755	
-0.237793	
-0.240601	
-0.243469	
-0.246765	
-0.247192	
-0.247498	
-0.243225	
-0.22699	
-0.190125	
-0.136536	
-0.0821533	
-0.0393677	
-0.0143433	
-0.00512695	
-0.0107422	
-0.0249634	
-0.0429077	
-0.062561	
-0.0864868	
-0.111572	
-0.134399	
-0.151367	
-0.162598	
-0.168274	
-0.172791	
-0.176941	
-0.181702	
-0.187683	
-0.193604	
-0.200134	
-0.205566	
-0.212585	
-0.219299	
-0.225464	
-0.231445	
-0.238953	
-0.245422	
-0.248108	
-0.250671	
-0.252747	
-0.252808	
-0.252319	
-0.254028	
-0.256226	
-0.257019	
-0.253845	
-0.236389	
-0.19574	
-0.136902	
-0.0768433	
-0.0292358	
-0.00189209	
0.00750732	
0.00170898	
-0.0134888	
-0.0321655	
-0.053772	
-0.078064	
-0.103699	
-0.127563	
-0.144409	
-0.152405	
-0.155945	
-0.156982	
-0.157532	
-0.158997	
-0.159607	
-0.16156	
-0.164856	
-0.171082	
-0.176331	
-0.181213	
-0.186584	
-0.19281	
-0.199341	
-0.206116	
-0.211243	
-0.214111	
-0.21582	
-0.219788	
-0.222351	
-0.221313	
-0.220642	
-0.219055	
-0.210571	
-0.182922	
-0.132629	
-0.072876	
-0.020813	
0.0169067	
0.0345459	
0.0363159	
0.027771	
0.0134888	
-0.00494385	
-0.026123	
-0.0496826	
-0.0750732	
-0.0964966	
-0.113647	
-0.125916	
-0.134521	
-0.139771	
-0.143799	
-0.148865	
-0.154236	
-0.159058	
-0.165955	
-0.174866	
-0.183105	
-0.191162	
-0.201416	
-0.208496	
-0.212952	
-0.218506	
-0.222595	
-0.224243	
-0.224243	
-0.222961	
-0.223816	
-0.224792	
-0.225586	
-0.224731	
-0.220947	
-0.207275	
-0.171875	
-0.11908	
-0.0611572	
-0.0145874	
0.0153809	
0.0259399	
0.0223999	
0.010376	
-0.00708008	
-0.0262451	
-0.0473022	
-0.0696411	
-0.092041	
-0.110962	
-0.126465	
-0.138	
-0.145081	
-0.150635	
-0.156433	
-0.16272	
-0.168213	
-0.175293	
-0.183594	
-0.190613	
-0.197144	
-0.203674	
-0.212524	
-0.222107	
-0.230103	
-0.237	
-0.241028	
-0.24231	
-0.241699	
-0.240845	
-0.240723	
-0.240234	
-0.239563	
-0.237732	
-0.231323	
-0.211731	
-0.171326	
-0.116333	
-0.0637207	
-0.0229492	
-0.0012207	
0.00219727	
-0.00628662	
-0.0193481	
-0.0372925	
-0.0581055	
-0.0808105	
-0.103027	
-0.124451	
-0.143433	
-0.155823	
-0.164368	
-0.169434	
-0.173096	
-0.176453	
-0.17926	
-0.181946	
-0.187683	
-0.195435	
-0.203918	
-0.211853	
-0.21875	
-0.223938	
-0.228455	
-0.23291	
-0.236084	
-0.237732	
-0.241028	
-0.243286	
-0.242249	
-0.239441	
-0.236633	
-0.235596	
-0.228088	
-0.204529	
-0.160706	
-0.10553	
-0.052002	
-0.013916	
0.0043335	
0.00714111	
-0.00299072	
-0.0192871	
-0.0386353	
-0.0606079	
-0.083374	
-0.107971	
-0.127869	
-0.142578	
-0.150208	
-0.154114	
-0.154968	
-0.155701	
-0.158142	
-0.160339	
-0.163391	
-0.166565	
-0.172485	
-0.177368	
-0.183594	
-0.190735	
-0.197021	
-0.203125	
-0.206909	
-0.209351	
-0.210632	
-0.212585	
-0.213928	
-0.215393	
-0.216736	
-0.216553	
-0.210205	
-0.190491	
-0.149353	
-0.0951538	
-0.0413818	
-0.00231934	
0.0180664	
0.0233765	
0.0159302	
0.000549316	
-0.0162354	
-0.0341187	
-0.0559692	
-0.0785522	
-0.101257	
-0.119507	
-0.132324	
-0.139771	
-0.144531	
-0.148132	
-0.152405	
-0.158081	
-0.164368	
-0.172058	
-0.183472	
-0.194519	
-0.202148	
-0.208923	
-0.214661	
-0.218018	
-0.222168	
-0.225403	
-0.22583	
-0.226135	
-0.226196	
-0.227356	
-0.226196	
-0.223938	
-0.221252	
-0.210449	
-0.184021	
-0.136963	
-0.083313	
-0.0375366	
-0.00689697	
0.00592041	
0.00561523	
-0.00439453	
-0.0204468	
-0.038269	
-0.0587769	
-0.0797729	
-0.101929	
-0.12262	
-0.138916	
-0.149109	
-0.157227	
-0.163208	
-0.167419	
-0.171387	
-0.175781	
-0.18103	
-0.187744	
-0.195618	
-0.202332	
-0.208618	
-0.214722	
-0.22113	
-0.226257	
-0.228577	
-0.230713	
-0.233582	
-0.237488	
-0.239807	
-0.242126	
-0.244202	
-0.248047	
-0.245483	
-0.232178	
-0.203735	
-0.158691	
-0.108521	
-0.0665283	
-0.0402832	
-0.0303345	
-0.0327148	
-0.0448608	
-0.0632324	
-0.0843506	
-0.105835	
-0.128479	
-0.14856	
-0.163757	
-0.173035	
-0.178589	
-0.182678	
-0.186523	
-0.188354	
-0.191101	
-0.195007	
-0.199158	
-0.204285	
-0.210083	
-0.215637	
-0.220642	
-0.226013	
-0.230042	
-0.23407	
-0.238647	
-0.240295	
-0.240723	
-0.239746	
-0.239441	
-0.239624	
-0.240479	
-0.239563	
-0.22937	
-0.200623	
-0.152161	
-0.0993652	
-0.0545654	
-0.0272217	
-0.0177612	
-0.0213623	
-0.0319214	
-0.0463257	
-0.0622559	
-0.0793457	
-0.0971069	
-0.114563	
-0.12793	
-0.137817	
-0.14447	
-0.148376	
-0.150452	
-0.152039	
-0.155334	
-0.159668	
-0.16571	
-0.173096	
-0.181702	
-0.189392	
-0.197083	
-0.205017	
-0.211975	
-0.218262	
-0.22113	
-0.223389	
-0.225525	
-0.228271	
-0.230591	
-0.230225	
-0.230286	
-0.226196	
-0.211243	
-0.177856	
-0.127014	
-0.072876	
-0.0306396	
-0.0055542	
0.00244141	
-0.000305176	
-0.00836182	
-0.0233154	
-0.0418091	
-0.0635986	
-0.0866699	
-0.10907	
-0.128296	
-0.143066	
-0.152344	
-0.158508	
-0.162964	
-0.165283	
-0.166748	
-0.170471	
-0.174316	
-0.180115	
-0.185852	
-0.19104	
-0.19812	
-0.203186	
-0.211548	
-0.220215	
-0.225403	
-0.227661	
-0.227722	
-0.228699	
-0.229065	
-0.228821	
-0.227295	
-0.226379	
-0.216858	
-0.18811	
-0.141113	
-0.0870972	
-0.0419922	
-0.0130005	
-0.00195313	
-0.00439453	
-0.0134277	
-0.0266724	
-0.0423584	
-0.0620117	
-0.0845337	
-0.105652	
-0.124817	
-0.141174	
-0.152588	
-0.160889	
-0.167847	
-0.171692	
-0.174072	
-0.177185	
-0.18103	
-0.18634	
-0.194458	
-0.203064	
-0.210815	
-0.217651	
-0.223877	
-0.229553	
-0.233948	
-0.234436	
-0.235229	
-0.237244	
-0.23999	
-0.242798	
-0.24469	
-0.243652	
-0.239807	
-0.226135	
-0.193298	
-0.146545	
-0.0970459	
-0.0557251	
-0.0310669	
-0.0219727	
-0.026123	
-0.0385132	
-0.0560913	
-0.0762939	
-0.0977783	
-0.119995	
-0.140564	
-0.157776	
-0.168884	
-0.174988	
-0.177002	
-0.178711	
-0.181458	
-0.18512	
-0.19043	
-0.196777	
-0.203979	
-0.210205	
-0.216858	
-0.223572	
-0.229736	
-0.237122	
-0.245117	
-0.250122	
-0.252808	
-0.253235	
-0.253113	
-0.254089	
-0.254761	
-0.254456	
-0.252441	
-0.242981	
-0.214539	
-0.165894	
-0.110779	
-0.0637207	
-0.0340576	
-0.0217285	
-0.0219727	
-0.0323486	
-0.0494385	
-0.0682373	
-0.0894775	
-0.113403	
-0.136047	
-0.152832	
-0.166565	
-0.176514	
-0.180542	
-0.182007	
-0.182251	
-0.18219	
-0.183228	
-0.18689	
-0.190369	
-0.195984	
-0.202454	
-0.208069	
-0.211609	
-0.214966	
-0.218079	
-0.219482	
-0.219971	
-0.21936	
-0.220154	
-0.220459	
-0.22052	
-0.220703	
-0.214478	
-0.194763	
-0.154541	
-0.0999146	
-0.0477905	
-0.0078125	
0.0129395	
0.0186768	
0.0123291	
-0.00201416	
-0.0209351	
-0.0409546	
-0.0620728	
-0.0853882	
-0.106201	
-0.124634	
-0.135193	
-0.142639	
-0.146545	
-0.148865	
-0.151245	
-0.155762	
-0.161499	
-0.168274	
-0.176941	
-0.186951	
-0.196838	
-0.204895	
-0.213379	
-0.218872	
-0.221191	
-0.225098	
-0.228638	
-0.232849	
-0.236328	
-0.237671	
-0.237122	
-0.235413	
-0.230225	
-0.21167	
-0.172424	
-0.117188	
-0.0637207	
-0.0240479	
-0.00152588	
0.00579834	
0.00158691	
-0.00891113	
-0.0241699	
-0.0408325	
-0.0619507	
-0.0861206	
-0.107971	
-0.125183	
-0.13855	
-0.147095	
-0.152405	
-0.156311	
-0.160706	
-0.164734	
-0.169434	
-0.176575	
-0.183411	
-0.190552	
-0.199097	
-0.20697	
-0.212646	
-0.218689	
-0.224976	
-0.230042	
-0.234924	
-0.238464	
-0.241272	
-0.240845	
-0.240295	
-0.239807	
-0.238525	
-0.233459	
-0.213806	
-0.172607	
-0.119446	
-0.0692749	
-0.0319824	
-0.0115356	
-0.00793457	
-0.0142212	
-0.0273438	
-0.0437622	
-0.0633545	
-0.0856323	
-0.108459	
-0.131287	
-0.14801	
-0.158997	
-0.165222	
-0.169861	
-0.174622	
-0.17804	
-0.182068	
-0.18866	
-0.195251	
-0.203369	
-0.211487	
-0.218323	
-0.226196	
-0.234985	
-0.242737	
-0.251038	
-0.257141	
-0.258606	
-0.258179	
-0.256226	
-0.255188	
-0.256409	
-0.26062	
-0.262024	
-0.25531	
-0.231995	
-0.1875	
-0.128845	
-0.0738525	
-0.0379639	
-0.0209351	
-0.0187988	
-0.026001	
-0.0411377	
-0.0602417	
-0.0841064	
-0.109192	
-0.132507	
-0.152161	
-0.166443	
-0.17627	
-0.182495	
-0.188354	
-0.195007	
-0.200134	
-0.204224	
-0.20929	
-0.215637	
-0.221008	
-0.225891	
-0.231445	
-0.234619	
-0.239563	
-0.244263	
-0.247009	
-0.250671	
-0.252747	
-0.251709	
-0.250061	
-0.247437	
-0.244629	
-0.240662	
-0.235413	
-0.220642	
-0.186218	
-0.133423	
-0.0730591	
-0.0220337	
0.00970459	
0.022583	
0.0209961	
0.010437	
-0.00402832	
-0.0210571	
-0.0422974	
-0.0678101	
-0.0919189	
-0.111206	
-0.127136	
-0.138306	
-0.145935	
-0.151428	
-0.155518	
-0.159119	
-0.163147	
-0.169922	
-0.177185	
-0.183716	
-0.191711	
-0.201172	
-0.210876	
-0.220093	
-0.227173	
-0.233032	
-0.236206	
-0.238098	
-0.240173	
-0.240051	
-0.240906	
-0.240723	
-0.236511	
-0.230713	
-0.218079	
-0.186035	
-0.132996	
-0.0726929	
-0.0239258	
0.00842285	
0.022583	
0.0197754	
0.00823975	
-0.00726318	
-0.0234375	
-0.0426636	
-0.0667725	
-0.0925293	
-0.116272	
-0.134033	
-0.14502	
-0.152588	
-0.160645	
-0.167236	
-0.171082	
-0.174988	
-0.179199	
-0.184875	
-0.191895	
-0.19928	
-0.208435	
-0.216797	
-0.227112	
-0.234558	
-0.238708	
-0.242432	
-0.244202	
-0.246155	
-0.248596	
-0.250977	
-0.252747	
-0.252014	
-0.249634	
-0.240051	
-0.209106	
-0.159058	
-0.101624	
-0.0533447	
-0.0217896	
-0.00646973	
-0.00738525	
-0.0189209	
-0.0338745	
-0.0513306	
-0.0714111	
-0.0959473	
-0.121094	
-0.142334	
-0.159668	
-0.170837	
-0.175537	
-0.17865	
-0.1828	
-0.186768	
-0.19104	
-0.193726	
-0.199158	
-0.205505	
-0.213562	
-0.223328	
-0.233215	
-0.240173	
-0.246277	
-0.250977	
-0.253357	
-0.256775	
-0.259399	
-0.262756	
-0.265686	
-0.265503	
-0.265686	
-0.264343	
-0.257324	
-0.235718	
-0.191406	
-0.133057	
-0.078125	
-0.0391846	
-0.0204468	
-0.0194702	
-0.0292969	
-0.0466919	
-0.0664063	
-0.0883789	
-0.113647	
-0.137207	
-0.158875	
-0.173462	
-0.183533	
-0.188599	
-0.19043	
-0.191589	
-0.190796	
-0.191895	
-0.194275	
-0.196716	
-0.200989	
-0.207092	
-0.213501	
-0.220337	
-0.227295	
-0.231873	
-0.235413	
-0.238831	
-0.240112	
-0.24115	
-0.241943	
-0.242798	
-0.242188	
-0.241394	
-0.235962	
-0.219116	
-0.182861	
-0.12738	
-0.0650635	
-0.0148315	
0.0159912	
0.0270996	
0.0222168	
0.00842285	
-0.00854492	
-0.0273438	
-0.0484619	
-0.0712891	
-0.0944214	
-0.114014	
-0.12915	
-0.139709	
-0.147095	
-0.15271	
-0.157043	
-0.161865	
-0.167786	
-0.171753	
-0.176636	
-0.182678	
-0.190186	
-0.198364	
-0.204895	
-0.212219	
-0.219177	
-0.224121	
-0.227844	
-0.229736	
-0.227844	
-0.227234	
-0.227783	
-0.227661	
-0.226624	
-0.223999	
-0.211548	
-0.176453	
-0.1203	
-0.0611572	
-0.0134277	
0.0150757	
0.0257568	
0.0228271	
0.010498	
-0.00506592	
-0.0219116	
-0.041687	
-0.0637207	
-0.0871582	
-0.10791	
-0.124878	
-0.138916	
-0.150208	
-0.157227	
-0.161865	
-0.16626	
-0.171204	
-0.177856	
-0.184998	
-0.193237	
-0.201782	
-0.209961	
-0.218628	
-0.227844	
-0.235107	
-0.238953	
-0.240295	
-0.239929	
-0.239624	
-0.238831	
-0.236389	
-0.234192	
-0.234924	
-0.236023	
-0.230896	
-0.210693	
-0.169922	
-0.115479	
-0.0603638	
-0.0206299	
0.00140381	
0.0067749	
-0.00250244	
-0.0186768	
-0.0380859	
-0.0586548	
-0.0803833	
-0.103088	
-0.122742	
-0.139282	
-0.150269	
-0.158081	
-0.162354	
-0.167419	
-0.173645	
-0.178955	
-0.182434	
-0.189209	
-0.197632	
-0.205383	
-0.211853	
-0.219482	
-0.228943	
-0.235107	
-0.239136	
-0.243347	
-0.24353	
-0.244812	
-0.246765	
-0.249573	
-0.250671	
-0.251282	
-0.250427	
-0.24292	
-0.218262	
-0.171509	
-0.113159	
-0.0606689	
-0.0239258	
-0.00866699	
-0.0117798	
-0.027771	
-0.0458374	
-0.0668945	
-0.0899658	
-0.114258	
-0.137512	
-0.157532	
-0.17334	
-0.183899	
-0.191528	
-0.19397	
-0.195496	
-0.195618	
-0.196167	
-0.199463	
-0.202698	
-0.206787	
-0.210999	
-0.215149	
-0.21875	
-0.223328	
-0.226379	
-0.229187	
-0.230103	
-0.230713	
-0.231262	
-0.2323	
-0.232056	
-0.232605	
-0.230713	
-0.221008	
-0.192505	
-0.141174	
-0.0775146	
-0.0206299	
0.0175781	
0.0380859	
0.0419922	
0.0325928	
0.0172119	
-0.000976563	
-0.0222778	
-0.046875	
-0.0737915	
-0.0966797	
-0.114258	
-0.125183	
-0.131714	
-0.137451	
-0.141724	
-0.145325	
-0.150879	
-0.15918	
-0.16803	
-0.174561	
-0.183228	
-0.190552	
-0.197632	
-0.204651	
-0.210388	
-0.214355	
-0.217773	
-0.219788	
-0.221191	
-0.222107	
-0.222656	
-0.2229	
-0.223083	
-0.219482	
-0.203003	
-0.163025	
-0.103516	
-0.0439453	
0.00286865	
0.0294189	
0.0377197	
0.0327759	
0.0181274	
-6.10352E-05	
-0.0194702	
-0.0419312	
-0.0654907	
-0.0866699	
-0.105103	
-0.11792	
-0.123901	
-0.129456	
-0.136536	
-0.142944	
-0.149963	
-0.157288	
-0.164612	
-0.172913	
-0.182922	
-0.193909	
-0.204773	
-0.21344	
-0.220764	
-0.224976	
-0.228149	
-0.229248	
-0.230957	
-0.232361	
-0.233826	
-0.233704	
-0.234802	
-0.2323	
-0.218689	
-0.183716	
-0.130554	
-0.0731812	
-0.0251465	
0.00518799	
0.0171509	
0.0128784	
-0.00317383	
-0.022644	
-0.0410767	
-0.0620728	
-0.0848389	
-0.107971	
-0.130005	
-0.146301	
-0.157776	
-0.165833	
-0.171753	
-0.177124	
-0.183411	
-0.189575	
-0.195374	
-0.203491	
-0.213501	
-0.221802	
-0.230164	
-0.239563	
-0.249634	
-0.254822	
-0.255737	
-0.255737	
-0.257935	
-0.26001	
-0.261719	
-0.261597	
-0.261597	
-0.259277	
-0.245972	
-0.214966	
-0.163452	
-0.101196	
-0.0474854	
-0.0118408	
0.00280762	
6.10352E-05	
-0.015686	
-0.036377	
-0.0598755	
-0.0859375	
-0.114441	
-0.141296	
-0.164612	
-0.182068	
-0.191406	
-0.194336	
-0.194641	
-0.19574	
-0.199402	
-0.201843	
-0.206482	
-0.212036	
-0.218445	
-0.225586	
-0.234009	
-0.23938	
-0.242798	
-0.245483	
-0.246216	
-0.248352	
-0.249023	
-0.250488	
-0.251221	
-0.249329	
-0.246094	
-0.240967	
-0.223938	
-0.185364	
-0.123718	
-0.0559082	
0.00164795	
0.0402222	
0.0582886	
0.0603027	
0.0506592	
0.0340576	
0.0118408	
-0.0143433	
-0.0406494	
-0.0686646	
-0.0947876	
-0.114197	
-0.127808	
-0.135925	
-0.140564	
-0.14386	
-0.147217	
-0.151917	
-0.15979	
-0.166443	
-0.173462	
-0.182312	
-0.191589	
-0.201721	
-0.208496	
-0.214478	
-0.22052	
-0.225464	
-0.229431	
-0.232544	
-0.235962	
-0.238403	
-0.239258	
-0.237793	
-0.229736	
-0.2052	
-0.158081	
-0.0943604	
-0.0319824	
0.0151978	
0.0407104	
0.0490112	
0.0444946	
0.0326538	
0.0167236	
-0.0032959	
-0.0266724	
-0.0546875	
-0.0819702	
-0.103271	
-0.119141	
-0.12915	
-0.137268	
-0.144043	
-0.150757	
-0.157532	
-0.166016	
-0.17511	
-0.185669	
-0.196716	
-0.208069	
-0.21582	
-0.223999	
-0.23114	
-0.238831	
-0.245056	
-0.248474	
-0.251892	
-0.255188	
-0.257996	
-0.260193	
-0.261902	
-0.261353	
-0.257629	
-0.24176	
-0.202209	
-0.1427	
-0.0744629	
-0.0187378	
0.0178223	
0.0360107	
0.0358276	
0.0241089	
0.00927734	
-0.00799561	
-0.0319214	
-0.0579834	
-0.0853271	
-0.112	
-0.132996	
-0.149475	
-0.15979	
-0.166321	
-0.171265	
-0.175659	
-0.181519	
-0.189392	
-0.199951	
-0.21167	
-0.224182	
-0.236511	
-0.248352	
-0.257446	
-0.265381	
-0.271423	
-0.27356	
-0.274292	
-0.273254	
-0.271606	
-0.270691	
-0.272095	
-0.273987	
-0.275085	
-0.271179	
-0.255615	
-0.216248	
-0.15509	
-0.0871582	
-0.0308228	
0.0043335	
0.0183105	
0.0162964	
0.00341797	
-0.0160522	
-0.0380859	
-0.0639648	
-0.0941162	
-0.124084	
-0.147888	
-0.165771	
-0.174194	
-0.178284	
-0.183533	
-0.188538	
-0.194031	
-0.198547	
-0.202881	
-0.209473	
-0.21759	
-0.22583	
-0.231812	
-0.238708	
-0.246338	
-0.251892	
-0.255432	
-0.258667	
-0.259277	
-0.258484	
-0.259827	
-0.260071	
-0.261169	
-0.261902	
-0.260315	
-0.252686	
-0.228271	
-0.174988	
-0.1026	
-0.0332642	
0.0178833	
0.046814	
0.0548096	
0.0488281	
0.0360107	
0.0209351	
0	
-0.0258789	
-0.0550537	
-0.0824585	
-0.104065	
-0.118713	
-0.129211	
-0.135193	
-0.139465	
-0.144409	
-0.149048	
-0.154785	
-0.161499	
-0.171265	
-0.182068	
-0.194763	
-0.206482	
-0.214539	
-0.222778	
-0.230713	
-0.237122	
-0.240784	
-0.24292	
-0.243774	
-0.246582	
-0.249695	
-0.251038	
-0.25061	
-0.24585	
-0.226501	
-0.180481	
-0.11084	
-0.0371094	
0.0235596	
0.0634766	
0.0799561	
0.0792236	
0.0672607	
0.0500488	
0.0288696	
0.00531006	
-0.0238647	
-0.0543213	
-0.0842896	
-0.108521	
-0.125366	
-0.13739	
-0.146606	
-0.1521	
-0.157227	
-0.165894	
-0.174988	
-0.18573	
-0.198792	
-0.212463	
-0.225037	
-0.235535	
-0.243408	
-0.251282	
-0.255554	
-0.258789	
-0.260559	
-0.26239	
-0.262146	
-0.261902	
-0.261292	
-0.260193	
-0.258545	
-0.255249	
-0.242859	
-0.209106	
-0.149719	
-0.0766602	
-0.0105591	
0.0344238	
0.055603	
0.0565796	
0.0474854	
0.0308228	
0.0115356	
-0.00982666	
-0.0363159	
-0.0668335	
-0.0944824	
-0.115173	
-0.131836	
-0.144714	
-0.154419	
-0.163513	
-0.170227	
-0.178223	
-0.186035	
-0.193115	
-0.202271	
-0.212952	
-0.225342	
-0.238708	
-0.248413	
-0.25592	
-0.263	
-0.269897	
-0.276001	
-0.279541	
-0.279663	
-0.277588	
-0.275391	
-0.27417	
-0.27179	
-0.271729	
-0.269958	
-0.250732	
-0.205078	
-0.137207	
-0.0662842	
-0.0103149	
0.020874	
0.0303955	
0.0223999	
0.00396729	
-0.0159912	
-0.0369263	
-0.0628662	
-0.0918579	
-0.120667	
-0.147522	
-0.166809	
-0.179138	
-0.186584	
-0.191956	
-0.196045	
-0.199951	
-0.203064	
-0.206421	
-0.211975	
-0.218872	
-0.226501	
-0.234375	
-0.24115	
-0.246338	
-0.252197	
-0.258179	
-0.261841	
-0.263428	
-0.265442	
-0.267395	
-0.268677	
-0.269043	
-0.26825	
-0.267273	
-0.256958	
-0.222473	
-0.161255	
-0.0865479	
-0.0194702	
0.0278931	
0.0510254	
0.0545044	
0.0460205	
0.0272217	
0.00469971	
-0.0195923	
-0.0471191	
-0.0750122	
-0.10083	
-0.122009	
-0.135071	
-0.142212	
-0.145569	
-0.147461	
-0.150391	
-0.153748	
-0.159363	
-0.16571	
-0.173523	
-0.182434	
-0.192444	
-0.201965	
-0.213745	
-0.223816	
-0.231262	
-0.236938	
-0.24176	
-0.246338	
-0.248047	
-0.24762	
-0.247192	
-0.247681	
-0.248779	
-0.244263	
-0.220825	
-0.167664	
-0.0952148	
-0.0238647	
0.0327148	
0.0668945	
0.0773315	
0.0724487	
0.0567017	
0.0354614	
0.0114136	
-0.0178223	
-0.0500488	
-0.0820923	
-0.112244	
-0.135376	
-0.149719	
-0.158813	
-0.164429	
-0.170227	
-0.17572	
-0.181946	
-0.187744	
-0.194275	
-0.203186	
-0.210999	
-0.219421	
-0.227295	
-0.234314	
-0.241516	
-0.246765	
-0.251465	
-0.254089	
-0.255554	
-0.256226	
-0.256409	
-0.257568	
-0.259888	
-0.258484	
-0.255981	
-0.239502	
-0.195557	
-0.126953	
-0.0524902	
0.00665283	
0.0439453	
0.0582886	
0.0563965	
0.0424194	
0.0214233	
0.000854492	
-0.0253296	
-0.0546265	
-0.0825195	
-0.10791	
-0.127197	
-0.140625	
-0.15155	
-0.16095	
-0.166931	
-0.174744	
-0.182434	
-0.192078	
-0.203369	
-0.214294	
-0.223145	
-0.231262	
-0.241272	
-0.250366	
-0.258362	
-0.264282	
-0.268433	
-0.271423	
-0.270935	
-0.268127	
-0.267517	
-0.267029	
-0.267029	
-0.268188	
-0.268127	
-0.261841	
-0.239136	
-0.189514	
-0.122498	
-0.0558472	
-0.00640869	
0.0209961	
0.0266724	
0.0155029	
-0.00360107	
-0.0263672	
-0.0531006	
-0.0826416	
-0.111816	
-0.138367	
-0.1604	
-0.177429	
-0.188599	
-0.194031	
-0.197449	
-0.200562	
-0.204102	
-0.208679	
-0.214966	
-0.222595	
-0.231262	
-0.237915	
-0.2453	
-0.251282	
-0.256897	
-0.262573	
-0.2677	
-0.269958	
-0.270996	
-0.271179	
-0.269043	
-0.265198	
-0.262695	
-0.26062	
-0.25824	
-0.254456	
-0.235535	
-0.188904	
-0.118225	
-0.0460815	
0.00982666	
0.0425415	
0.0524902	
0.0437012	
0.0237427	
-0.0010376	
-0.0273438	
-0.0583496	
-0.0919189	
-0.121216	
-0.144104	
-0.158875	
-0.168945	
-0.172302	
-0.170654	
-0.170166	
-0.169861	
-0.171021	
-0.175598	
-0.182617	
-0.189087	
-0.192932	
-0.198181	
-0.203552	
-0.208313	
-0.21344	
-0.21637	
-0.218933	
-0.220093	
-0.221619	
-0.223206	
-0.224548	
-0.223083	
-0.223022	
-0.225159	
-0.217163	
-0.188049	
-0.133362	
-0.0636597	
-0.000793457	
0.0422974	
0.0626831	
0.0643921	
0.0529175	
0.0343628	
0.0126953	
-0.0098877	
-0.036438	
-0.0631714	
-0.0897217	
-0.111328	
-0.127014	
-0.137268	
-0.144592	
-0.148621	
-0.153503	
-0.158875	
-0.166199	
-0.174744	
-0.183655	
-0.193359	
-0.203308	
-0.212769	
-0.222473	
-0.232666	
-0.240845	
-0.24707	
-0.250488	
-0.251099	
-0.250793	
-0.249756	
-0.245667	
-0.242737	
-0.240295	
-0.238159	
-0.23407	
-0.21759	
-0.175293	
-0.11084	
-0.041748	
0.0123291	
0.0454712	
0.0565796	
0.0497437	
0.0338135	
0.0125732	
-0.00982666	
-0.0345459	
-0.0614014	
-0.0881958	
-0.110596	
-0.129517	
-0.141785	
-0.149963	
-0.157532	
-0.163574	
-0.169373	
-0.174438	
-0.178955	
-0.186584	
-0.195557	
-0.204163	
-0.211914	
-0.219788	
-0.22699	
-0.234619	
-0.242188	
-0.247925	
-0.252014	
-0.254639	
-0.254456	
-0.253845	
-0.253113	
-0.251709	
-0.252136	
-0.251587	
-0.248413	
-0.232178	
-0.191467	
-0.128906	
-0.0647583	
-0.0174561	
0.00964355	
0.0177002	
0.00872803	
-0.00775146	
-0.0290527	
-0.0507202	
-0.074646	
-0.0996094	
-0.122192	
-0.141541	
-0.154968	
-0.163452	
-0.169312	
-0.175171	
-0.180603	
-0.18512	
-0.189209	
-0.194702	
-0.202087	
-0.210083	
-0.217041	
-0.2229	
-0.229309	
-0.237671	
-0.244019	
-0.247253	
-0.248535	
-0.250305	
-0.249451	
-0.249023	
-0.25	
-0.249146	
-0.250305	
-0.253235	
-0.251404	
-0.237244	
-0.19635	
-0.132813	
-0.0669556	
-0.0164185	
0.0139771	
0.022583	
0.0153198	
-0.000610352	
-0.022522	
-0.0457764	
-0.0684204	
-0.0933228	
-0.117737	
-0.136536	
-0.149231	
-0.157349	
-0.162048	
-0.163208	
-0.164795	
-0.168335	
-0.174316	
-0.178894	
-0.182495	
-0.187866	
-0.193115	
-0.198792	
-0.204956	
-0.211487	
-0.216492	
-0.220581	
-0.224121	
-0.227966	
-0.22876	
-0.225891	
-0.222046	
-0.220154	
-0.217285	
-0.214417	
-0.211365	
-0.190552	
-0.146423	
-0.0861206	
-0.0265503	
0.0200195	
0.0448608	
0.050415	
0.0430908	
0.0264282	
0.0043335	
-0.0189819	
-0.041687	
-0.0670776	
-0.0916748	
-0.111267	
-0.127075	
-0.137878	
-0.144958	
-0.150879	
-0.156555	
-0.162048	
-0.169861	
-0.178162	
-0.188599	
-0.19574	
-0.202209	
-0.210327	
-0.21698	
-0.223083	
-0.227478	
-0.230591	
-0.23291	
-0.23468	
-0.234863	
-0.236145	
-0.237732	
-0.240906	
-0.243652	
-0.246521	
-0.244812	
-0.233521	
-0.201599	
-0.145874	
-0.0828247	
-0.0274048	
0.00939941	
0.0257568	
0.0257568	
0.0153198	
-0.00152588	
-0.0216675	
-0.0413208	
-0.0655518	
-0.0918579	
-0.116455	
-0.134521	
-0.148804	
-0.157959	
-0.164917	
-0.17041	
-0.174316	
-0.177856	
-0.182739	
-0.189636	
-0.19812	
-0.204041	
-0.210449	
-0.217773	
-0.225586	
-0.231689	
-0.236877	
-0.241577	
-0.243958	
-0.242981	
-0.240234	
-0.239746	
-0.239807	
-0.240234	
-0.241333	
-0.242737	
-0.243286	
-0.241089	
-0.221619	
-0.176392	
-0.116028	
-0.059082	
-0.0175171	
0.003479	
0.00628662	
-0.00506592	
-0.0235596	
-0.0454102	
-0.0673218	
-0.09021	
-0.112183	
-0.131104	
-0.146729	
-0.158997	
-0.165344	
-0.169495	
-0.174194	
-0.179321	
-0.185669	
-0.191833	
-0.198669	
-0.206421	
-0.214722	
-0.221985	
-0.227966	
-0.234131	
-0.240112	
-0.245544	
-0.249756	
-0.250977	
-0.251953	
-0.25116	
-0.250854	
-0.25238	
-0.252869	
-0.254211	
-0.253845	
-0.251404	
-0.238159	
-0.203369	
-0.146912	
-0.086853	
-0.0385742	
-0.0107422	
-0.00305176	
-0.00964355	
-0.024292	
-0.0418091	
-0.0612793	
-0.0823975	
-0.105042	
-0.12915	
-0.150269	
-0.162231	
-0.170288	
-0.173767	
-0.176147	
-0.179077	
-0.181213	
-0.184021	
-0.188232	
-0.19342	
-0.199768	
-0.203125	
-0.209045	
-0.213989	
-0.217224	
-0.219177	
-0.221497	
-0.22345	
-0.225098	
-0.22467	
-0.222595	
-0.222168	
-0.221497	
-0.222351	
-0.221497	
-0.21228	
-0.185486	
-0.137329	
-0.0765991	
-0.020874	
0.0180054	
0.0366821	
0.0378418	
0.0290527	
0.0146484	
-0.00537109	
-0.0274048	
-0.0494385	
-0.0718384	
-0.0938721	
-0.110229	
-0.124878	
-0.135315	
-0.1427	
-0.147644	
-0.152588	
-0.157043	
-0.161682	
-0.167419	
-0.175903	
-0.182556	
-0.188782	
-0.196777	
-0.204834	
-0.210571	
-0.215088	
-0.220825	
-0.225525	
-0.228394	
-0.229797	
-0.231018	
-0.231812	
-0.234314	
-0.236816	
-0.237183	
-0.229065	
-0.202698	
-0.153992	
-0.0925903	
-0.0357666	
0.00170898	
0.0185547	
0.0183716	
0.0088501	
-0.00561523	
-0.0231323	
-0.0426636	
-0.0634766	
-0.0855103	
-0.10791	
-0.128662	
-0.141174	
-0.148132	
-0.154785	
-0.159424	
-0.163208	
-0.169495	
-0.176208	
-0.185547	
-0.19397	
-0.20343	
-0.212952	
-0.222473	
-0.231262	
-0.237915	
-0.24231	
-0.245239	
-0.246521	
-0.246033	
-0.245728	
-0.24408	
-0.241821	
-0.242981	
-0.244141	
-0.244812	
-0.243469	
-0.22876	
-0.190491	
-0.134521	
-0.074707	
-0.0272217	
-0.00134277	
0.00671387	
-0.00219727	
-0.0210571	
-0.0413208	
-0.0616455	
-0.0861816	
-0.112366	
-0.136963	
-0.15564	
-0.169373	
-0.176941	
-0.182068	
-0.185608	
-0.188904	
-0.191589	
-0.193481	
-0.196533	
-0.200378	
-0.208252	
-0.217102	
-0.226929	
-0.234436	
-0.239624	
-0.243713	
-0.244629	
-0.24585	
-0.248047	
-0.249268	
-0.250488	
-0.25293	
-0.255493	
-0.25592	
-0.254517	
-0.248169	
-0.220825	
-0.16925	
-0.103455	
-0.0443726	
-0.00561523	
0.012146	
0.0114136	
-0.000366211	
-0.0166016	
-0.0350952	
-0.0527344	
-0.0749512	
-0.0979004	
-0.118896	
-0.137878	
-0.149475	
-0.155762	
-0.158203	
-0.15918	
-0.161194	
-0.165283	
-0.169556	
-0.175171	
-0.179932	
-0.187256	
-0.194214	
-0.202454	
-0.211365	
-0.220337	
-0.226196	
-0.230591	
-0.233337	
-0.234741	
-0.236389	
-0.237427	
-0.236877	
-0.235596	
-0.23468	
-0.231079	
-0.210876	
-0.16272	
-0.0971069	
-0.0332031	
0.0133667	
0.0392456	
0.0455933	
0.0386353	
0.0228882	
0.00506592	
-0.0137329	
-0.0354004	
-0.060791	
-0.0873413	
-0.108948	
-0.126648	
-0.138428	
-0.1474	
-0.15332	
-0.157043	
-0.162781	
-0.169006	
-0.17804	
-0.186096	
-0.194031	
-0.203796	
-0.213318	
-0.222595	
-0.231079	
-0.238953	
-0.244934	
-0.247314	
-0.248352	
-0.248962	
-0.250183	
-0.249512	
-0.250671	
-0.252502	
-0.253357	
-0.247864	
-0.225891	
-0.17749	
-0.112732	
-0.0482178	
0.00250244	
0.0308838	
0.0392456	
0.0325928	
0.0178833	
-0.00115967	
-0.022644	
-0.0470581	
-0.0733643	
-0.0994873	
-0.122375	
-0.138428	
-0.14856	
-0.155334	
-0.161865	
-0.167175	
-0.173035	
-0.18042	
-0.189026	
-0.197571	
-0.207642	
-0.21759	
-0.225647	
-0.234375	
-0.241882	
-0.246887	
-0.250305	
-0.253174	
-0.254333	
-0.256592	
-0.257629	
-0.259094	
-0.263184	
-0.26825	
-0.27124	
-0.267395	
-0.251953	
-0.213257	
-0.153931	
-0.0909424	
-0.041626	
-0.0100708	
0.000610352	
-0.00335693	
-0.0180054	
-0.0357666	
-0.0552979	
-0.0784912	
-0.101868	
-0.126282	
-0.148193	
-0.163452	
-0.172974	
-0.178528	
-0.181824	
-0.184814	
-0.188416	
-0.192505	
-0.19751	
-0.203247	
-0.211792	
-0.22229	
-0.232666	
-0.240234	
-0.245667	
-0.249756	
-0.252258	
-0.255066	
-0.257813	
-0.258423	
-0.257935	
-0.259216	
-0.260742	
-0.264038	
-0.264954	
-0.258362	
-0.234558	
-0.183716	
-0.116028	
-0.0519409	
-0.00482178	
0.0189209	
0.0228882	
0.0136719	
-0.00152588	
-0.0202637	
-0.0407715	
-0.0638428	
-0.0899048	
-0.114258	
-0.133789	
-0.148499	
-0.157593	
-0.161316	
-0.164551	
-0.166931	
-0.169189	
-0.172485	
-0.177856	
-0.184937	
-0.19281	
-0.201172	
-0.208252	
-0.216858	
-0.223938	
-0.231201	
-0.236938	
-0.239563	
-0.240356	
-0.240906	
-0.240234	
-0.239868	
-0.24054	
-0.242065	
-0.237732	
-0.215637	
-0.170044	
-0.104248	
-0.0362549	
0.0147095	
0.0443726	
0.0554199	
0.0496216	
0.0336914	
0.0151978	
-0.00305176	
-0.0249023	
-0.0516357	
-0.0805664	
-0.106018	
-0.126038	
-0.138611	
-0.147339	
-0.154053	
-0.159912	
-0.166748	
-0.172607	
-0.178711	
-0.186768	
-0.196411	
-0.206848	
-0.217102	
-0.226929	
-0.235474	
-0.242432	
-0.249268	
-0.253235	
-0.254395	
-0.255249	
-0.255676	
-0.25647	
-0.256836	
-0.256409	
-0.255249	
-0.246216	
-0.214661	
-0.155151	
-0.0820923	
-0.0174561	
0.0270996	
0.0493164	
0.0532227	
0.0465088	
0.0322876	
0.0163574	
-0.00372314	
-0.031189	
-0.0633545	
-0.0947266	
-0.120056	
-0.138855	
-0.151489	
-0.158508	
-0.163025	
-0.169434	
-0.176636	
-0.183533	
-0.192017	
-0.199829	
-0.210876	
-0.223816	
-0.234802	
-0.244568	
-0.252808	
-0.260498	
-0.267212	
-0.271118	
-0.272339	
-0.272888	
-0.271484	
-0.270752	
-0.270752	
-0.271667	
-0.274536	
-0.274292	
-0.261719	
-0.222778	
-0.158142	
-0.0841064	
-0.0205688	
0.0227661	
0.041687	
0.0404053	
0.0266113	
0.0065918	
-0.0148315	
-0.039978	
-0.069519	
-0.100098	
-0.127014	
-0.147034	
-0.160889	
-0.169312	
-0.173828	
-0.177612	
-0.182434	
-0.18866	
-0.196838	
-0.206299	
-0.217773	
-0.229431	
-0.240112	
-0.247742	
-0.253235	
-0.259033	
-0.264893	
-0.269348	
-0.271362	
-0.271545	
-0.272583	
-0.272461	
-0.272095	
-0.272522	
-0.272766	
-0.270386	
-0.260193	
-0.227173	
-0.165344	
-0.0888672	
-0.0194092	
0.0296021	
0.0531616	
0.0551758	
0.0446777	
0.0279541	
0.00921631	
-0.0132446	
-0.0386963	
-0.0689087	
-0.0980225	
-0.119446	
-0.135376	
-0.14624	
-0.154114	
-0.159424	
-0.16272	
-0.167542	
-0.172974	
-0.17981	
-0.189941	
-0.199524	
-0.209167	
-0.219299	
-0.228882	
-0.236633	
-0.243225	
-0.247864	
-0.25061	
-0.252563	
-0.252869	
-0.250854	
-0.250977	
-0.252258	
-0.253418	
-0.253784	
-0.249817	
-0.232056	
-0.186523	
-0.115051	
-0.0361328	
0.0297241	
0.0708618	
0.0890503	
0.0873413	
0.0739746	
0.0554199	
0.0355225	
0.0114746	
-0.0175781	
-0.0499878	
-0.0806274	
-0.105042	
-0.124084	
-0.138123	
-0.148621	
-0.157471	
-0.16394	
-0.171326	
-0.179321	
-0.186707	
-0.197205	
-0.20697	
-0.215881	
-0.225647	
-0.236023	
-0.244385	
-0.25177	
-0.258545	
-0.263062	
-0.265259	
-0.265869	
-0.266541	
-0.267456	
-0.269226	
-0.270569	
-0.269958	
-0.265442	
-0.246155	
-0.199585	
-0.126648	
-0.0469971	
0.0192261	
0.0606079	
0.0786133	
0.0792236	
0.0672607	
0.0485229	
0.0263672	
-0.000610352	
-0.0336304	
-0.0695801	
-0.101868	
-0.12915	
-0.149841	
-0.164673	
-0.174927	
-0.181213	
-0.185181	
-0.188843	
-0.19458	
-0.202026	
-0.213745	
-0.224915	
-0.237	
-0.248596	
-0.259583	
-0.268555	
-0.274841	
-0.278748	
-0.280273	
-0.279602	
-0.278809	
-0.279907	
-0.280762	
-0.281982	
-0.283325	
-0.278564	
-0.257874	
-0.211182	
-0.139893	
-0.0635986	
-0.000488281	
0.0380249	
0.0533447	
0.0509644	
0.0372925	
0.0187988	
-0.00610352	
-0.0361938	
-0.0698853	
-0.104614	
-0.135498	
-0.158203	
-0.174927	
-0.184204	
-0.190247	
-0.193665	
-0.196472	
-0.20282	
-0.209045	
-0.217224	
-0.226257	
-0.235107	
-0.243469	
-0.253235	
-0.262024	
-0.266357	
-0.267578	
-0.266541	
-0.266724	
-0.266052	
-0.264465	
-0.262329	
-0.262268	
-0.260559	
-0.256775	
-0.240723	
-0.195496	
-0.122437	
-0.0402832	
0.0293579	
0.0759277	
0.0975342	
0.0993042	
0.0878296	
0.0709839	
0.0501709	
0.0246582	
-0.00701904	
-0.0435791	
-0.0765381	
-0.103027	
-0.123413	
-0.135681	
-0.14624	
-0.153992	
-0.160156	
-0.166077	
-0.173279	
-0.182556	
-0.190735	
-0.201111	
-0.212402	
-0.222412	
-0.231262	
-0.241028	
-0.248474	
-0.254578	
-0.257874	
-0.259949	
-0.260742	
-0.260864	
-0.258362	
-0.257202	
-0.254272	
-0.242432	
-0.204956	
-0.138977	
-0.0598145	
0.0119019	
0.062561	
0.0877686	
0.0921631	
0.0834961	
0.067749	
0.0473022	
0.0235596	
-0.00488281	
-0.0383911	
-0.0726318	
-0.103394	
-0.127197	
-0.144897	
-0.156128	
-0.164368	
-0.170105	
-0.176331	
-0.18396	
-0.193359	
-0.204529	
-0.215515	
-0.226074	
-0.23584	
-0.243042	
-0.24939	
-0.254578	
-0.259155	
-0.262695	
-0.266663	
-0.269592	
-0.270752	
-0.272217	
-0.271973	
-0.271423	
-0.266174	
-0.242981	
-0.192871	
-0.122192	
-0.0485229	
0.0110474	
0.0470581	
0.0615845	
0.0583496	
0.0424805	
0.0227661	
0.00213623	
-0.0240479	
-0.0533447	
-0.0864868	
-0.117432	
-0.141663	
-0.158447	
-0.168945	
-0.17511	
-0.180786	
-0.186951	
-0.194275	
-0.202576	
-0.211853	
-0.222717	
-0.234192	
-0.248169	
-0.262268	
-0.273315	
-0.281494	
-0.285339	
-0.288452	
-0.289795	
-0.290588	
-0.289795	
-0.289917	
-0.290588	
-0.290222	
-0.286682	
