2	
2	
2	
2	
2	
2	
2	
2	
2	
2	
2	
2	
2	
2	
2	
2	
2	
2	
2	
2	
2	
2	
2	
2	
2	
2	
2	
2	
1.79523	
1.44081	
1.11879	
0.81229	
0.525066	
0.253558	
-0.00501557	
-0.253823	
-0.493963	
-0.721557	
-0.93434	
-1.12384	
-1.28637	
-1.42122	
-1.53537	
-1.64176	
-1.74912	
-1.86095	
-1.97717	
-1.99994	
-1.99994	
-1.99994	
-1.99994	
-1.99994	
-1.99994	
-1.99994	
-1.99994	
-1.99994	
-1.99994	
-1.99994	
-1.99994	
-1.99994	
-1.99994	
-1.99994	
-1.99994	
-1.99994	
-1.99994	
-1.99994	
-1.99994	
-1.99994	
-1.99994	
-1.99994	
-1.99994	
-1.99994	
-1.99994	
-1.99994	
-1.99994	
-1.99994	
-1.99994	
-1.99994	
-1.99994	
-1.99994	
-1.99994	
-1.99994	
-1.99994	
-1.99994	
-1.99994	
-1.99994	
-1.99994	
-1.99994	
-1.99994	
-1.99994	
-1.99994	
-1.99994	
-1.99994	
-1.99994	
-1.99994	
-1.99994	
-1.99994	
-1.99994	
-1.99994	
-1.99994	
-1.99994	
-1.99994	
-1.99994	
-1.99994	
-1.99994	
-1.99994	
-1.99994	
-1.99994	
-1.99994	
-1.99994	
-1.99994	
-1.99994	
-1.99994	
-1.99994	
-1.99994	
-1.99994	
-1.99994	
-1.99994	
-1.99994	
-1.99994	
-1.99994	
-1.99994	
-1.99994	
-1.99994	
-1.99994	
-1.99994	
-1.99994	
-1.99994	
-1.99994	
-1.99994	
-1.99994	
-1.99994	
-1.99994	
-1.99994	
-1.99994	
-1.99994	
-1.99994	
-1.99994	
-1.99994	
-1.99994	
-1.99994	
-1.99994	
-1.99994	
-1.99994	
-1.99994	
-1.99994	
-1.99994	
-1.99994	
-1.99994	
-1.99994	
-1.99994	
-1.99994	
-1.99994	
-1.99994	
-1.99994	
-1.99994	
-1.99994	
-1.99994	
-1.99994	
-1.99994	
-1.99994	
-1.99994	
-1.99994	
-1.99994	
-1.99994	
-1.99994	
-1.99994	
-1.99994	
-1.99994	
-1.99994	
-1.99994	
-1.99994	
-1.99994	
-1.99994	
-1.99994	
-1.99994	
-1.99994	
-1.99994	
-1.99418	
-1.96346	
-1.94296	
-1.93093	
-1.92472	
-1.92439	
-1.93306	
-1.94891	
-1.96999	
-1.98642	
-1.99502	
-1.99748	
-1.99605	
-1.99379	
-1.98946	
-1.98325	
-1.97562	
-1.96831	
-1.96003	
-1.95246	
-1.9436	
-1.93442	
-1.92659	
-1.91831	
-1.90926	
-1.89917	
-1.88766	
-1.87738	
-1.86839	
-1.85694	
-1.84316	
-1.82777	
-1.81535	
-1.80229	
-1.79103	
-1.77726	
-1.75992	
-1.73625	
-1.69615	
-1.63575	
-1.56182	
-1.48725	
-1.42199	
-1.36767	
-1.32867	
-1.30092	
-1.28055	
-1.26807	
-1.26218	
-1.2636	
-1.27654	
-1.29562	
-1.31599	
-1.33882	
-1.35738	
-1.36883	
-1.37342	
-1.37407	
-1.37303	
-1.37174	
-1.36909	
-1.36527	
-1.361	
-1.35777	
-1.35596	
-1.35189	
-1.34445	
-1.3363	
-1.32699	
-1.31709	
-1.30875	
-1.30099	
-1.2909	
-1.28068	
-1.27039	
-1.25998	
-1.24944	
-1.23935	
-1.22855	
-1.21613	
-1.20139	
-1.18017	
-1.14518	
-1.09118	
-1.02482	
-0.958852	
-0.898251	
-0.853366	
-0.822645	
-0.79975	
-0.786427	
-0.780218	
-0.781188	
-0.787914	
-0.802466	
-0.822322	
-0.843341	
-0.86449	
-0.883634	
-0.89741	
-0.907176	
-0.913773	
-0.918171	
-0.923668	
-0.930006	
-0.93434	
-0.937379	
-0.942036	
-0.948698	
-0.951802	
-0.95232	
-0.949344	
-0.944688	
-0.940937	
-0.935633	
-0.929877	
-0.925091	
-0.919658	
-0.914096	
-0.906012	
-0.897863	
-0.892818	
-0.886286	
-0.877425	
-0.859381	
-0.825879	
-0.772392	
-0.704741	
-0.633339	
-0.5664	
-0.511426	
-0.471586	
-0.446103	
-0.431422	
-0.423208	
-0.421268	
-0.427412	
-0.439506	
-0.457551	
-0.483551	
-0.516406	
-0.546739	
-0.572092	
-0.592852	
-0.608569	
-0.621116	
-0.628747	
-0.633857	
-0.638319	
-0.641294	
-0.64317	
-0.64608	
-0.648797	
-0.652419	
-0.654747	
-0.657657	
-0.657593	
-0.657334	
-0.65617	
-0.652095	
-0.647245	
-0.642653	
-0.638061	
-0.633792	
-0.626872	
-0.620728	
-0.616265	
-0.612384	
-0.602554	
-0.581922	
-0.542211	
-0.481934	
-0.412407	
-0.344886	
-0.287454	
-0.243992	
-0.215599	
-0.198396	
-0.190505	
-0.188888	
-0.191669	
-0.20454	
-0.226077	
-0.251753	
-0.281763	
-0.314682	
-0.347214	
-0.376124	
-0.400119	
-0.417581	
-0.430646	
-0.441253	
-0.450631	
-0.457163	
-0.461237	
-0.464083	
-0.465441	
-0.466476	
-0.468611	
-0.46971	
-0.47068	
-0.471327	
-0.47068	
-0.468805	
-0.464601	
-0.460591	
-0.458327	
-0.456904	
-0.456387	
-0.454123	
-0.449984	
-0.445651	
-0.438666	
-0.418875	
-0.381169	
-0.325225	
-0.263265	
-0.203764	
-0.155904	
-0.122467	
-0.0998947	
-0.0891586	
-0.087671	
-0.0905168	
-0.0987952	
-0.114123	
-0.135531	
-0.164247	
-0.19846	
-0.234291	
-0.266564	
-0.290947	
-0.307633	
-0.319792	
-0.331692	
-0.341588	
-0.348637	
-0.354523	
-0.360085	
-0.366876	
-0.373925	
-0.379552	
-0.383239	
-0.387313	
-0.392164	
-0.395656	
-0.394816	
-0.396174	
-0.397661	
-0.39792	
-0.397855	
-0.395462	
-0.39197	
-0.388477	
-0.383885	
-0.377483	
-0.360214	
-0.324643	
-0.271479	
-0.204022	
-0.137989	
-0.0813975	
-0.039617	
-0.0114185	
0.00740215	
0.0167801	
0.0187851	
0.0153573	
0.00455642	
-0.0145229	
-0.0428508	
-0.0773876	
-0.116128	
-0.152217	
-0.182744	
-0.206868	
-0.22543	
-0.239659	
-0.248972	
-0.256086	
-0.262813	
-0.268504	
-0.273872	
-0.278852	
-0.282991	
-0.288424	
-0.29321	
-0.298772	
-0.303623	
-0.306921	
-0.308409	
-0.309961	
-0.313001	
-0.315653	
-0.314488	
-0.309508	
-0.305175	
-0.30026	
-0.291399	
-0.285772	
-0.277494	
-0.260032	
-0.223813	
-0.169356	
-0.103064	
-0.0383882	
0.0157453	
0.0556502	
0.0828786	
0.0995003	
0.107132	
0.107585	
0.100794	
0.0879233	
0.0678092	
0.0386405	
0.00526785	
-0.029463	
-0.0624475	
-0.0901934	
-0.111148	
-0.127964	
-0.142128	
-0.15364	
-0.16567	
-0.176212	
-0.186689	
-0.195227	
-0.204281	
-0.214371	
-0.220579	
-0.225818	
-0.229505	
-0.23248	
-0.234226	
-0.23442	
-0.234873	
-0.235455	
-0.233903	
-0.23539	
-0.236748	
-0.237848	
-0.240435	
-0.241599	
-0.238624	
-0.224654	
-0.191023	
-0.136048	
-0.0713081	
-0.0116772	
0.0347599	
0.0665804	
0.0857243	
0.0934854	
0.0962018	
0.0920626	
0.0835254	
0.0694908	
0.0490533	
0.0222775	
-0.00592103	
-0.0345723	
-0.0627062	
-0.0842432	
-0.0986659	
-0.109467	
-0.117745	
-0.128287	
-0.137795	
-0.147431	
-0.157909	
-0.168128	
-0.176665	
-0.185655	
-0.195227	
-0.203052	
-0.209649	
-0.217992	
-0.225171	
-0.229699	
-0.233256	
-0.234032	
-0.235325	
-0.236942	
-0.236813	
-0.235778	
-0.234873	
-0.234291	
-0.229311	
-0.205898	
-0.161789	
-0.102805	
-0.03703	
0.0241531	
0.0738887	
0.110042	
0.134166	
0.146131	
0.1504	
0.150012	
0.141733	
0.128669	
0.107391	
0.078222	
0.0432325	
0.00572058	
-0.0251944	
-0.0513233	
-0.0724076	
-0.0867656	
-0.0991833	
-0.107656	
-0.113671	
-0.120332	
-0.128029	
-0.132621	
-0.134561	
-0.137989	
-0.141416	
-0.146073	
-0.148725	
-0.14976	
-0.151053	
-0.150406	
-0.149501	
-0.149824	
-0.149824	
-0.150794	
-0.152023	
-0.152541	
-0.153317	
-0.154093	
-0.1506	
-0.13773	
-0.106233	
-0.0561093	
0.00468577	
0.0641874	
0.112177	
0.146972	
0.17129	
0.187136	
0.194703	
0.192698	
0.183514	
0.169221	
0.147684	
0.117933	
0.0814558	
0.0438792	
0.0106359	
-0.0145229	
-0.0354778	
-0.0534576	
-0.06594	
-0.0763528	
-0.0854721	
-0.0940739	
-0.102223	
-0.111019	
-0.118457	
-0.12473	
-0.132685	
-0.138894	
-0.144262	
-0.147173	
-0.149889	
-0.154416	
-0.159526	
-0.165476	
-0.170909	
-0.174595	
-0.173884	
-0.172849	
-0.172396	
-0.169292	
-0.158361	
-0.135531	
-0.0937505	
-0.0383882	
0.022795	
0.0772518	
0.11955	
0.147813	
0.166246	
0.177887	
0.179116	
0.173683	
0.164176	
0.151693	
0.131515	
0.103639	
0.0705256	
0.0363768	
0.00468577	
-0.0218959	
-0.0422687	
-0.0593431	
-0.0740891	
-0.085278	
-0.0933625	
-0.101059	
-0.111084	
-0.121561	
-0.132427	
-0.144068	
-0.152929	
-0.158685	
-0.162436	
-0.162501	
-0.162759	
-0.163859	
-0.162436	
-0.162953	
-0.165864	
-0.168128	
-0.169356	
-0.170068	
-0.171555	
-0.172137	
-0.16567	
-0.139735	
-0.0920043	
-0.0273933	
0.0402574	
0.0980774	
0.140311	
0.169415	
0.186554	
0.195673	
0.198842	
0.195544	
0.184355	
0.167022	
0.14238	
0.112565	
0.0782866	
0.042327	
0.0102479	
-0.0167865	
-0.0380001	
-0.0541691	
-0.0672982	
-0.0807507	
-0.0933625	
-0.102546	
-0.112118	
-0.120979	
-0.126476	
-0.129581	
-0.133138	
-0.138506	
-0.142839	
-0.145685	
-0.148337	
-0.149307	
-0.1517	
-0.151829	
-0.151377	
-0.151765	
-0.150665	
-0.14879	
-0.148143	
-0.146332	
-0.14174	
-0.127576	
-0.0965963	
-0.048801	
0.00798423	
0.0654162	
0.1125	
0.146843	
0.168509	
0.17834	
0.182026	
0.18125	
0.173166	
0.159519	
0.13934	
0.112306	
0.0817145	
0.0491179	
0.0205313	
-0.00313998	
-0.020085	
-0.032438	
-0.043821	
-0.0544278	
-0.0652286	
-0.0742832	
-0.0812681	
-0.0909048	
-0.102805	
-0.114705	
-0.124924	
-0.132427	
-0.137083	
-0.139606	
-0.142969	
-0.144004	
-0.14465	
-0.146138	
-0.147884	
-0.149048	
-0.14976	
-0.149889	
-0.149501	
-0.14562	
-0.136695	
-0.113994	
-0.0720842	
-0.0157517	
0.0411628	
0.0924506	
0.132614	
0.158226	
0.170773	
0.175429	
0.174459	
0.167668	
0.154863	
0.135654	
0.111142	
0.0799035	
0.0461429	
0.013223	
-0.0148463	
-0.0378708	
-0.0552685	
-0.0683977	
-0.0782931	
-0.0861835	
-0.092069	
-0.097437	
-0.102676	
-0.10772	
-0.113412	
-0.119427	
-0.125442	
-0.130034	
-0.133979	
-0.138183	
-0.138247	
-0.135531	
-0.13178	
-0.128158	
-0.127317	
-0.12777	
-0.127188	
-0.125959	
-0.127576	
-0.129128	
-0.120397	
-0.0916162	
-0.0420747	
0.0181383	
0.0763464	
0.126858	
0.164823	
0.192763	
0.209966	
0.218762	
0.222125	
0.216951	
0.203111	
0.183191	
0.157385	
0.123689	
0.0899283	
0.0586253	
0.0334664	
0.0134817	
-0.00378673	
-0.0224133	
-0.0385175	
-0.0507412	
-0.0622535	
-0.0704026	
-0.077905	
-0.084696	
-0.0907755	
-0.0980191	
-0.103905	
-0.108109	
-0.112959	
-0.117228	
-0.120138	
-0.123695	
-0.125054	
-0.1257	
-0.123372	
-0.123049	
-0.123372	
-0.123307	
-0.122272	
-0.117292	
-0.107009	
-0.0850193	
-0.0464727	
0.00565591	
0.0628938	
0.116639	
0.15829	
0.184743	
0.19923	
0.204404	
0.206086	
0.203499	
0.193215	
0.174524	
0.148912	
0.119938	
0.0906397	
0.0620531	
0.0378644	
0.0167801	
-0.00100568	
-0.0162691	
-0.0308858	
-0.0434976	
-0.0573382	
-0.0700146	
-0.0796513	
-0.0891586	
-0.0976958	
-0.106427	
-0.113606	
-0.121108	
-0.124989	
-0.127447	
-0.130422	
-0.133849	
-0.135531	
-0.137213	
-0.139929	
-0.142257	
-0.14562	
-0.146979	
-0.14672	
-0.141222	
-0.124277	
-0.0894173	
-0.0371594	
0.0235064	
0.0818438	
0.129768	
0.164111	
0.184355	
0.194703	
0.198325	
0.195414	
0.187524	
0.173813	
0.152405	
0.123818	
0.0875999	
0.0523517	
0.0202726	
-0.00695584	
-0.0267466	
-0.0429802	
-0.0577262	
-0.0720195	
-0.0847606	
-0.0958202	
-0.105457	
-0.115417	
-0.12486	
-0.135466	
-0.144068	
-0.151312	
-0.155451	
-0.157973	
-0.161919	
-0.166123	
-0.17065	
-0.172849	
-0.17259	
-0.170391	
-0.168128	
-0.16567	
-0.161595	
-0.155516	
-0.143939	
-0.118392	
-0.0738304	
-0.0133587	
0.0529338	
0.112306	
0.160037	
0.194444	
0.21818	
0.23008	
0.234996	
0.235966	
0.23118	
0.216563	
0.193733	
0.164047	
0.130997	
0.0969132	
0.0639933	
0.0354067	
0.0116707	
-0.00630908	
-0.0235128	
-0.0389703	
-0.0492537	
-0.0557213	
-0.0623829	
-0.0700793	
-0.0768702	
-0.0793925	
-0.0805567	
-0.0812681	
-0.0810094	
-0.0833378	
-0.0854074	
-0.0854721	
-0.0868302	
-0.087671	
-0.0857954	
-0.0846313	
-0.0846313	
-0.08489	
-0.0842432	
-0.0828204	
-0.0790045	
-0.0676863	
-0.0439503	
-0.00456284	
0.0470483	
0.0978187	
0.143027	
0.178469	
0.198907	
0.209902	
0.21514	
0.21527	
0.207897	
0.19425	
0.174459	
0.146972	
0.115734	
0.0836547	
0.0545507	
0.0306854	
0.0113474	
-0.003334	
-0.0149109	
-0.0277167	
-0.0399404	
-0.0498358	
-0.0592138	
-0.0683977	
-0.0782931	
-0.0871536	
-0.0958202	
-0.102805	
-0.110178	
-0.11574	
-0.119556	
-0.122208	
-0.123889	
-0.127123	
-0.130228	
-0.132685	
-0.134949	
-0.135854	
-0.136242	
-0.132879	
-0.12182	
-0.0965316	
-0.0563033	
0.00119329	
0.0645754	
0.121555	
0.167151	
0.199359	
0.218503	
0.226588	
0.228011	
0.224066	
0.214105	
0.196514	
0.17142	
0.140311	
0.103639	
0.0689734	
0.0370236	
0.0096658	
-0.0112244	
-0.0290102	
-0.0453732	
-0.061348	
-0.0729897	
-0.0830144	
-0.0909695	
-0.097437	
-0.104551	
-0.109143	
-0.111213	
-0.112054	
-0.111084	
-0.111278	
-0.112959	
-0.115611	
-0.116064	
-0.117551	
-0.119427	
-0.12085	
-0.11975	
-0.11477	
-0.110178	
-0.105586	
-0.101318	
-0.0891586	
-0.0621242	
-0.0195029	
0.0363122	
0.0930974	
0.139599	
0.176141	
0.19826	
0.210419	
0.215852	
0.21611	
0.208996	
0.195156	
0.173813	
0.147231	
0.114505	
0.0803563	
0.0446553	
0.0151632	
-0.00999559	
-0.0314679	
-0.0482836	
-0.0620595	
-0.0740245	
-0.0837258	
-0.0925864	
-0.100994	
-0.110113	
-0.117292	
-0.1257	
-0.132556	
-0.138118	
-0.142645	
-0.147367	
-0.151506	
-0.152347	
-0.152605	
-0.154222	
-0.156098	
-0.15558	
-0.154481	
-0.155063	
-0.153123	
-0.149566	
-0.141805	
-0.12182	
-0.0855367	
-0.0323087	
0.0275163	
0.0821025	
0.125241	
0.154927	
0.172519	
0.181509	
0.18429	
0.178793	
0.167345	
0.150594	
0.127375	
0.0983361	
0.0645754	
0.0302973	
0.000934588	
-0.0245476	
-0.043821	
-0.0582436	
-0.070726	
-0.0812035	
-0.089676	
-0.0975017	
-0.10688	
-0.113606	
-0.11781	
-0.122014	
-0.126024	
-0.130228	
-0.133332	
-0.136825	
-0.137407	
-0.137924	
-0.137665	
-0.13676	
-0.135402	
-0.133138	
-0.130939	
-0.128546	
-0.124083	
-0.121432	
-0.113089	
-0.0904521	
-0.0504179	
0.00888969	
0.0745355	
0.133778	
0.178081	
0.210225	
0.228269	
0.236548	
0.236936	
0.231891	
0.222578	
0.205827	
0.181638	
0.150788	
0.115734	
0.0824259	
0.0528691	
0.0264168	
0.00293953	
-0.0139408	
-0.0267466	
-0.0396817	
-0.0514527	
-0.061348	
-0.0700146	
-0.0813328	
-0.0895466	
-0.0965316	
-0.101253	
-0.107268	
-0.112054	
-0.113929	
-0.117098	
-0.119621	
-0.122143	
-0.124019	
-0.122984	
-0.120656	
-0.119233	
-0.117163	
-0.116646	
-0.114382	
-0.110631	
-0.102676	
-0.080298	
-0.0371594	
0.0221482	
0.0852069	
0.140828	
0.185195	
0.215464	
0.233249	
0.240558	
0.238165	
0.232279	
0.221026	
0.203369	
0.179116	
0.146843	
0.109202	
0.0694908	
0.0354714	
0.00791956	
-0.0144582	
-0.0297863	
-0.0435622	
-0.0548805	
-0.0615421	
-0.0669102	
-0.0741538	
-0.0828204	
-0.0931038	
-0.105004	
-0.115611	
-0.126606	
-0.13372	
-0.139541	
-0.147496	
-0.153446	
-0.160302	
-0.165476	
-0.16955	
-0.167869	
-0.166963	
-0.1636	
-0.156551	
-0.147884	
-0.137277	
-0.119039	
-0.0836611	
-0.0316619	
0.0333371	
0.0982067	
0.149753	
0.18733	
0.212941	
0.227558	
0.234284	
0.231439	
0.222837	
0.206732	
0.182608	
0.152405	
0.118838	
0.0825552	
0.0488592	
0.0190438	
-0.00650311	
-0.0253884	
-0.0409105	
-0.053975	
-0.0665868	
-0.077905	
-0.0865715	
-0.094462	
-0.104551	
-0.114447	
-0.123178	
-0.13068	
-0.135984	
-0.140511	
-0.141093	
-0.138765	
-0.135984	
-0.134884	
-0.133526	
-0.130292	
-0.126929	
-0.1257	
-0.126735	
-0.129257	
-0.128093	
-0.121626	
-0.104551	
-0.0672982	
-0.0121299	
0.0536452	
0.117739	
0.174589	
0.214817	
0.24004	
0.25414	
0.258279	
0.253558	
0.244244	
0.231891	
0.212101	
0.18526	
0.154669	
0.121231	
0.0873412	
0.0565556	
0.0302326	
0.00985982	
-0.00501557	
-0.017886	
-0.0313386	
-0.0433035	
-0.053587	
-0.0619948	
-0.0695619	
-0.0789398	
-0.0865069	
-0.092457	
-0.0969196	
-0.101964	
-0.106427	
-0.111601	
-0.114705	
-0.115158	
-0.115999	
-0.117422	
-0.118715	
-0.118909	
-0.119168	
-0.12182	
-0.123049	
-0.12072	
-0.109079	
-0.0843079	
-0.0402638	
0.0181383	
0.0813911	
0.13753	
0.181638	
0.211971	
0.228269	
0.237518	
0.236871	
0.229951	
0.218956	
0.201946	
0.176788	
0.146261	
0.11457	
0.081197	
0.0524164	
0.0286804	
0.0107653	
-0.00372206	
-0.0162045	
-0.0288809	
-0.0409752	
-0.0532636	
-0.0650992	
-0.0746066	
-0.0843726	
-0.0925864	
-0.0967903	
-0.0995713	
-0.104422	
-0.107332	
-0.111472	
-0.114705	
-0.118715	
-0.123954	
-0.126735	
-0.130486	
-0.132944	
-0.13372	
-0.135402	
-0.137019	
-0.135854	
-0.126476	
-0.100412	
-0.0552039	
0.00617331	
0.0696201	
0.1255	
0.167668	
0.198648	
0.217792	
0.224906	
0.224906	
0.220056	
0.210807	
0.195608	
0.171808	
0.143803	
0.109978	
0.0771872	
0.0487299	
0.0247999	
0.00468577	
-0.0109011	
-0.025065	
-0.0387763	
-0.0516467	
-0.0660047	
-0.0810094	
-0.0919396	
-0.0987952	
-0.105586	
-0.111601	
-0.11671	
-0.119491	
-0.122078	
-0.124277	
-0.124989	
-0.123889	
-0.122725	
-0.124471	
-0.126282	
-0.129387	
-0.130486	
-0.131327	
-0.134043	
-0.136113	
-0.131392	
-0.115288	
-0.0799746	
-0.0256471	
0.0409688	
0.106162	
0.159196	
0.198066	
0.223095	
0.236613	
0.241463	
0.241463	
0.233443	
0.220056	
0.202723	
0.175171	
0.141927	
0.10461	
0.0706549	
0.0420036	
0.0174269	
-0.00359271	
-0.0203437	
-0.0343783	
-0.0476368	
-0.0578556	
-0.0656813	
-0.0725369	
-0.0760941	
-0.0808154	
-0.0862482	
-0.0925864	
-0.0971783	
-0.100283	
-0.103387	
-0.105392	
-0.106362	
-0.104939	
-0.103517	
-0.102029	
-0.103711	
-0.106233	
-0.107203	
-0.106556	
-0.106362	
-0.10481	
-0.100024	
-0.0857308	
-0.053781	
-0.00339868	
0.0566203	
0.115346	
0.164499	
0.199295	
0.221996	
0.231827	
0.234672	
0.232732	
0.224518	
0.209514	
0.189141	
0.163594	
0.133002	
0.100794	
0.0731773	
0.0494413	
0.0284864	
0.0117354	
-0.00320465	
-0.0172393	
-0.029657	
-0.0434976	
-0.0561093	
-0.0667161	
-0.075318	
-0.0864422	
-0.0962082	
-0.104616	
-0.111536	
-0.116581	
-0.120009	
-0.121432	
-0.123307	
-0.123825	
-0.121626	
-0.120203	
-0.118845	
-0.119039	
-0.121561	
-0.121949	
-0.119879	
-0.1138	
-0.099442	
-0.0697559	
-0.0223486	
0.0383171	
0.100276	
0.15344	
0.192892	
0.218503	
0.233832	
0.241269	
0.241399	
0.233508	
0.220185	
0.197872	
0.170514	
0.136947	
0.10157	
0.0665804	
0.0340485	
0.0070141	
-0.012712	
-0.0268759	
-0.0400051	
-0.0531989	
-0.0652933	
-0.0762881	
-0.0856661	
-0.0929098	
-0.100477	
-0.108885	
-0.115676	
-0.120138	
-0.126864	
-0.128805	
-0.131133	
-0.134108	
-0.134884	
-0.136695	
-0.135919	
-0.13482	
-0.131327	
-0.128611	
-0.12667	
-0.124601	
-0.122919	
-0.112506	
-0.0876064	
-0.0446617	
0.0139991	
0.0751822	
0.131256	
0.177693	
0.212424	
0.234543	
0.246831	
0.250194	
0.246249	
0.235966	
0.220702	
0.198648	
0.16825	
0.130997	
0.0910924	
0.0561029	
0.0264168	
0.00468577	
-0.010707	
-0.0242889	
-0.0354778	
-0.0452438	
-0.0541691	
-0.0646465	
-0.0766762	
-0.0881884	
-0.0989246	
-0.107268	
-0.114964	
-0.116581	
-0.112895	
-0.108755	
-0.104939	
-0.101964	
-0.100283	
-0.0986659	
-0.0988599	
-0.0985365	
-0.0984719	
-0.0978251	
-0.0975664	
-0.0959495	
-0.0916809	
-0.0794572	
-0.0500298	
0.000546534	
0.0643814	
0.127505	
0.180862	
0.222449	
0.250777	
0.26604	
0.272766	
0.270761	
0.261319	
0.247801	
0.229175	
0.204016	
0.173554	
0.141733	
0.11056	
0.0827493	
0.0603068	
0.0426504	
0.0263521	
0.0119294	
-0.00113503	
-0.0141995	
-0.0259705	
-0.034443	
-0.0399404	
-0.0462139	
-0.053975	
-0.0634177	
-0.0725369	
-0.0797159	
-0.0850193	
-0.0903874	
-0.0940739	
-0.0982132	
-0.101835	
-0.104551	
-0.106944	
-0.108626	
-0.111278	
-0.112571	
-0.113024	
-0.114188	
-0.110113	
-0.0964022	
-0.0649052	
-0.0122592	
0.0502174	
0.107326	
0.156932	
0.191792	
0.213653	
0.223677	
0.225294	
0.22219	
0.213006	
0.19923	
0.176594	
0.143932	
0.108231	
0.0717544	
0.0382524	
0.0121881	
-0.00695584	
-0.0239009	
-0.037224	
-0.0469254	
-0.053781	
-0.0597312	
-0.0638057	
-0.0688504	
-0.0755767	
-0.082303	
-0.0878004	
-0.0923277	
-0.09485	
-0.0959495	
-0.100671	
-0.103646	
-0.106621	
-0.111278	
-0.114964	
-0.116775	
-0.116969	
-0.116646	
-0.115546	
-0.115093	
-0.115482	
-0.10772	
-0.0856661	
-0.0423334	
0.0163274	
0.0772518	
0.131127	
0.173748	
0.202981	
0.22012	
0.226329	
0.226653	
0.223807	
0.215658	
0.199165	
0.174265	
0.142898	
0.108684	
0.0731773	
0.0410982	
0.0152279	
-0.00508025	
-0.0194382	
-0.032244	
-0.0428508	
-0.0509353	
-0.0566267	
-0.0643231	
-0.0737658	
-0.0820442	
-0.0886412	
-0.0941386	
-0.0978251	
-0.100736	
-0.105457	
-0.109661	
-0.112895	
-0.117875	
-0.121238	
-0.12486	
-0.128481	
-0.13068	
-0.130874	
-0.130292	
-0.128869	
-0.129063	
-0.126735	
-0.114188	
-0.082691	
-0.0326967	
0.0280984	
0.0888934	
0.138241	
0.17627	
0.200588	
0.211454	
0.213717	
0.20725	
0.197549	
0.183902	
0.162042	
0.133002	
0.100988	
0.0680032	
0.0346306	
0.0104419	
-0.0078613	
-0.0244829	
-0.0395524	
-0.0517761	
-0.0614127	
-0.068527	
-0.0733777	
-0.0802333	
-0.0860541	
-0.0929744	
-0.0997007	
-0.103905	
-0.106427	
-0.108949	
-0.109855	
-0.110631	
-0.112895	
-0.114705	
-0.115029	
-0.114576	
-0.114317	
-0.115676	
-0.117681	
-0.117034	
-0.116322	
-0.116775	
-0.113024	
-0.0976958	
-0.0645172	
-0.0137468	
0.0463369	
0.0998236	
0.14445	
0.176076	
0.194832	
0.203369	
0.201946	
0.193215	
0.180215	
0.161071	
0.134425	
0.102928	
0.0731126	
0.047113	
0.0266108	
0.0103772	
-0.00391608	
-0.0189208	
-0.0332788	
-0.0476368	
-0.0591491	
-0.0689798	
-0.0790045	
-0.0870889	
-0.0936212	
-0.0973724	
-0.0987306	
-0.0995713	
-0.100477	
-0.102158	
-0.103581	
-0.106039	
-0.108367	
-0.107203	
-0.10591	
-0.104163	
-0.103905	
-0.103517	
-0.101641	
-0.0978251	
-0.0943973	
-0.0880591	
-0.0713081	
-0.0397464	
0.0101185	
0.0699435	
0.126082	
0.171161	
0.203369	
0.224777	
0.23215	
0.230468	
0.221414	
0.206732	
0.186618	
0.161265	
0.130609	
0.0983361	
0.0680679	
0.0418743	
0.0194965	
-0.000358925	
-0.0167865	
-0.0323734	
-0.0462786	
-0.0601839	
-0.0724723	
-0.0813328	
-0.0901287	
-0.0990539	
-0.105133	
-0.11076	
-0.114576	
-0.116064	
-0.116969	
-0.118004	
-0.121432	
-0.123889	
-0.126024	
-0.128481	
-0.130939	
-0.134173	
-0.133461	
-0.132297	
-0.130357	
-0.127058	
-0.117486	
-0.0894173	
-0.0413633	
0.0212427	
0.0864358	
0.145032	
0.189981	
0.221608	
0.239652	
0.245732	
0.242369	
0.232538	
0.217598	
0.196578	
0.169932	
0.137594	
0.103122	
0.0711076	
0.0418743	
0.0162627	
-0.00475687	
-0.0206024	
-0.0347664	
-0.046602	
-0.0581143	
-0.0672982	
-0.0754473	
-0.0834671	
-0.0919396	
-0.0985365	
-0.104745	
-0.11186	
-0.115029	
-0.117875	
-0.118198	
-0.116969	
-0.115805	
-0.114382	
-0.111924	
-0.110566	
-0.109208	
-0.108173	
-0.108626	
-0.10979	
-0.109725	
-0.10287	
-0.0833378	
-0.0421394	
0.016198	
0.0814558	
0.141992	
0.192374	
0.23008	
0.25207	
0.26106	
0.260219	
0.255239	
0.244244	
0.224195	
0.198519	
0.165146	
0.129122	
0.0932267	
0.0611476	
0.0330137	
0.0107653	
-0.00702052	
-0.0220899	
-0.0356718	
-0.0486716	
-0.0612834	
-0.0718902	
-0.0812681	
-0.0892232	
-0.0954321	
-0.101059	
-0.105133	
-0.106944	
-0.106944	
-0.106298	
-0.105457	
-0.105327	
-0.106556	
-0.10688	
-0.107915	
-0.110502	
-0.113283	
-0.112248	
-0.11173	
-0.113347	
-0.10882	
-0.0903227	
-0.0520994	
0.00203407	
0.0586253	
0.109137	
0.14943	
0.176723	
0.19231	
0.198195	
0.198454	
0.19328	
0.184937	
0.171032	
0.151693	
0.126729	
0.0950376	
0.0601128	
0.0274516	
-0.000423601	
-0.0226073	
-0.0397464	
-0.0528109	
-0.0645818	
-0.0753827	
-0.0857308	
-0.0949147	
-0.100865	
-0.10578	
-0.11076	
-0.118651	
-0.125312	
-0.129646	
-0.130551	
-0.128934	
-0.128158	
-0.126024	
-0.123113	
-0.120203	
-0.115934	
-0.113541	
-0.113153	
-0.113606	
-0.111989	
-0.109208	
-0.100865	
-0.0738951	
-0.0260352	
0.037347	
0.104028	
0.162106	
0.203369	
0.230016	
0.242175	
0.246767	
0.243792	
0.23713	
0.224583	
0.20531	
0.180151	
0.147878	
0.11457	
0.0821672	
0.0501527	
0.0237004	
0.00384499	
-0.0110951	
-0.0222193	
-0.0347664	
-0.0456965	
-0.0532636	
-0.0615421	
-0.072925	
-0.0841785	
-0.0935565	
-0.1019	
-0.106944	
-0.110696	
-0.114188	
-0.116128	
-0.119944	
-0.123695	
-0.1268	
-0.128546	
-0.130034	
-0.132233	
-0.133397	
-0.133203	
-0.128481	
-0.123825	
-0.116064	
-0.0940092	
-0.0503532	
0.0116061	
0.0795155	
0.14044	
0.189399	
0.225812	
0.247801	
0.257956	
0.260025	
0.253428	
0.24114	
0.226653	
0.202723	
0.172131	
0.137465	
0.103057	
0.0714957	
0.0443319	
0.0233124	
0.00468577	
-0.00967222	
-0.0206024	
-0.0307565	
-0.0425921	
-0.0539103	
-0.0641938	
-0.0751886	
-0.0842432	
-0.0934272	
-0.103387	
-0.109725	
-0.111989	
-0.111148	
-0.109467	
-0.107397	
-0.105133	
-0.105133	
-0.104875	
-0.105327	
-0.106944	
-0.107591	
-0.106168	
-0.104422	
-0.0964669	
-0.0690444	
-0.0206024	
0.040322	
0.0996296	
0.150141	
0.186424	
0.209384	
0.221414	
0.224454	
0.220767	
0.212489	
0.200653	
0.182479	
0.156156	
0.123754	
0.0894109	
0.0577198	
0.0291978	
0.0077902	
-0.00909014	
-0.0253884	
-0.0390996	
-0.0517761	
-0.0650346	
-0.0780344	
-0.0876064	
-0.0960789	
-0.102158	
-0.108109	
-0.112248	
-0.116969	
-0.121561	
-0.123954	
-0.126735	
-0.129063	
-0.128934	
-0.128417	
-0.127641	
-0.126088	
-0.124924	
-0.123243	
-0.120268	
-0.117616	
-0.111989	
-0.0965963	
-0.0632236	
-0.00818468	
0.054292	
0.114117	
0.164887	
0.2013	
0.227105	
0.241722	
0.248642	
0.246702	
0.242757	
0.233249	
0.216498	
0.191404	
0.157514	
0.119938	
0.083202	
0.0505408	
0.0238944	
0.00416837	
-0.0127766	
-0.0273287	
-0.0386469	
-0.0489303	
-0.0562387	
-0.0624475	
-0.0689798	
-0.0768055	
-0.085278	
-0.0940739	
-0.0998947	
-0.103711	
-0.106815	
-0.110502	
-0.111989	
-0.113671	
-0.117357	
-0.117551	
-0.115805	
-0.116258	
-0.115676	
-0.113477	
-0.112959	
-0.109984	
-0.1008	
-0.0779697	
-0.0358658	
0.0224069	
0.0837841	
0.137594	
0.178275	
0.206474	
0.2251	
0.234931	
0.235448	
0.228334	
0.214623	
0.194185	
0.168186	
0.137918	
0.103057	
0.0685206	
0.0409041	
0.0176856	
-0.00145841	
-0.0179507	
-0.0323734	
-0.0451791	
-0.0559153	
-0.0666514	
-0.0771936	
-0.0888352	
-0.096855	
-0.102223	
-0.105974	
-0.111213	
-0.113735	
-0.115158	
-0.115999	
-0.116904	
-0.11671	
-0.119297	
-0.120785	
-0.121238	
-0.120526	
-0.120009	
-0.119362	
-0.120203	
-0.117745	
-0.10785	
-0.0827557	
-0.0389056	
0.0193025	
0.0807443	
0.134684	
0.173942	
0.200071	
0.215852	
0.222966	
0.223095	
0.217921	
0.207509	
0.191016	
0.16728	
0.137335	
0.103445	
0.0683266	
0.0377997	
0.01083	
-0.0114831	
-0.0289456	
-0.0427215	
-0.0522288	
-0.0598605	
-0.0687857	
-0.0770642	
-0.0845019	
-0.0901934	
-0.0952381	
-0.101059	
-0.105133	
-0.109531	
-0.111666	
-0.113735	
-0.116646	
-0.120591	
-0.123113	
-0.1257	
-0.128029	
-0.129257	
-0.128611	
-0.127447	
-0.126929	
-0.126088	
-0.119427	
-0.094462	
-0.0469254	
0.0138697	
0.0778986	
0.135072	
0.178857	
0.209449	
0.228399	
0.237065	
0.237712	
0.232409	
0.220767	
0.203951	
0.18138	
0.151758	
0.116316	
0.0806796	
0.0508642	
0.0237651	
0.000352507	
-0.0164632	
-0.0281694	
-0.0385175	
-0.0496418	
-0.0574675	
-0.0647112	
-0.070532	
-0.0784224	
-0.0870889	
-0.0931038	
-0.0982132	
-0.101835	
-0.105327	
-0.108044	
-0.10979	
-0.110696	
-0.111795	
-0.112248	
-0.11173	
-0.110954	
-0.109079	
-0.107009	
-0.107268	
-0.103193	
-0.0949794	
-0.0743478	
-0.0374181	
0.0147752	
0.0727892	
0.129316	
0.175171	
0.204986	
0.221284	
0.227623	
0.227235	
0.221284	
0.208608	
0.189723	
0.164823	
0.13436	
0.101699	
0.0703962	
0.0418743	
0.0179443	
-0.000488276	
-0.0158164	
-0.0290102	
-0.0398757	
-0.0509999	
-0.0615421	
-0.0720842	
-0.0807507	
-0.0908401	
-0.0995067	
-0.10688	
-0.112118	
-0.115223	
-0.117939	
-0.12182	
-0.123631	
-0.12376	
-0.123178	
-0.12486	
-0.126476	
-0.129063	
-0.129063	
-0.129969	
-0.12971	
-0.127253	
-0.119815	
-0.0985365	
-0.058373	
-0.00126438	
0.0636053	
0.122201	
0.168121	
0.198195	
0.21624	
0.225941	
0.227429	
0.221931	
0.208091	
0.188882	
0.164499	
0.133002	
0.0978187	
0.0632172	
0.0312675	
0.00319823	
-0.0193736	
-0.0343136	
-0.0482836	
-0.0598605	
-0.0686564	
-0.0765468	
-0.0858601	
-0.0954321	
-0.102482	
-0.10578	
-0.109467	
-0.114899	
-0.118651	
-0.120785	
-0.122337	
-0.122078	
-0.123372	
-0.125506	
-0.125959	
-0.124924	
-0.123178	
-0.12072	
-0.118263	
-0.115158	
-0.112312	
-0.103129	
-0.0823676	
-0.0441443	
0.0106359	
0.0731126	
0.133649	
0.182608	
0.216563	
0.239006	
0.251229	
0.253364	
0.250647	
0.241075	
0.224906	
0.199618	
0.169997	
0.136107	
0.101764	
0.0675505	
0.0388345	
0.0165861	
-0.00229919	
-0.0192442	
-0.0352191	
-0.0476368	
-0.0578556	
-0.0666514	
-0.0758354	
-0.0841139	
-0.0895466	
-0.0943973	
-0.0993773	
-0.102417	
-0.10384	
-0.104422	
-0.10481	
-0.105586	
-0.108885	
-0.111924	
-0.11089	
-0.110113	
-0.109208	
-0.109984	
-0.11186	
-0.113735	
-0.1127	
-0.102805	
-0.073119	
-0.0248063	
0.0317849	
0.0869532	
0.133649	
0.167539	
0.190693	
0.204016	
0.209902	
0.208543	
0.2002	
0.183449	
0.162171	
0.133584	
0.102993	
0.0707843	
0.0416156	
0.0171682	
0.000481858	
-0.012712	
-0.0232541	
-0.0309505	
-0.0391643	
-0.0484776	
-0.0581143	
-0.066134	
-0.073313	
-0.0801687	
-0.0867009	
-0.0930391	
-0.0982778	
-0.102805	
-0.10688	
-0.109531	
-0.109467	
-0.107979	
-0.106362	
-0.103323	
-0.10177	
-0.101059	
-0.101576	
-0.102805	
-0.102934	
-0.0955615	
-0.0714374	
-0.0266172	
0.0348246	
0.0978834	
0.155121	
0.199683	
0.228205	
0.247284	
0.253364	
0.251165	
0.241787	
0.225036	
0.205633	
0.179569	
0.145226	
0.105644	
0.0687147	
0.0371529	
0.0113474	
-0.00812	
-0.022478	
-0.0348957	
-0.0451791	
-0.0553332	
-0.063547	
-0.0691091	
-0.0752533	
-0.0817209	
-0.0865715	
-0.0929098	
-0.0989246	
-0.104939	
-0.106427	
-0.107397	
-0.108109	
-0.109725	
-0.110178	
-0.109984	
-0.109467	
-0.108109	
-0.108044	
-0.107979	
-0.108561	
-0.106298	
-0.0988599	
-0.080492	
-0.0431742	
0.0143871	
0.0777046	
0.136236	
0.184872	
0.217145	
0.235319	
0.241981	
0.238553	
0.230404	
0.217275	
0.197354	
0.173101	
0.143803	
0.110236	
0.0793861	
0.0506701	
0.0266755	
0.00733748	
-0.00753792	
-0.019891	
-0.0312092	
-0.0429155	
-0.0548805	
-0.063741	
-0.072731	
-0.0823676	
-0.0901934	
-0.0962729	
-0.0984719	
-0.101059	
-0.104099	
-0.104939	
-0.105263	
-0.103387	
-0.100412	
-0.0975664	
-0.0986659	
-0.0993773	
-0.0985365	
-0.097049	
-0.0939446	
-0.0925217	
-0.085084	
-0.0619948	
-0.0210551	
0.035148	
0.0943262	
0.146843	
0.187588	
0.213717	
0.226847	
0.229692	
0.223548	
0.210096	
0.190887	
0.16644	
0.135331	
0.0996943	
0.0629585	
0.0314615	
0.00604396	
-0.0123239	
-0.0282341	
-0.0426568	
-0.056562	
-0.0687211	
-0.080492	
-0.0905168	
-0.0987306	
-0.10591	
-0.112118	
-0.116128	
-0.120462	
-0.122984	
-0.124795	
-0.125183	
-0.123954	
-0.12376	
-0.126088	
-0.127964	
-0.129193	
-0.129128	
-0.126412	
-0.119685	
-0.1138	
-0.10979	
-0.103646	
-0.0864422	
-0.0501592	
0.00352161	
0.0659336	
0.127311	
0.177952	
0.210807	
0.230598	
0.239264	
0.237841	
0.23105	
0.218633	
0.198195	
0.172584	
0.142574	
0.107132	
0.071431	
0.0399987	
0.0116707	
-0.0123886	
-0.0303684	
-0.0421394	
-0.0513233	
-0.0588904	
-0.0671689	
-0.0759647	
-0.0841139	
-0.0905814	
-0.0982778	
-0.104099	
-0.110243	
-0.115417	
-0.11878	
-0.120979	
-0.122272	
-0.122596	
-0.123501	
-0.122855	
-0.119491	
-0.116904	
-0.117422	
-0.118004	
-0.115417	
-0.110502	
-0.105133	
-0.0881238	
-0.0509353	
0.00552656	
0.0696848	
0.128216	
0.176723	
0.210225	
0.228399	
0.233443	
0.229628	
0.220767	
0.204792	
0.181897	
0.15344	
0.121684	
0.0892815	
0.059078	
0.0347599	
0.0178796	
0.00494448	
-0.00592103	
-0.0138115	
-0.0202143	
-0.024677	
-0.0307565	
-0.0363186	
-0.0444677	
-0.0504825	
-0.0568854	
-0.0639997	
-0.0727956	
-0.0797806	
-0.0835965	
-0.0859248	
-0.087477	
-0.0876064	
-0.0877357	
-0.087283	
-0.0881238	
-0.0887705	
-0.0904521	
-0.0942033	
-0.0962082	
-0.0951734	
-0.0888999	
-0.0702086	
-0.0332141	
0.0205313	
0.0817791	
0.138629	
0.184161	
0.215076	
0.230662	
0.23506	
0.23021	
0.219085	
0.204081	
0.184161	
0.158161	
0.128863	
0.0960078	
0.0660629	
0.0394166	
0.0150339	
-0.00417479	
-0.0201497	
-0.0327614	
-0.0450498	
-0.0567561	
-0.068139	
-0.0783577	
-0.0887705	
-0.0988599	
-0.106233	
-0.109014	
-0.111019	
-0.111989	
-0.113412	
-0.114382	
-0.111148	
-0.109079	
-0.108497	
-0.108949	
-0.108561	
-0.108885	
-0.110502	
-0.110113	
-0.107397	
-0.101382	
-0.0890292	
-0.06096	
-0.0123239	
0.0483418	
0.109137	
0.161395	
0.198777	
0.222255	
0.233249	
0.236095	
0.235254	
0.227946	
0.213847	
0.190111	
0.161524	
0.127828	
0.0874706	
0.0489886	
0.0158747	
-0.012712	
-0.0370947	
-0.0555919	
-0.0691091	
-0.0798453	
-0.0919396	
-0.10287	
-0.112506	
-0.119815	
-0.125959	
-0.128934	
-0.132815	
-0.134626	
-0.137601	
-0.140899	
-0.142128	
-0.141222	
-0.139218	
-0.13773	
-0.136695	
-0.13663	
-0.136307	
-0.134367	
-0.132362	
-0.12667	
-0.115482	
-0.0958848	
-0.0584376	
-0.000682303	
0.0652868	
0.128281	
0.179375	
0.216434	
0.240817	
0.253428	
0.258732	
0.254786	
0.242757	
0.225424	
0.200459	
0.167927	
0.130997	
0.09258	
0.0572671	
0.0277103	
0.00332759	
-0.0143935	
-0.0291396	
-0.04201	
-0.056174	
-0.0708554	
-0.0846313	
-0.097243	
-0.109919	
-0.120979	
-0.128934	
-0.135337	
-0.139153	
-0.14064	
-0.14064	
-0.140382	
-0.14064	
-0.141999	
-0.142904	
-0.138635	
-0.130357	
-0.123178	
-0.117939	
-0.114059	
-0.11173	
-0.105198	
-0.0885765	
-0.0521641	
0.0048798	
0.0681972	
0.129898	
0.180474	
0.214623	
0.233055	
0.23713	
0.234672	
0.225747	
0.211712	
0.190693	
0.163982	
0.132355	
0.0980127	
0.0628938	
0.0341132	
0.0121881	
-0.00721454	
-0.0213138	
-0.0338609	
-0.0456319	
-0.0548158	
-0.0639351	
-0.0722136	
-0.0797159	
-0.0832731	
-0.0871536	
-0.0903227	
-0.0909048	
-0.0910342	
-0.0906461	
-0.0906461	
-0.092069	
-0.0923924	
-0.0914869	
-0.0938152	
-0.0955615	
-0.0976958	
-0.0986659	
-0.0973077	
-0.0941386	
-0.0885118	
-0.073119	
-0.0412339	
0.00901904	
0.0703962	
0.131191	
0.180539	
0.214946	
0.234996	
0.242239	
0.242304	
0.236095	
0.225165	
0.209902	
0.187394	
0.158096	
0.122978	
0.0844955	
0.0477597	
0.0169095	
-0.0078613	
-0.0273287	
-0.0418807	
-0.053781	
-0.0641938	
-0.072731	
-0.0822383	
-0.0918749	
-0.102352	
-0.110372	
-0.118133	
-0.124019	
-0.125377	
-0.127317	
-0.126088	
-0.126088	
-0.127705	
-0.129451	
-0.130292	
-0.128805	
-0.126929	
-0.126347	
-0.125054	
-0.122531	
-0.121884	
-0.115417	
-0.0971783	
-0.0573382	
0.00145199	
0.0661276	
0.12453	
0.172325	
0.202981	
0.223742	
0.233767	
0.23616	
0.233379	
0.225294	
0.212295	
0.19024	
0.159649	
0.125435	
0.0895402	
0.056491	
0.030168	
0.00888969	
-0.00999559	
-0.0243536	
-0.0343136	
-0.0445324	
-0.0540397	
-0.0624475	
-0.0710494	
-0.0797806	
-0.0879297	
-0.0931038	
-0.0989246	
-0.104357	
-0.107203	
-0.106944	
-0.106556	
-0.108949	
-0.110566	
-0.110631	
-0.108432	
-0.105457	
-0.102482	
-0.100412	
-0.0973077	
-0.0932331	
-0.0856661	
-0.0627709	
-0.0189208	
0.0400633	
0.104739	
0.1634	
0.211001	
0.241463	
0.258408	
0.265005	
0.261577	
0.24903	
0.232603	
0.212101	
0.184743	
0.151499	
0.114117	
0.0807443	
0.0526751	
0.0314615	
0.0146458	
0.00125797	
-0.0114185	
-0.0217666	
-0.0312092	
-0.0414926	
-0.0506119	
-0.0577262	
-0.0639997	
-0.0714374	
-0.078099	
-0.082497	
-0.0871536	
-0.0898053	
-0.0935565	
-0.099248	
-0.104099	
-0.107462	
-0.111666	
-0.117939	
-0.121755	
-0.122531	
-0.122467	
-0.121496	
-0.112636	
-0.0892232	
-0.046602	
0.0099245	
0.0692321	
0.120843	
0.161977	
0.191469	
0.208479	
0.216628	
0.216369	
0.209708	
0.194897	
0.176141	
0.150788	
0.117803	
0.0821672	
0.0487299	
0.020596	
-0.00346336	
-0.0220899	
-0.0359952	
-0.0458259	
-0.0540397	
-0.0634823	
-0.0732484	
-0.0821736	
-0.0914869	
-0.100606	
-0.11089	
-0.118521	
-0.123825	
-0.128934	
-0.13068	
-0.13275	
-0.133397	
-0.134626	
-0.134561	
-0.133267	
-0.136242	
-0.139153	
-0.14077	
-0.140899	
-0.138635	
-0.130874	
-0.107268	
-0.061154	
-0.000423601	
0.061471	
0.118192	
0.16631	
0.200718	
0.22219	
0.232603	
0.234931	
0.23008	
0.22012	
0.204016	
0.179504	
0.145614	
0.109848	
0.0751175	
0.0443966	
0.0176856	
-0.00443349	
-0.0207964	
-0.0323087	
-0.0416867	
-0.0496418	
-0.0576615	
-0.063741	
-0.0715668	
-0.078099	
-0.0855367	
-0.0932978	
-0.0980838	
-0.103129	
-0.108755	
-0.111795	
-0.115417	
-0.120785	
-0.125118	
-0.127835	
-0.128029	
-0.127511	
-0.125054	
-0.121755	
-0.117939	
-0.113541	
-0.0989246	
-0.068527	
-0.017886	
0.042327	
0.102993	
0.153698	
0.191922	
0.216563	
0.232021	
0.238294	
0.236613	
0.225747	
0.207832	
0.184096	
0.156479	
0.125565	
0.0908337	
0.0601775	
0.0367649	
0.0173622	
0.000481858	
-0.0153637	
-0.0279754	
-0.0378708	
-0.0485423	
-0.0576615	
-0.0642585	
-0.0697559	
-0.0760941	
-0.0799746	
-0.0815268	
-0.0827557	
-0.0848253	
-0.0871536	
-0.0916809	
-0.09485	
-0.0982778	
-0.101641	
-0.104357	
-0.107591	
-0.111278	
-0.11477	
-0.117422	
-0.1138	
-0.0961435	
-0.0581789	
0.00112861	
0.0648341	
0.125241	
0.174201	
0.20822	
0.227429	
0.232538	
0.22717	
0.218439	
0.207121	
0.189011	
0.1634	
0.130997	
0.0945849	
0.0597894	
0.0288745	
0.00390967	
-0.0159458	
-0.0277814	
-0.0400698	
-0.0531342	
-0.0656166	
-0.0748006	
-0.0837258	
-0.0919396	
-0.097437	
-0.101835	
-0.108303	
-0.111924	
-0.115352	
-0.115805	
-0.115546	
-0.117034	
-0.117292	
-0.118004	
-0.118586	
-0.119039	
-0.119297	
-0.120009	
-0.12072	
-0.119685	
-0.114059	
-0.0966609	
-0.061348	
-0.00702052	
0.0581725	
0.120067	
0.17323	
0.210096	
0.233832	
0.246249	
0.250906	
0.246831	
0.235384	
0.218568	
0.196126	
0.166957	
0.131838	
0.0923213	
0.0561029	
0.0251879	
0.00145199	
-0.0155577	
-0.0285575	
-0.0397464	
-0.0501592	
-0.0593431	
-0.0651639	
-0.0704673	
-0.0757707	
-0.0822383	
-0.090064	
-0.0993126	
-0.10578	
-0.108885	
-0.110566	
-0.111019	
-0.109208	
-0.108367	
-0.107591	
-0.107009	
-0.106944	
-0.107138	
-0.10772	
-0.106362	
-0.105133	
-0.0983425	
-0.0762881	
-0.0336669	
0.0264815	
0.0892815	
0.145291	
0.188494	
0.218568	
0.235901	
0.241528	
0.238682	
0.230274	
0.216434	
0.198066	
0.170773	
0.137465	
0.100406	
0.0660629	
0.0377997	
0.0164567	
-0.000229574	
-0.0145876	
-0.025259	
-0.0345723	
-0.0458259	
-0.0564327	
-0.0661987	
-0.0738304	
-0.0807507	
-0.0872183	
-0.0929744	
-0.0969196	
-0.0999594	
-0.103258	
-0.102546	
-0.101447	
-0.100736	
-0.0998947	
-0.099442	
-0.0984719	
-0.0973724	
-0.0985365	
-0.101964	
-0.10287	
-0.0952381	
-0.0711141	
-0.0233188	
0.0383818	
0.097948	
0.148395	
0.183255	
0.207121	
0.217986	
0.217792	
0.213135	
0.203822	
0.188235	
0.168574	
0.142121	
0.108943	
0.0731773	
0.0419389	
0.016198	
-0.00611506	
-0.025065	
-0.0398111	
-0.0522288	
-0.063547	
-0.0740891	
-0.080492	
-0.0882531	
-0.0965316	
-0.106039	
-0.112506	
-0.118651	
-0.123243	
-0.124019	
-0.124148	
-0.125312	
-0.125183	
-0.124083	
-0.124083	
-0.125118	
-0.127317	
-0.127641	
-0.12777	
-0.130034	
-0.129128	
-0.119297	
-0.0926511	
-0.0410399	
0.0241531	
0.0881173	
0.142898	
0.183449	
0.209061	
0.223419	
0.230533	
0.230727	
0.223742	
0.212101	
0.193797	
0.16741	
0.132161	
0.0919332	
0.0530631	
0.0199492	
-0.00844338	
-0.0299157	
-0.0447911	
-0.0557859	
-0.066134	
-0.0734424	
-0.0794572	
-0.0854074	
-0.0911635	
-0.0965963	
-0.103064	
-0.109402	
-0.113283	
-0.11684	
-0.118198	
-0.120591	
-0.122402	
-0.125506	
-0.127511	
-0.129322	
-0.131521	
-0.132039	
-0.132362	
-0.133397	
-0.132297	
-0.127123	
-0.111213	
-0.0751886	
-0.0197616	
0.0456901	
0.10959	
0.162753	
0.201041	
0.222449	
0.231762	
0.231309	
0.224454	
0.213523	
0.196514	
0.174783	
0.151241	
0.125112	
0.100147	
0.0783513	
0.0580432	
0.0424563	
0.0252526	
0.00927774	
-0.00462752	
-0.0191149	
-0.0341196	
-0.0469901	
-0.0595371	
-0.067945	
-0.0748653	
-0.0808801	
-0.0875417	
-0.0904521	
-0.0945913	
-0.0975664	
-0.0983425	
-0.0979545	
-0.0945266	
-0.0908401	
-0.0874123	
-0.0837905	
-0.0815268	
-0.0832731	
-0.0850193	
-0.082303	
-0.065552	
-0.030045	
0.02079	
0.076023	
0.121813	
0.158032	
0.182867	
0.195738	
0.20117	
0.2002	
0.194185	
0.18138	
0.164111	
0.139534	
0.107003	
0.0729186	
0.0410982	
0.0148398	
-0.00753792	
-0.0246123	
-0.0386469	
-0.0509353	
-0.0621888	
-0.0695619	
-0.0749299	
-0.0821736	
-0.0896113	
-0.0978251	
-0.105069	
-0.110437	
-0.114576	
-0.116775	
-0.120656	
-0.124213	
-0.1268	
-0.128223	
-0.128223	
-0.127576	
-0.125636	
-0.121884	
-0.119879	
-0.117486	
-0.114576	
-0.107074	
-0.0869596	
-0.0480895	
0.00888969	
0.0747942	
0.13546	
0.183902	
0.217857	
0.236807	
0.242757	
0.241528	
0.236095	
0.225747	
0.208996	
0.186877	
0.157773	
0.125306	
0.0910924	
0.0553268	
0.0249939	
0.00138732	
-0.0167219	
-0.0302391	
-0.0407812	
-0.0475721	
-0.0568854	
-0.0669748	
-0.0764175	
-0.0841139	
-0.0933625	
-0.101641	
-0.107785	
-0.110437	
-0.111084	
-0.110502	
-0.109467	
-0.110372	
-0.110566	
-0.110308	
-0.109079	
-0.107979	
-0.104875	
-0.103064	
-0.101706	
-0.0999594	
-0.0909695	
-0.0716961	
-0.0358658	
0.0198199	
0.0852716	
0.143415	
0.185648	
0.213976	
0.230339	
0.235901	
0.233314	
0.22523	
0.21113	
0.19134	
0.162882	
0.128863	
0.0965252	
0.0668391	
0.0403867	
0.0208547	
0.0046211	
-0.00695584	
-0.0145229	
-0.022672	
-0.0323087	
-0.0425921	
-0.0536516	
-0.0652286	
-0.0749299	
-0.082885	
-0.0887705	
-0.0933625	
-0.097437	
-0.0983425	
-0.0991186	
-0.0993126	
-0.1019	
-0.102676	
-0.103064	
-0.101188	
-0.100347	
-0.099442	
-0.100865	
-0.102094	
-0.0976958	
-0.0772583	
-0.0337316	
0.0227303	
0.0808737	
0.133067	
0.170967	
0.193991	
0.203434	
0.204469	
0.200588	
0.191016	
0.17724	
0.157256	
0.130351	
0.0995649	
0.066257	
0.0372823	
0.0149045	
-0.00288127	
-0.0163985	
-0.0279107	
-0.0377414	
-0.048801	
-0.0585023	
-0.0668455	
-0.073313	
-0.0791338	
-0.0840492	
-0.0889645	
-0.0951734	
-0.100994	
-0.104099	
-0.106362	
-0.109143	
-0.11283	
-0.115352	
-0.119556	
-0.124924	
-0.129451	
-0.131909	
-0.134043	
-0.135984	
-0.135984	
-0.131456	
-0.114705	
-0.0775816	
-0.020473	
0.0452374	
0.108102	
0.159843	
0.195479	
0.217857	
0.229692	
0.232473	
0.228205	
0.217857	
0.203434	
0.18332	
0.156932	
0.120326	
0.0829433	
0.0484065	
0.0194318	
-0.00385141	
-0.0215079	
-0.0350897	
-0.0469901	
-0.0585023	
-0.0671042	
-0.0741538	
-0.0797159	
-0.0861188	
-0.0927804	
-0.0957555	
-0.0962729	
-0.0978251	
-0.0979545	
-0.0959495	
-0.0923277	
-0.0905814	
-0.092069	
-0.0918749	
-0.0926511	
-0.0938152	
-0.0947207	
-0.0940739	
-0.0939446	
-0.0942033	
-0.0910988	
-0.0811388	
-0.0544278	
-0.0078613	
0.0524811	
0.113211	
0.163658	
0.2013	
0.2251	
0.236031	
0.237583	
0.229757	
0.214752	
0.194379	
0.170385	
0.13934	
0.107714	
0.0777692	
0.0531278	
0.0343072	
0.0196905	
0.00669072	
-0.00643843	
-0.0155577	
-0.0231247	
-0.0348957	
-0.0490597	
-0.0605073	
-0.0714374	
-0.0808801	
-0.0886412	
-0.0956261	
-0.100994	
-0.104745	
-0.109014	
-0.110178	
-0.109337	
-0.10785	
-0.10882	
-0.107268	
-0.107462	
-0.10882	
-0.108432	
-0.107462	
-0.102223	
-0.0885765	
-0.0581789	
-0.00857273	
0.0490533	
0.104286	
0.1493	
0.181962	
0.202529	
0.211712	
0.212618	
0.208673	
0.199295	
0.184613	
0.163141	
0.135201	
0.104028	
0.0725305	
0.0439439	
0.0200139	
0.00015848	
-0.0155577	
-0.0314679	
-0.0440797	
-0.0557859	
-0.0699499	
-0.0823676	
-0.0927804	
-0.101641	
-0.109143	
-0.116646	
-0.121626	
-0.126218	
-0.12777	
-0.128352	
-0.128352	
-0.128481	
-0.129646	
-0.130292	
-0.129969	
-0.131133	
-0.133073	
-0.133397	
-0.133979	
-0.13081	
-0.124277	
-0.107591	
-0.0688504	
-0.0109657	
0.0563616	
0.120585	
0.173295	
0.212036	
0.237777	
0.25304	
0.256856	
0.253558	
0.242886	
0.223677	
0.197937	
0.164564	
0.126147	
0.0859184	
0.0489239	
0.0171035	
-0.00779662	
-0.0279107	
-0.0440797	
-0.058761	
-0.0731837	
-0.0856661	
-0.0958202	
-0.105198	
-0.114641	
-0.121755	
-0.125571	
-0.126218	
-0.126024	
-0.124407	
-0.122855	
-0.120979	
-0.119168	
-0.118133	
-0.117228	
-0.116646	
-0.11781	
-0.116904	
-0.114511	
-0.113283	
-0.109725	
-0.102999	
-0.0867656	
-0.0520994	
0.00261615	
0.0678739	
0.127246	
0.173942	
0.209708	
0.230921	
0.239846	
0.238876	
0.233314	
0.222061	
0.20822	
0.185389	
0.154927	
0.121037	
0.0872119	
0.056685	
0.0307501	
0.0100539	
-0.003334	
-0.0134881	
-0.0211198	
-0.0286222	
-0.0351544	
-0.0417513	
-0.0497064	
-0.0553332	
-0.0604426	
-0.0643878	
-0.0687857	
-0.0718255	
-0.0726663	
-0.0744125	
-0.0754473	
-0.0769349	
-0.0773876	
-0.0755767	
-0.0747359	
-0.075706	
-0.0766762	
-0.0788105	
-0.0826263	
-0.0809448	
-0.070726	
-0.0400698	
0.00998918	
0.0681972	
0.124271	
0.169479	
0.20117	
0.220702	
0.228787	
0.229175	
0.221608	
0.209902	
0.190822	
0.164564	
0.131256	
0.0932267	
0.0581725	
0.0283571	
0.00371564	
-0.0124533	
-0.0247416	
-0.0335375	
-0.0429802	
-0.051194	
-0.0581789	
-0.0646465	
-0.0696265	
-0.0753827	
-0.0799746	
-0.0834671	
-0.0849547	
-0.0868949	
-0.087671	
-0.0861835	
-0.0841139	
-0.0798453	
-0.0742832	
-0.0710494	
-0.0721489	
-0.0763528	
-0.0819149	
-0.0883178	
-0.0939446	
-0.0982132	
-0.0941386	
-0.0720842	
-0.027264	
0.0328844	
0.0962665	
0.155186	
0.201817	
0.23215	
0.249483	
0.257891	
0.259249	
0.253946	
0.238812	
0.214946	
0.184096	
0.14749	
0.107261	
0.0687793	
0.0328844	
0.00300421	
-0.0189855	
-0.0315973	
-0.0429155	
-0.0551392	
-0.0644525	
-0.0716315	
-0.0783577	
-0.0845666	
-0.0909048	
-0.0952381	
-0.100606	
-0.106233	
-0.112506	
-0.117228	
-0.122661	
-0.126541	
-0.127835	
-0.127123	
-0.125894	
-0.123178	
-0.119556	
-0.11574	
-0.112571	
-0.109919	
-0.107332	
-0.0984072	
-0.073119	
-0.0264879	
0.035148	
0.0984008	
0.155703	
0.200136	
0.226459	
0.241399	
0.246508	
0.243727	
0.232732	
0.215593	
0.191922	
0.163917	
0.132679	
0.100664	
0.0702669	
0.0459488	
0.0261581	
0.00895437	
-0.00682649	
-0.0226073	
-0.0350897	
-0.0460846	
-0.056368	
-0.0654226	
-0.0744772	
-0.0821089	
-0.08987	
-0.097049	
-0.104034	
-0.107591	
-0.109661	
-0.110631	
-0.11283	
-0.112959	
-0.111536	
-0.109337	
-0.106686	
-0.105263	
-0.103775	
-0.103258	
-0.102676	
-0.0958202	
-0.0748006	
-0.0310152	
0.0286158	
0.0894755	
0.143932	
0.186877	
0.212877	
0.225812	
0.229757	
0.223936	
0.212359	
0.194897	
0.172002	
0.142704	
0.109202	
0.0753762	
0.0431678	
0.0151632	
-0.00766727	
-0.0262939	
-0.0409752	
-0.0555919	
-0.0680743	
-0.077517	
-0.082497	
-0.0884471	
-0.0979545	
-0.107979	
-0.116322	
-0.122531	
-0.127641	
-0.130292	
-0.130098	
-0.12984	
-0.128417	
-0.125312	
-0.119944	
-0.11684	
-0.115352	
-0.113024	
-0.112118	
-0.110113	
-0.107979	
-0.103517	
-0.0875417	
-0.0528109	
0.00339226	
0.0694261	
0.133649	
0.187653	
0.226006	
0.24819	
0.258344	
0.258796	
0.251941	
0.236742	
0.215722	
0.188947	
0.158032	
0.122654	
0.087988	
0.056685	
0.0306207	
0.00856631	
-0.010319	
-0.0253884	
-0.0375474	
-0.0493831	
-0.061348	
-0.0720195	
-0.0808154	
-0.0870889	
-0.0940739	
-0.0998947	
-0.104616	
-0.107203	
-0.107462	
-0.107915	
-0.107915	
-0.106298	
-0.102676	
-0.0983425	
-0.097049	
-0.0986012	
-0.101059	
-0.102805	
-0.106168	
-0.10785	
-0.104099	
-0.0888999	
-0.0566914	
-0.00727922	
0.0518343	
0.111983	
0.162042	
0.199489	
0.220379	
0.229304	
0.230016	
0.223936	
0.210936	
0.190499	
0.163206	
0.128475	
0.0940028	
0.0619237	
0.0345659	
0.011218	
-0.00941351	
-0.0246123	
-0.0365126	
-0.0494477	
-0.0621888	
-0.0696912	
-0.0762881	
-0.0826263	
-0.0883178	
-0.0937505	
-0.0984072	
-0.102999	
-0.105392	
-0.107656	
-0.10785	
-0.104422	
-0.0997007	
-0.0963376	
-0.0943326	
-0.0954321	
-0.0976958	
-0.0993773	
-0.099636	
-0.0991833	
-0.0951734	
-0.0838552	
-0.0557213	
-0.00682649	
0.0544213	
0.116057	
0.168962	
0.204663	
0.226976	
0.237518	
0.238035	
0.232279	
0.221543	
0.205568	
0.184225	
0.155768	
0.12149	
0.0863711	
0.0542273	
0.027775	
0.00630267	
-0.0120652	
-0.0297863	
-0.0449204	
-0.0568208	
-0.0676216	
-0.077517	
-0.087477	
-0.0957555	
-0.102805	
-0.107915	
-0.11283	
-0.115999	
-0.11477	
-0.108885	
-0.100218	
-0.0933625	
-0.0912282	
-0.0939446	
-0.100024	
-0.106039	
-0.11076	
-0.113994	
-0.116646	
-0.11781	
-0.11574	
-0.104681	
-0.0772583	
-0.0286869	
0.0344366	
0.100147	
0.158872	
0.203499	
0.231762	
0.247155	
0.253687	
0.252523	
0.242692	
0.227817	
0.207379	
0.179504	
0.146002	
0.108167	
0.0709783	
0.0388345	
0.0142578	
-0.00695584	
-0.0244829	
-0.0398757	
-0.0519054	
-0.0614127	
-0.0700146	
-0.080104	
-0.0880591	
-0.0938799	
-0.097049	
-0.0998947	
-0.106233	
-0.1127	
-0.115288	
-0.117357	
-0.119879	
-0.121238	
-0.121432	
-0.121496	
-0.11878	
-0.114447	
-0.110049	
-0.108238	
-0.107138	
-0.10785	
-0.104616	
-0.0905168	
-0.0570148	
-0.00566233	
0.0540333	
0.112823	
0.159519	
0.190822	
0.209514	
0.218503	
0.220185	
0.213135	
0.199747	
0.179763	
0.155445	
0.124594	
0.0934854	
0.0625705	
0.0376057	
0.0178796	
0.000546534	
-0.0115478	
-0.0224133	
-0.032438	
-0.0407812	
-0.0520348	
-0.0649052	
-0.0755767	
-0.0869596	
-0.0947853	
-0.099442	
-0.104034	
-0.109079	
-0.112571	
-0.116387	
-0.118845	
-0.118974	
-0.119685	
-0.122661	
-0.123631	
-0.123307	
-0.121755	
-0.119879	
-0.117875	
-0.115676	
-0.107397	
-0.0826263	
-0.0378061	
0.022795	
0.0856597	
0.140634	
0.183643	
0.21223	
0.226653	
0.231891	
0.228463	
0.218568	
0.203757	
0.184549	
0.156415	
0.120779	
0.0847542	
0.051705	
0.0224716	
-0.00126438	
-0.0167219	
-0.0279754	
-0.0387763	
-0.0483482	
-0.0577262	
-0.0687211	
-0.0792632	
-0.0882531	
-0.0945266	
-0.100606	
-0.108626	
-0.115223	
-0.118651	
-0.119362	
-0.116193	
-0.114576	
-0.113865	
-0.113606	
-0.116128	
-0.118069	
-0.119297	
-0.119556	
-0.117422	
-0.115417	
-0.112442	
-0.0983425	
-0.0663927	
-0.0145229	
0.0472423	
0.107585	
0.156027	
0.189399	
0.210354	
0.222125	
0.225618	
0.222578	
0.215205	
0.201558	
0.18028	
0.152922	
0.119938	
0.0841075	
0.0515756	
0.0228596	
0.000223156	
-0.015299	
-0.0288809	
-0.0416867	
-0.0532636	
-0.0608306	
-0.0663281	
-0.0713081	
-0.0762881	
-0.0804274	
-0.0857954	
-0.0898053	
-0.0942033	
-0.0964669	
-0.0997007	
-0.100347	
-0.100412	
-0.101253	
-0.099248	
-0.096855	
-0.0969196	
-0.0965963	
-0.0956261	
-0.0931685	
-0.0905814	
-0.0875417	
-0.0770642	
-0.0502885	
-0.00417479	
0.054292	
0.114311	
0.166763	
0.206215	
0.230533	
0.24418	
0.244826	
0.239329	
0.228528	
0.213329	
0.192504	
0.165146	
0.133196	
0.102993	
0.073436	
0.0483418	
0.0309441	
0.0169741	
0.00281018	
-0.00870208	
-0.0202143	
-0.0335375	
-0.046796	
-0.0554626	
-0.0619948	
-0.0680096	
-0.0745419	
-0.0806214	
-0.0837905	
-0.0869596	
-0.0879944	
-0.0894819	
-0.0911635	
-0.0918749	
-0.0907108	
-0.0927804	
-0.096855	
-0.0998947	
-0.100994	
-0.102223	
-0.102223	
-0.0976311	
-0.0787458	
-0.0395524	
0.0150986	
0.0752469	
0.129962	
0.170579	
0.197031	
0.212424	
0.218374	
0.217081	
0.212812	
0.203305	
0.188559	
0.167474	
0.14044	
0.10862	
0.0778986	
0.0494413	
0.0263521	
0.00746683	
-0.00747324	
-0.0204084	
-0.0334082	
-0.0495124	
-0.0649052	
-0.0788105	
-0.0895466	
-0.0971783	
-0.106621	
-0.114188	
-0.120009	
-0.122143	
-0.12279	
-0.125248	
-0.128999	
-0.130163	
-0.12971	
-0.128869	
-0.130745	
-0.13275	
-0.13165	
-0.129451	
-0.128546	
-0.12473	
-0.108432	
-0.0732484	
-0.0199556	
0.0391579	
0.095361	
0.14238	
0.176206	
0.198842	
0.212101	
0.216692	
0.214041	
0.205568	
0.191728	
0.171549	
0.145873	
0.115799	
0.0815204	
0.0486652	
0.0210487	
-0.000488276	
-0.0191795	
-0.0359952	
-0.0497711	
-0.0605073	
-0.0689798	
-0.0760941	
-0.0830144	
-0.0912282	
-0.0988599	
-0.106427	
-0.110437	
-0.11173	
-0.113153	
-0.113671	
-0.115352	
-0.113412	
-0.111213	
-0.112248	
-0.113735	
-0.113347	
-0.113929	
-0.115676	
-0.116581	
-0.116064	
-0.108238	
-0.0849547	
-0.041428	
0.0195612	
0.0834607	
0.139405	
0.182544	
0.209837	
0.222707	
0.224842	
0.21915	
0.209255	
0.195867	
0.177758	
0.154604	
0.125241	
0.0945849	
0.0654809	
0.040322	
0.0182677	
-0.000294249	
-0.015299	
-0.0287515	
-0.0400051	
-0.0482189	
-0.0571441	
-0.0650992	
-0.070726	
-0.0751886	
-0.0795866	
-0.0826263	
-0.0852134	
-0.0857954	
-0.0870889	
-0.0889645	
-0.0921336	
-0.0938799	
-0.0952381	
-0.0954968	
-0.0964669	
-0.0965963	
-0.0936212	
-0.0925864	
-0.0923277	
-0.0880591	
-0.073119	
-0.0403931	
0.00714345	
0.0637346	
0.116187	
0.156932	
0.184807	
0.200718	
0.20822	
0.205116	
0.194056	
0.178146	
0.157967	
0.131709	
0.0984008	
0.0661276	
0.037347	
0.0121235	
-0.00643843	
-0.0215079	
-0.0336669	
-0.0413633	
-0.0478308	
-0.0547511	
-0.0625122	
-0.0698206	
-0.0762881	
-0.0823676	
-0.0888999	
-0.0927804	
-0.0954321	
-0.0987952	
-0.102158	
-0.104099	
-0.105069	
-0.106039	
-0.107656	
-0.109273	
-0.110502	
-0.114123	
-0.118457	
-0.118586	
-0.115676	
-0.108691	
-0.0905168	
-0.0547511	
-0.00158776	
0.0584312	
0.114117	
0.15829	
0.186748	
0.199747	
0.204533	
0.204016	
0.195932	
0.183061	
0.166246	
0.144773	
0.118709	
0.0894755	
0.0581725	
0.0280984	
0.00313356	
-0.0157517	
-0.0305624	
-0.0431095	
-0.0529402	
-0.0627709	
-0.0704673	
-0.0781637	
-0.0848253	
-0.0912282	
-0.0977604	
-0.104681	
-0.109273	
-0.112765	
-0.116064	
-0.12182	
-0.124665	
-0.12376	
-0.122855	
-0.12182	
-0.123178	
-0.126024	
-0.128093	
-0.128287	
-0.1257	
-0.121496	
-0.108885	
-0.0787458	
-0.0312092	
0.0255113	
0.0833313	
0.134619	
0.173942	
0.198971	
0.210548	
0.212618	
0.207444	
0.196578	
0.17834	
0.157126	
0.131838	
0.102087	
0.0717544	
0.0440086	
0.023183	
0.00720812	
-0.00275192	
-0.00980157	
-0.0153637	
-0.0220253	
-0.0317266	
-0.0422687	
-0.0541044	
-0.0647759	
-0.073119	
-0.0771936	
-0.0769995	
-0.0752533	
-0.0737658	
-0.0731837	
-0.0738304	
-0.0748653	
-0.0756414	
-0.0782284	
-0.0807507	
-0.082691	
-0.085084	
-0.0860541	
-0.0861835	
-0.0844372	
-0.0771936	
-0.0597312	
-0.0239655	
0.0261581	
0.0829433	
0.135719	
0.176529	
0.199747	
0.210354	
0.210484	
0.201882	
0.191275	
0.174136	
0.152987	
0.125953	
0.0956197	
0.0647048	
0.0363768	
0.0139344	
-0.0028166	
-0.015493	
-0.0250003	
-0.0328908	
-0.0408459	
-0.0493184	
-0.0593431	
-0.0693031	
-0.0792632	
-0.0875417	
-0.0940092	
-0.101512	
-0.109273	
-0.115093	
-0.118004	
-0.119944	
-0.120203	
-0.119233	
-0.119427	
-0.118004	
-0.116193	
-0.116646	
-0.117551	
-0.117357	
-0.116258	
-0.110825	
-0.0945913	
-0.0619948	
-0.0102543	
0.0502821	
0.109525	
0.156803	
0.189335	
0.206862	
0.214688	
0.21514	
0.207573	
0.195802	
0.178405	
0.156285	
0.127764	
0.0962018	
0.0628938	
0.0326903	
0.00804891	
-0.0125179	
-0.027652	
-0.0380001	
-0.0471194	
-0.0552685	
-0.0641291	
-0.0728603	
-0.0819796	
-0.0897406	
-0.0960142	
-0.09983	
-0.10093	
-0.102999	
-0.101512	
-0.0984719	
-0.0969196	
-0.0973724	
-0.0988599	
-0.0984719	
-0.0997007	
-0.0981485	
-0.0934918	
-0.0890292	
-0.084696	
-0.0829497	
-0.0782284	
-0.0614127	
-0.0267466	
0.0233124	
0.0814558	
0.136495	
0.178728	
0.207379	
0.222837	
0.229304	
0.229822	
0.222384	
0.210096	
0.189529	
0.163982	
0.133261	
0.100082	
0.0685853	
0.0413569	
0.0181383	
0.00119329	
-0.0112891	
-0.0220899	
-0.0321147	
-0.0411046	
-0.0499005	
-0.0586963	
-0.0660047	
-0.0734424	
-0.0785518	
-0.0827557	
-0.0866362	
-0.0895466	
-0.0909695	
-0.0923277	
-0.092069	
-0.0925864	
-0.0932978	
-0.094656	
-0.0953028	
-0.0931038	
-0.0887705	
-0.0854721	
-0.0819796	
-0.0783577	
-0.0704026	
-0.0523581	
-0.0162045	
0.0343719	
0.0908337	
0.143221	
0.183385	
0.209708	
0.223871	
0.227817	
0.226394	
0.218762	
0.205633	
0.185778	
0.158355	
0.126211	
0.0941968	
0.0647048	
0.0399987	
0.0226009	
0.00591461	
-0.0100603	
-0.025259	
-0.0405225	
-0.0536516	
-0.0676863	
-0.0783577	
-0.0862482	
-0.0931038	
-0.0964669	
-0.0955615	
-0.0951734	
-0.0953674	
-0.097049	
-0.100089	
-0.104487	
-0.108044	
-0.110437	
-0.113089	
-0.115158	
-0.115934	
-0.120462	
-0.125183	
-0.127447	
-0.122402	
-0.105457	
-0.0696265	
-0.0147816	
0.0502174	
0.112953	
0.163012	
0.197613	
0.215011	
0.220767	
0.21818	
0.210742	
0.197031	
0.179181	
0.153828	
0.123495	
0.0914158	
0.0577845	
0.0280984	
0.00740215	
-0.010319	
-0.0250003	
-0.0356718	
-0.0448558	
-0.0530049	
-0.0601839	
-0.0669102	
-0.0737658	
-0.0812035	
-0.0863775	
-0.0909695	
-0.0926511	
-0.0908401	
-0.0889645	
-0.0858601	
-0.082691	
-0.082497	
-0.0838552	
-0.0843079	
-0.087477	
-0.0902581	
-0.0916162	
-0.094462	
-0.0945913	
-0.0918749	
-0.0844372	
-0.0663281	
-0.0308211	
0.0204666	
0.0789981	
0.134684	
0.178275	
0.207379	
0.222901	
0.228463	
0.22717	
0.219797	
0.208349	
0.191857	
0.171549	
0.144385	
0.111077	
0.0772518	
0.0455608	
0.0231183	
0.00656137	
-0.00624441	
-0.0181447	
-0.0281048	
-0.0348957	
-0.0427215	
-0.0498358	
-0.0593431	
-0.0691091	
-0.0765468	
-0.0814622	
-0.0856661	
-0.0850193	
-0.0840492	
-0.0828204	
-0.082497	
-0.082885	
-0.0828204	
-0.0839198	
-0.0849547	
-0.0852134	
-0.0843079	
-0.0845019	
-0.0843726	
-0.0831437	
-0.0768055	
-0.0605719	
-0.0290102	
0.0213074	
0.078416	
0.132679	
0.173748	
0.19923	
0.211001	
0.211454	
0.204404	
0.191922	
0.173554	
0.150141	
0.122266	
0.0934207	
0.0644461	
0.0395459	
0.0219542	
0.0104419	
0.000805236	
-0.00947819	
-0.0180154	
-0.0240302	
-0.0309505	
-0.0407812	
-0.0498358	
-0.0571441	
-0.0623829	
-0.0691738	
-0.0755767	
-0.0806214	
-0.0819149	
-0.0817209	
-0.0821089	
-0.0815915	
-0.0810741	
-0.0804274	
-0.0827557	
-0.0844372	
-0.0845666	
-0.0838552	
-0.0835318	
-0.0832084	
-0.0779697	
-0.0642585	
-0.0347017	
0.0125115	
0.0681972	
0.120714	
0.163788	
0.193345	
0.210354	
0.217792	
0.216498	
0.208931	
0.196449	
0.18125	
0.159649	
0.130997	
0.0995649	
0.0682619	
0.0367649	
0.0103772	
-0.00876676	
-0.0224133	
-0.0312092	
-0.0405872	
-0.0507412	
-0.058955	
-0.068333	
-0.0772583	
-0.0837905	
-0.0896113	
-0.0937505	
-0.0993773	
-0.10287	
-0.105198	
-0.106362	
-0.109467	
-0.1127	
-0.114123	
-0.1138	
-0.114188	
-0.113865	
-0.114705	
-0.113865	
-0.111342	
-0.108109	
-0.100024	
-0.0759001	
-0.034443	
0.0224716	
0.0799682	
0.130221	
0.168703	
0.192504	
0.205892	
0.207315	
0.204792	
0.199101	
0.188106	
0.169609	
0.145097	
0.113276	
0.0777692	
0.0440086	
0.0152926	
-0.00915481	
-0.0283635	
-0.0422687	
-0.0539103	
-0.0642585	
-0.0700793	
-0.0764175	
-0.082691	
-0.089676	
-0.0962729	
-0.103064	
-0.10675	
-0.108432	
-0.109919	
-0.109855	
-0.111924	
-0.114835	
-0.115158	
-0.114964	
-0.113735	
-0.111666	
-0.111407	
-0.109467	
-0.105392	
-0.10274	
-0.0986659	
-0.0863128	
-0.0575969	
-0.0112244	
0.0482772	
0.106873	
0.154216	
0.187265	
0.207703	
0.217339	
0.218051	
0.210613	
0.199683	
0.183579	
0.164176	
0.139987	
0.109913	
0.0779633	
0.0477597	
0.0237004	
0.00494448	
-0.00844338	
-0.0172393	
-0.0240302	
-0.0295276	
-0.0349604	
-0.0425274	
-0.0506119	
-0.0585023	
-0.0651639	
-0.0712434	
-0.0744772	
-0.077517	
-0.0790045	
-0.0808801	
-0.0813328	
-0.0806214	
-0.0784871	
-0.0793925	
-0.0791338	
-0.0780344	
-0.0788105	
-0.080104	
-0.0806861	
-0.0813975	
-0.0785518	
-0.0661987	
-0.0339256	
0.0169741	
0.0724012	
0.122072	
0.160877	
0.183643	
0.195996	
0.2002	
0.196514	
0.187718	
0.174201	
0.154798	
0.131191	
0.102346	
0.0719484	
0.0424563	
0.0197552	
0.00106394	
-0.0143935	
-0.0256471	
-0.0352838	
-0.0460846	
-0.0571441	
-0.068139	
-0.0781637	
-0.0850193	
-0.0901287	
-0.0918749	
-0.0936859	
-0.0956908	
-0.0982132	
-0.100541	
-0.102611	
-0.10591	
-0.106492	
-0.107591	
-0.108691	
-0.108561	
-0.108044	
-0.108497	
-0.110502	
-0.109661	
-0.105586	
-0.0913575	
-0.0603779	
-0.0136821	
0.0435558	
0.0989182	
0.144838	
0.177305	
0.197743	
0.206797	
0.208737	
0.203887	
0.195867	
0.181832	
0.159649	
0.131644	
0.101052	
0.0718191	
0.0432325	
0.0198199	
-0.000617628	
-0.0156871	
-0.027264	
-0.0363186	
-0.0463433	
-0.0555272	
-0.0629649	
-0.0715021	
-0.0787458	
-0.0857308	
-0.0923277	
-0.0950441	
-0.0967903	
-0.0967903	
-0.0975664	
-0.0985365	
-0.0988599	
-0.099248	
-0.0976311	
-0.0982132	
-0.0995713	
-0.101318	
-0.0991833	
-0.0991833	
-0.0986659	
-0.0897406	
-0.0700146	
-0.0295276	
0.0286804	
0.0916098	
0.148654	
0.189852	
0.212618	
0.221802	
0.221543	
0.215528	
0.208479	
0.196126	
0.176788	
0.153892	
0.126923	
0.0971719	
0.0704609	
0.0479538	
0.0265461	
0.00908372	
-0.00443349	
-0.0187915	
-0.0321147	
-0.0430448	
-0.0537163	
-0.0638704	
-0.0719549	
-0.0792632	
-0.0835318	
-0.0855367	
-0.0863128	
-0.0876064	
-0.0898053	
-0.0899347	
-0.089676	
-0.0906461	
-0.0903227	
-0.0894819	
-0.0912282	
-0.0927157	
-0.0936859	
-0.0930391	
-0.0909048	
-0.0869596	
-0.0759001	
-0.0489303	
-0.00423946	
0.0515109	
0.10545	
0.150465	
0.181444	
0.199165	
0.207379	
0.207379	
0.200265	
0.183514	
0.164241	
0.143415	
0.117997	
0.0913511	
0.0663863	
0.0421976	
0.0223422	
0.00973047	
0.000417183	
-0.00986624	
-0.0194382	
-0.0279107	
-0.0354131	
-0.0443384	
-0.0534576	
-0.0621888	
-0.0713728	
-0.0771289	
-0.0821736	
-0.0878651	
-0.090064	
-0.0909695	
-0.0937505	
-0.0969196	
-0.100541	
-0.102805	
-0.10274	
-0.102352	
-0.100606	
-0.100283	
-0.0989246	
-0.0991833	
-0.100218	
-0.100218	
-0.0978251	
-0.0945913	
-0.0911635	
-0.0882531	
-0.0859895	
-0.0843079	
-0.0828204	
-0.0799746	
-0.0772583	
-0.0773229	
-0.0766115	
-0.0771936	
-0.077517	
-0.0779697	
-0.0794572	
-0.0815268	
-0.0816562	
-0.0829497	
-0.0829497	
-0.0831437	
-0.07991	
-0.0768055	
-0.0742832	
-0.0743478	
-0.0762234	
-0.0772583	
-0.0774523	
-0.0790045	
-0.0786164	
-0.077905	
-0.0773876	
-0.0752533	
-0.0731837	
-0.0704026	
-0.0673629	
-0.0653579	
-0.0652933	
-0.0632883	
-0.0603779	
-0.0564327	
-0.0519054	
-0.0407165	
-0.0141995	
0.0361181	
0.105644	
0.178663	
0.245538	
0.297602	
0.33175	
0.349342	
0.353417	
0.346367	
0.327353	
0.299089	
0.264552	
0.2262	
0.188947	
0.155897	
0.126793	
0.104739	
0.0863064	
0.0707196	
0.056685	
0.0468543	
0.0368296	
0.0247999	
0.0116061	
0.000611209	
-0.00805533	
-0.0157517	
-0.0239009	
-0.0328261	
-0.0401991	
-0.0447911	
-0.0486069	
-0.0506766	
-0.0539103	
-0.0558506	
-0.0581789	
-0.0590197	
-0.0593431	
-0.0597312	
-0.0599252	
-0.0615421	
-0.0610247	
-0.0595371	
-0.0550098	
-0.0427861	
-0.0136821	
0.0334018	
0.0875353	
0.138564	
0.178663	
0.206474	
0.221996	
0.226653	
0.221608	
0.212036	
0.196772	
0.177499	
0.152405	
0.124077	
0.094973	
0.0694908	
0.0477597	
0.030362	
0.0178796	
0.0102479	
0.00423304	
0.00158134	
-0.00352803	
-0.010319	
-0.0185975	
-0.027458	
-0.0343783	
-0.0401991	
-0.0453085	
-0.0500945	
-0.0563033	
-0.0627062	
-0.068139	
-0.0711787	
-0.0711787	
-0.0700146	
-0.0672982	
-0.0641291	
-0.0629003	
-0.0612187	
-0.0593431	
-0.0581143	
-0.0517114	
-0.0264879	
0.016004	
0.0698788	
0.124594	
0.170385	
0.202529	
0.219862	
0.226394	
0.222255	
0.209514	
0.189464	
0.165599	
0.136947	
0.106938	
0.0772518	
0.0529338	
0.0333371	
0.0184617	
0.00843696	
0.0017107	
-0.00469219	
-0.0108364	
-0.0168512	
-0.0258411	
-0.0352191	
-0.0456965	
-0.0562387	
-0.0675569	
-0.077517	
-0.0837258	
-0.0881884	
-0.0902581	
-0.0927157	
-0.0956261	
-0.097049	
-0.0963376	
-0.0978898	
-0.0989893	
-0.101835	
-0.105392	
-0.107462	
-0.101964	
-0.0872183	
-0.0575322	
-0.00954286	
0.0478244	
0.102217	
0.145549	
0.174912	
0.191146	
0.199165	
0.197419	
0.188559	
0.175947	
0.158678	
0.13753	
0.113406	
0.0853363	
0.0570084	
0.0320436	
0.0119294	
-0.00417479	
-0.0167219	
-0.0260352	
-0.0358012	
-0.0462139	
-0.0547511	
-0.0629649	
-0.0709847	
-0.0788751	
-0.0857954	
-0.0916162	
-0.0980191	
-0.102611	
-0.106621	
-0.107979	
-0.108109	
-0.109725	
-0.111536	
-0.112571	
-0.114253	
-0.115482	
-0.114705	
-0.112377	
-0.11089	
-0.106556	
-0.0945266	
-0.0669748	
-0.0205377	
0.0367649	
0.0956844	
0.147813	
0.18332	
0.205892	
0.217857	
0.221673	
0.217727	
0.208349	
0.191469	
0.169479	
0.144644	
0.116898	
0.0869532	
0.0584312	
0.0334664	
0.0138697	
-0.00262257	
-0.0148463	
-0.0239009	
-0.0345077	
-0.0436269	
-0.0510646	
-0.0586317	
-0.0670395	
-0.0740245	
-0.0786164	
-0.0840492	
-0.0875417	
-0.0908401	
-0.0934918	
-0.0965316	
-0.0982778	
-0.099248	
-0.0977604	
-0.0956908	
-0.0954968	
-0.0956261	
-0.0962082	
-0.0954321	
-0.0923924	
-0.0845019	
-0.063741	
-0.0260352	
0.0258994	
0.0805503	
0.128863	
0.163982	
0.184355	
0.193668	
0.194315	
0.187459	
0.173424	
0.153181	
0.129574	
0.102734	
0.0762817	
0.0513816	
0.0289391	
0.0110887	
-0.00417479	
-0.0165925	
-0.0285575	
-0.0388409	
-0.0468607	
-0.0543631	
-0.0616714	
-0.0713728	
-0.0800393	
-0.0876064	
-0.0936859	
-0.0980191	
-0.101253	
-0.103323	
-0.103387	
-0.103258	
-0.104875	
-0.106168	
-0.106427	
-0.10481	
-0.104099	
-0.104875	
-0.105586	
-0.105069	
-0.0964022	
-0.0738304	
-0.0328261	
0.0209194	
0.0753762	
0.125241	
0.161977	
0.184031	
0.197031	
0.200847	
0.195867	
0.182996	
0.168056	
0.147102	
0.120779	
0.0938088	
0.0672918	
0.0410335	
0.0186557	
0.00151667	
-0.0120005	
-0.0245476	
-0.0350897	
-0.0448558	
-0.0543631	
-0.0658753	
-0.0762881	
-0.0862482	
-0.0952381	
-0.101964	
-0.107979	
-0.110372	
-0.11186	
-0.112312	
-0.112377	
-0.1127	
-0.114576	
-0.115352	
-0.116193	
-0.115288	
-0.112895	
-0.112118	
-0.112636	
-0.110631	
-0.107074	
-0.0938799	
-0.0610893	
-0.0115478	
0.0466603	
0.103381	
0.150723	
0.184225	
0.204598	
0.213265	
0.213265	
0.206474	
0.196061	
0.181444	
0.162106	
0.136818	
0.105838	
0.0725952	
0.0478891	
0.0299739	
0.0145811	
0.00119329	
-0.0121299	
-0.0239655	
-0.034249	
-0.0420747	
-0.0510646	
-0.0612834	
-0.0693678	
-0.0762234	
-0.0805567	
-0.0822383	
-0.0810741	
-0.0792632	
-0.0773876	
-0.0771289	
-0.0786164	
-0.0791985	
-0.0803627	
-0.0823676	
-0.0843726	
-0.0856014	
-0.0857954	
-0.0870243	
-0.0889645	
-0.0841785	
-0.0667808	
-0.0303037	
0.0220188	
0.0793861	
0.128992	
0.166634	
0.190111	
0.202399	
0.205245	
0.200459	
0.187588	
0.169479	
0.149042	
0.124012	
0.0948436	
0.0648341	
0.0398046	
0.0189791	
0.00319823	
-0.00844338	
-0.0182094	
-0.0284281	
-0.0362539	
-0.0440797	
-0.051388	
-0.0588257	
-0.0643231	
-0.0689798	
-0.0769995	
-0.0837258	
-0.0887705	
-0.0917456	
-0.0962082	
-0.0984719	
-0.0980191	
-0.10093	
-0.104745	
-0.10675	
-0.107656	
-0.109661	
-0.110566	
-0.10979	
-0.104745	
-0.0884471	
-0.0552039	
-0.00301063	
0.056879	
0.112177	
0.154151	
0.180927	
0.195091	
0.199683	
0.196837	
0.187782	
0.173101	
0.155445	
0.134942	
0.108167	
0.0757643	
0.0454961	
0.0194965	
-0.00191114	
-0.0163338	
-0.0278461	
-0.0392937	
-0.0491244	
-0.0575322	
-0.0674276	
-0.0764175	
-0.0854721	
-0.0932331	
-0.101382	
-0.105974	
-0.108626	
-0.111278	
-0.1127	
-0.112506	
-0.111924	
-0.110954	
-0.109984	
-0.109531	
-0.112442	
-0.113929	
-0.113089	
-0.111342	
-0.108561	
-0.102482	
-0.0898053	
-0.0614127	
-0.0122592	
0.0476951	
0.106485	
0.156868	
0.19425	
0.216757	
0.229434	
0.23105	
0.22426	
0.212489	
0.195996	
0.174201	
0.147102	
0.116057	
0.0849482	
0.0560382	
0.0319789	
0.0116707	
-0.00449817	
-0.0187268	
-0.0308858	
-0.0415573	
-0.0509999	
-0.0622535	
-0.0713728	
-0.0782931	
-0.0841139	
-0.0912282	
-0.096855	
-0.099636	
-0.10093	
-0.102158	
-0.103969	
-0.103969	
-0.102999	
-0.101641	
-0.101124	
-0.10177	
-0.102546	
-0.104293	
-0.105004	
-0.105392	
-0.0973724	
-0.075512	
-0.0345077	
0.0174915	
0.0727245	
0.119679	
0.154604	
0.17737	
0.190046	
0.19425	
0.191016	
0.180215	
0.162882	
0.139599	
0.11153	
0.0805503	
0.0506701	
0.0249292	
0.00468577	
-0.0131	
-0.0254531	
-0.0341196	
-0.0442737	
-0.0533929	
-0.0615421	
-0.0694325	
-0.077711	
-0.0845019	
-0.0899994	
-0.0918103	
-0.0942033	
-0.0982132	
-0.101124	
-0.105457	
-0.106815	
-0.108561	
-0.112183	
-0.112571	
-0.112312	
-0.111213	
-0.108885	
-0.107203	
-0.105522	
-0.0980191	
-0.0764175	
-0.0374827	
0.0163921	
0.0740181	
0.123883	
0.160619	
0.184937	
0.196384	
0.198325	
0.193797	
0.184419	
0.168833	
0.14833	
0.123624	
0.094973	
0.0641227	
0.0363122	
0.0174915	
0.00151667	
-0.0136821	
-0.0236422	
-0.0312092	
-0.0392937	
-0.0478955	
-0.056174	
-0.0656813	
-0.0727956	
-0.0825617	
-0.0909695	
-0.0982132	
-0.103905	
-0.110308	
-0.114447	
-0.117551	
-0.120397	
-0.120979	
-0.124665	
-0.126153	
-0.126735	
-0.125442	
-0.123049	
-0.120462	
-0.114899	
-0.0987952	
-0.066134	
-0.0173039	
0.0429737	
0.101505	
0.149818	
0.185648	
0.209837	
0.223225	
0.226523	
0.223095	
0.214235	
0.199877	
0.179633	
0.152728	
0.119744	
0.0852069	
0.0550034	
0.0313321	
0.0143871	
0.000287831	
-0.00941351	
-0.0149109	
-0.0214432	
-0.0301097	
-0.0393583	
-0.0471194	
-0.0557213	
-0.0648405	
-0.0735717	
-0.0797806	
-0.0854074	
-0.0885765	
-0.08987	
-0.0907108	
-0.0921983	
-0.0934272	
-0.0959495	
-0.0969843	
-0.0962729	
-0.0936212	
-0.0907755	
-0.0890939	
-0.0864422	
-0.0746066	
-0.0477662	
-0.00352803	
0.0506055	
0.103251	
0.14736	
0.17931	
0.199036	
0.207897	
0.207509	
0.200912	
0.187653	
0.169544	
0.147684	
0.121425	
0.0917392	
0.0624411	
0.0381231	
0.018591	
0.00507383	
-0.00320465	
-0.0141348	
-0.0262292	
-0.0376121	
-0.0454378	
-0.0543631	
-0.0649699	
-0.0738951	
-0.0820442	
-0.0892232	
-0.097437	
-0.10591	
-0.111472	
-0.116581	
-0.118845	
-0.119297	
-0.119685	
-0.118004	
-0.113735	
-0.112377	
-0.113606	
-0.115352	
-0.113283	
-0.102158	
-0.0715668	
-0.022284	
0.0341779	
0.0877293	
0.132808	
0.161718	
0.179439	
0.188041	
0.186748	
0.17821	
0.164887	
0.148589	
0.12647	
0.0985301	
0.0676798	
0.0377997	
0.0094071	
-0.0117418	
-0.0259058	
-0.037224	
-0.0486069	
-0.0582436	
-0.066134	
-0.072731	
-0.0771936	
-0.0795219	
-0.0807507	
-0.0841785	
-0.0895466	
-0.0962729	
-0.102999	
-0.106233	
-0.107462	
-0.108885	
-0.109725	
-0.107979	
-0.106492	
-0.10591	
-0.105586	
-0.103387	
-0.101964	
-0.0982778	
-0.0910342	
-0.0704026	
-0.0330201	
0.0208547	
0.0804856	
0.138241	
0.183449	
0.213782	
0.231115	
0.239976	
0.240687	
0.233638	
0.221996	
0.204598	
0.18138	
0.151952	
0.120326	
0.0894109	
0.0612123	
0.0386405	
0.0195612	
0.00384499	
-0.00857273	
-0.0204084	
-0.0315326	
-0.0405872	
-0.0482189	
-0.053975	
-0.0594725	
-0.0675569	
-0.0747359	
-0.0768702	
-0.0773876	
-0.0779697	
-0.0815268	
-0.0837905	
-0.0835318	
-0.0839198	
-0.0835965	
-0.0837905	
-0.0830791	
-0.0843726	
-0.087477	
-0.0872183	
-0.077517	
-0.0530049	
-0.00805533	
0.0487299	
0.106291	
0.153634	
0.186036	
0.203305	
0.210225	
0.207121	
0.196643	
0.178728	
0.15732	
0.13449	
0.107067	
0.0767991	
0.046919	
0.0217601	
0.00384499	
-0.00960754	
-0.0217019	
-0.032438	
-0.0405225	
-0.0508706	
-0.0617361	
-0.0715668	
-0.0801687	
-0.0890939	
-0.0967903	
-0.102288	
-0.10772	
-0.113024	
-0.116064	
-0.117939	
-0.119556	
-0.121108	
-0.122078	
-0.122143	
-0.121108	
-0.119879	
-0.118845	
-0.11684	
-0.114641	
-0.106427	
-0.0863775	
-0.044403	
0.0150986	
0.0802269	
0.139664	
0.185584	
0.216628	
0.23312	
0.239652	
0.236354	
0.228075	
0.215076	
0.19923	
0.177564	
0.149042	
0.116251	
0.0855303	
0.0572024	
0.0332077	
0.0154866	
0.00145199	
-0.0123886	
-0.0234481	
-0.0341843	
-0.0433682	
-0.0522935	
-0.0612187	
-0.0693031	
-0.075318	
-0.0793925	
-0.0841139	
-0.0888999	
-0.0916162	
-0.0916162	
-0.0898053	
-0.0905168	
-0.0885765	
-0.0878651	
-0.0882531	
-0.0892232	
-0.0888999	
-0.0849547	
-0.0791985	
-0.0711787	
-0.0518407	
-0.0158811	
0.0315908	
0.0857243	
0.134942	
0.173166	
0.199489	
0.213653	
0.218245	
0.216628	
0.209319	
0.195608	
0.175817	
0.150465	
0.122783	
0.0940028	
0.0643814	
0.03974	
0.0216955	
0.00908372	
-0.00365738	
-0.0151696	
-0.0231247	
-0.029851	
-0.0367713	
-0.0444677	
-0.0526815	
-0.0605073	
-0.0682683	
-0.0758354	
-0.0790045	
-0.0795866	
-0.0800393	
-0.0777757	
-0.0791985	
-0.080492	
-0.082497	
-0.0822383	
-0.0819149	
-0.08489	
-0.0889645	
-0.0921336	
-0.090064	
-0.0764175	
-0.0433682	
0.0077902	
0.0623764	
0.112953	
0.150723	
0.174395	
0.185519	
0.187782	
0.184937	
0.178146	
0.166828	
0.1493	
0.127117	
0.0993709	
0.0700728	
0.0436852	
0.0198199	
-0.00145841	
-0.0171746	
-0.0301097	
-0.0431095	
-0.0544278	
-0.0636117	
-0.072731	
-0.082691	
-0.0930391	
-0.101512	
-0.110113	
-0.115934	
-0.119233	
-0.122531	
-0.124665	
-0.12777	
-0.129063	
-0.128352	
-0.126994	
-0.125571	
-0.125377	
-0.124601	
-0.121367	
-0.114964	
-0.109273	
-0.0978251	
-0.0714374	
-0.0250003	
0.0352127	
0.0967839	
0.147166	
0.183643	
0.206732	
0.219926	
0.223548	
0.220767	
0.211712	
0.197419	
0.177176	
0.152405	
0.123301	
0.0947789	
0.0661923	
0.0396753	
0.0202726	
0.00578526	
-0.00676181	
-0.0190502	
-0.0319853	
-0.0429802	
-0.0533283	
-0.0621242	
-0.070532	
-0.0778403	
-0.0832084	
-0.0876064	
-0.092069	
-0.0961435	
-0.101318	
-0.105198	
-0.107979	
-0.110696	
-0.1127	
-0.114188	
-0.111472	
-0.108303	
-0.104163	
-0.0993126	
-0.0936859	
-0.0858601	
-0.0623182	
-0.0212492	
0.0326903	
0.0897989	
0.139858	
0.178469	
0.203563	
0.215722	
0.217404	
0.213847	
0.205568	
0.194121	
0.175429	
0.150012	
0.119938	
0.0911571	
0.0670331	
0.0456254	
0.0278397	
0.0141931	
0.00261615	
-0.00870208	
-0.0194382	
-0.0273933	
-0.0358012	
-0.0453085	
-0.0536516	
-0.0639997	
-0.0735071	
-0.0810094	
-0.0844372	
-0.0852134	
-0.0879944	
-0.0904521	
-0.0907108	
-0.0914869	
-0.0931685	
-0.0934918	
-0.0942033	
-0.0967256	
-0.0963376	
-0.0969843	
-0.0947207	
-0.0797159	
-0.0484776	
0.00015848	
0.0553268	
0.10545	
0.143609	
0.168121	
0.181186	
0.184613	
0.18138	
0.173166	
0.160489	
0.145808	
0.124724	
0.0967192	
0.0680679	
0.0417449	
0.0210487	
0.00319823	
-0.0103836	
-0.022284	
-0.03205	
-0.0416867	
-0.0537163	
-0.0658107	
-0.0769995	
-0.087477	
-0.0978251	
-0.107785	
-0.115288	
-0.119621	
-0.122014	
-0.123631	
-0.125118	
-0.124601	
-0.122337	
-0.119815	
-0.116516	
-0.112442	
-0.110437	
-0.10772	
-0.103387	
-0.0978251	
-0.0883825	
-0.0671689	
-0.0271346	
0.0262874	
0.0848189	
0.134813	
0.171808	
0.196514	
0.206668	
0.209449	
0.205698	
0.198066	
0.185001	
0.166763	
0.142316	
0.111271	
0.0778986	
0.0455608	
0.0176856	
-0.00378673	
-0.0189208	
-0.0317913	
-0.0439503	
-0.0527462	
-0.058955	
-0.065552	
-0.0713081	
-0.0755767	
-0.080492	
-0.0867009	
-0.0909695	
-0.0927804	
-0.0940739	
-0.0962729	
-0.097243	
-0.0973724	
-0.0960789	
-0.0951734	
-0.0934918	
-0.0903874	
-0.0887058	
-0.0870889	
-0.087283	
-0.0865715	
-0.0818502	
-0.0667161	
-0.034443	
0.0129643	
0.0678739	
0.120455	
0.158614	
0.182932	
0.193991	
0.19425	
0.190175	
0.180345	
0.166828	
0.147942	
0.123818	
0.100082	
0.0765404	
0.0512522	
0.0292625	
0.013611	
0.0019694	
-0.00773195	
-0.0173686	
-0.0251944	
-0.0330848	
-0.0428508	
-0.0470547	
-0.0530696	
-0.0605073	
-0.0672982	
-0.0720195	
-0.0769349	
-0.07991	
-0.0813975	
-0.0807507	
-0.0793925	
-0.078099	
-0.0791985	
-0.0778403	
-0.0764175	
-0.0765468	
-0.0760941	
-0.0765468	
-0.0760941	
-0.0712434	
-0.0514527	
-0.0121299	
0.0409688	
0.0947789	
0.137271	
0.163982	
0.178987	
0.184807	
0.183255	
0.176076	
0.160877	
0.140246	
0.118386	
0.092774	
0.0635406	
0.0358594	
0.0117354	
-0.00579168	
-0.0213138	
-0.0352838	
-0.0458906	
-0.0558506	
-0.0636764	
-0.070532	
-0.0787458	
-0.0869596	
-0.0947853	
-0.0999594	
-0.104099	
-0.104551	
-0.105522	
-0.104357	
-0.102676	
-0.100736	
-0.101059	
-0.10093	
-0.0995713	
-0.0976958	
-0.0961435	
-0.0951087	
-0.0945266	
-0.0894173	
-0.0774523	
-0.0575322	
-0.0218959	
0.0288745	
0.0846895	
0.133972	
0.170255	
0.193151	
0.204016	
0.208349	
0.205827	
0.194703	
0.179375	
0.160101	
0.135719	
0.106744	
0.0756349	
0.0453667	
0.0191084	
-0.000746979	
-0.0156871	
-0.0278461	
-0.036642	
-0.0466667	
-0.0594725	
-0.0707907	
-0.0786811	
-0.0851487	
-0.0908401	
-0.0957555	
-0.100994	
-0.103387	
-0.106168	
-0.108949	
-0.108885	
-0.105845	
-0.102546	
-0.100671	
-0.0989246	
-0.0967903	
-0.0942679	
-0.0925217	
-0.0907108	
-0.0866362	
-0.0774523	
-0.0566914	
-0.0209258	
0.0293919	
0.0852069	
0.134425	
0.172713	
0.195479	
0.20518	
0.206086	
0.201882	
0.191922	
0.17737	
0.157902	
0.134878	
0.109913	
0.0829433	
0.059466	
0.0394166	
0.0222129	
0.00733748	
-0.00488622	
-0.015299	
-0.0251944	
-0.0380001	
-0.0486716	
-0.0568208	
-0.0618008	
-0.0658753	
-0.0697559	
-0.0720195	
-0.0747359	
-0.075512	
-0.0771936	
-0.075124	
-0.0713081	
-0.0682037	
-0.066134	
-0.0650346	
-0.0624475	
-0.0616714	
-0.063353	
-0.0623829	
-0.0592138	
-0.0475721	
-0.020473	
0.0225362	
0.0735006	
0.123948	
0.162171	
0.184355	
0.192892	
0.192504	
0.185648	
0.173619	
0.160425	
0.141604	
0.117739	
0.0938088	
0.0672271	
0.0434265	
0.0218248	
0.0048798	
-0.00980157	
-0.0239009	
-0.034831	
-0.0473134	
-0.058761	
-0.0666514	
-0.0759647	
-0.0845666	
-0.0928451	
-0.0985365	
-0.1019	
-0.104939	
-0.107526	
-0.108755	
-0.109208	
-0.10675	
-0.106815	
-0.106298	
-0.104422	
-0.103646	
-0.102546	
-0.100283	
-0.0971783	
-0.092263	
-0.080492	
-0.0522288	
-0.00559765	
0.049312	
0.102087	
0.144256	
0.173489	
0.191792	
0.198907	
0.196708	
0.187265	
0.176076	
0.159778	
0.137724	
0.108749	
0.0773165	
0.0485359	
0.023377	
0.00229278	
-0.0138761	
-0.0263585	
-0.0380001	
-0.0475721	
-0.0557859	
-0.0644525	
-0.0720842	
-0.0790045	
-0.0844372	
-0.0885118	
-0.094656	
-0.0985365	
-0.100412	
-0.0997654	
-0.0976958	
-0.0957555	
-0.0923924	
-0.0908401	
-0.090064	
-0.0894173	
-0.0890939	
-0.0878651	
-0.0866362	
-0.0845019	
-0.0793925	
-0.0677509	
-0.0376121	
0.0110887	
0.0691674	
0.124206	
0.168315	
0.197225	
0.212359	
0.215722	
0.209125	
0.195932	
0.179439	
0.158808	
0.134619	
0.107003	
0.0789981	
0.051705	
0.0278397	
0.00843696	
-0.0054683	
-0.0152343	
-0.022478	
-0.0275874	
-0.0333435	
-0.0409105	
-0.0487363	
-0.0577262	
-0.065552	
-0.070726	
-0.0737658	
-0.0755767	
-0.0771289	
-0.0773876	
-0.0769995	
-0.0788751	
-0.0802333	
-0.0786811	
-0.0776463	
-0.0742832	
-0.0702733	
-0.0652286	
-0.0634823	
-0.0639351	
-0.0584376	
-0.0388409	
-0.000682303	
0.0503468	
0.106097	
0.153375	
0.186554	
0.203111	
0.20615	
0.20117	
0.19121	
0.175494	
0.154669	
0.128475	
0.0996943	
0.071043	
0.0464662	
0.023183	
0.00293953	
-0.00967222	
-0.019891	
-0.0297217	
-0.0378708	
-0.0440797	
-0.0500945	
-0.0592138	
-0.068333	
-0.0746712	
-0.0793279	
-0.0811388	
-0.0846313	
-0.0865715	
-0.0851487	
-0.0859895	
-0.0870243	
-0.0863775	
-0.0848253	
-0.0826263	
-0.0845666	
-0.0845019	
-0.0865715	
-0.0885118	
-0.0863775	
-0.0778403	
-0.0581143	
-0.0197616	
0.0337251	
0.0924506	
0.142121	
0.176982	
0.196902	
0.205956	
0.206215	
0.198648	
0.1872	
0.170643	
0.149171	
0.121555	
0.0886994	
0.054486	
0.0259641	
0.00300421	
-0.0139408	
-0.0293336	
-0.0411692	
-0.0488656	
-0.0556566	
-0.0599252	
-0.0652286	
-0.0709847	
-0.0782284	
-0.0849547	
-0.0919396	
-0.0986659	
-0.104099	
-0.109273	
-0.113089	
-0.115029	
-0.115999	
-0.114899	
-0.113153	
-0.10979	
-0.105457	
-0.101641	
-0.0993126	
-0.0957555	
-0.0901934	
-0.0834671	
-0.0630943	
-0.0224133	
0.0324316	
0.0884407	
0.136042	
0.172002	
0.194379	
0.203628	
0.201946	
0.193021	
0.180733	
0.16644	
0.14833	
0.125306	
0.0968486	
0.0689734	
0.0451727	
0.0249939	
0.00888969	
-0.00339868	
-0.0145876	
-0.0250003	
-0.0347664	
-0.0407812	
-0.0471194	
-0.0508706	
-0.0553332	
-0.0603132	
-0.0644525	
-0.070726	
-0.0745419	
-0.0737011	
-0.0713728	
-0.0687857	
-0.0687857	
-0.0672982	
-0.0673629	
-0.0687211	
-0.0702733	
-0.0725369	
-0.073313	
-0.0724723	
-0.0721489	
-0.0670395	
-0.0496418	
-0.0170452	
0.0328844	
0.0870179	
0.137206	
0.172778	
0.192957	
0.200524	
0.198454	
0.187977	
0.171872	
0.151823	
0.125759	
0.0962018	
0.0683913	
0.0429737	
0.0207253	
0.00345694	
-0.00721454	
-0.0163985	
-0.0251944	
-0.0329554	
-0.0410399	
-0.0517114	
-0.0626416	
-0.07092	
-0.0792632	
-0.0859248	
-0.0912282	
-0.0958848	
-0.097243	
-0.0962729	
-0.0953674	
-0.092069	
-0.0895466	
-0.0870243	
-0.0851487	
-0.0854721	
-0.087283	
-0.0879297	
-0.0890939	
-0.0885765	
-0.0862482	
-0.0739598	
-0.0433035	
0.00591461	
0.0621824	
0.115993	
0.156868	
0.182996	
0.195738	
0.197807	
0.193151	
0.182156	
0.166504	
0.147231	
0.122719	
0.0948436	
0.0649635	
0.037735	
0.0165214	
0.000934588	
-0.0103836	
-0.0208611	
-0.0283635	
-0.0363186	
-0.0445971	
-0.053587	
-0.0632236	
-0.0698206	
-0.0757707	
-0.0812681	
-0.0865069	
-0.0907108	
-0.0925864	
-0.0940092	
-0.0931685	
-0.0931685	
-0.0933625	
-0.0934918	
-0.094462	
-0.0954968	
-0.0945913	
-0.0934272	
-0.092457	
-0.0912282	
-0.0849547	
-0.0658107	
-0.0284928	
0.0245412	
0.0839134	
0.136947	
0.178922	
0.206474	
0.221155	
0.223871	
0.217469	
0.206474	
0.192504	
0.172713	
0.149042	
0.11942	
0.0902516	
0.0631525	
0.0383171	
0.0171682	
0.000805236	
-0.0125826	
-0.0215079	
-0.029851	
-0.0395524	
-0.0490597	
-0.0577262	
-0.0636117	
-0.068527	
-0.0726663	
-0.0750593	
-0.0746066	
-0.0748006	
-0.0739598	
-0.0755767	
-0.075124	
-0.0738304	
-0.0718902	
-0.0693031	
-0.0693678	
-0.0684624	
-0.0678803	
-0.0672982	
-0.0673629	
-0.0638704	
-0.0523581	
-0.0225427	
0.0230537	
0.075829	
0.123301	
0.159972	
0.181444	
0.189981	
0.188106	
0.179892	
0.166504	
0.149947	
0.131644	
0.106421	
0.0795155	
0.0524811	
0.0290685	
0.0118648	
-0.00107036	
-0.00999559	
-0.0194382	
-0.0277167	
-0.0339256	
-0.0427861	
-0.0517761	
-0.0588257	
-0.0646465	
-0.0724076	
-0.0790692	
-0.0825617	
-0.085278	
-0.0872183	
-0.0907108	
-0.0929744	
-0.0956261	
-0.0967903	
-0.096855	
-0.0967903	
-0.0962729	
-0.0957555	
-0.0954968	
-0.0934272	
-0.090064	
-0.0809448	
-0.0606366	
-0.019891	
0.0354067	
0.0908337	
0.13753	
0.170061	
0.189529	
0.19632	
0.194573	
0.18526	
0.170837	
0.153828	
0.130092	
0.101376	
0.0705902	
0.03974	
0.0129643	
-0.00495089	
-0.0170452	
-0.027458	
-0.0374181	
-0.0453732	
-0.0520348	
-0.0605073	
-0.0674922	
-0.0735717	
-0.0806861	
-0.087671	
-0.0929744	
-0.0966609	
-0.0991186	
-0.100541	
-0.100412	
-0.10177	
-0.104745	
-0.105392	
-0.106944	
-0.109531	
-0.111407	
-0.113541	
-0.117292	
-0.118198	
-0.116258	
-0.10688	
-0.0825617	
-0.0377414	
0.022795	
0.0830726	
0.133843	
0.171743	
0.19535	
0.207121	
0.207509	
0.201364	
0.191081	
0.178663	
0.159455	
0.132744	
0.102605	
0.0729832	
0.0460782	
0.0214368	
0.00190472	
-0.0141348	
-0.0243536	
-0.031856	
-0.0369007	
-0.0399404	
-0.0430448	
-0.0482189	
-0.0553979	
-0.0612187	
-0.065552	
-0.0676863	
-0.0680743	
-0.0684624	
-0.0651639	
-0.0601839	
-0.0598605	
-0.0599899	
-0.0628356	
-0.0656813	
-0.0661987	
-0.0689151	
-0.0702733	
-0.070338	
-0.0712434	
-0.0682037	
-0.0553332	
-0.024677	
0.0258347	
0.0847542	
0.13753	
0.176206	
0.198454	
0.208802	
0.210807	
0.20531	
0.193603	
0.173813	
0.147878	
0.11858	
0.0899283	
0.0634112	
0.0388992	
0.0200786	
0.00604396	
-0.00650311	
-0.0211198	
-0.0345723	
-0.044403	
-0.0522935	
-0.058567	
-0.0616067	
-0.0645172	
-0.0693031	
-0.0749946	
-0.0811388	
-0.0873477	
-0.0928451	
-0.0958848	
-0.0973724	
-0.0973724	
-0.0982132	
-0.0981485	
-0.0976311	
-0.0973724	
-0.0973077	
-0.0984072	
-0.0985365	
-0.0978251	
-0.089676	
-0.0653579	
-0.0211198	
0.0362475	
0.0945202	
0.145097	
0.180409	
0.200459	
0.20725	
0.204404	
0.19522	
0.181768	
0.163076	
0.13947	
0.109396	
0.0762817	
0.0445906	
0.0173622	
-0.00469219	
-0.022866	
-0.0348957	
-0.0446617	
-0.0523581	
-0.0596665	
-0.0668455	
-0.0727956	
-0.0793925	
-0.0846313	
-0.0901934	
-0.0963376	
-0.102611	
-0.108626	
-0.112312	
-0.112959	
-0.112118	
-0.113929	
-0.1138	
-0.112765	
-0.110566	
-0.107268	
-0.104163	
-0.1008	
-0.0961435	
-0.0899994	
-0.0806861	
-0.0575969	
-0.0149756	
0.0439439	
0.104933	
0.158872	
0.197549	
0.21928	
0.229369	
0.230598	
0.224066	
0.212101	
0.194121	
0.172131	
0.146325	
0.115993	
0.0811324	
0.0505408	
0.0252526	
0.00662604	
-0.00967222	
-0.0213785	
-0.0304978	
-0.0376768	
-0.0433682	
-0.0486069	
-0.0534576	
-0.0592138	
-0.0638057	
-0.0682683	
-0.073313	
-0.0766115	
-0.0798453	
-0.082691	
-0.0866362	
-0.0865715	
-0.0850193	
-0.0834671	
-0.0815268	
-0.0791985	
-0.0795219	
-0.07991	
-0.0810741	
-0.0806861	
-0.0758354	
-0.0598605	
-0.025065	
0.0271929	
0.0846895	
0.137594	
0.176723	
0.200653	
0.209578	
0.209125	
0.200071	
0.18636	
0.168897	
0.14445	
0.116122	
0.0871472	
0.0602421	
0.0367649	
0.0196905	
0.00610864	
-0.00598571	
-0.0149756	
-0.022478	
-0.0297863	
-0.0350897	
-0.043821	
-0.0543631	
-0.0645172	
-0.0740245	
-0.0812681	
-0.0860541	
-0.0899347	
-0.0903227	
-0.0918749	
-0.0950441	
-0.0953028	
-0.0973724	
-0.100606	
-0.10177	
-0.101512	
-0.101706	
-0.102805	
-0.103258	
-0.100477	
-0.0903874	
-0.0638704	
-0.015493	
0.0438792	
0.0996943	
0.145226	
0.175623	
0.190499	
0.192374	
0.187847	
0.179051	
0.165857	
0.147684	
0.125241	
0.0994356	
0.0711723	
0.0408395	
0.0131583	
-0.00727922	
-0.0249357	
-0.039035	
-0.0486716	
-0.0568208	
-0.0627709	
-0.0686564	
-0.0748006	
-0.0819149	
-0.0878651	
-0.0912282	
-0.0940092	
-0.0983425	
-0.100671	
-0.10177	
-0.102223	
-0.1008	
-0.100153	
-0.0983425	
-0.0976311	
-0.0962729	
-0.0958202	
-0.0955615	
-0.0950441	
-0.0927804	
-0.0864422	
-0.0708554	
-0.0347664	
0.020596	
0.0826846	
0.139728	
0.184161	
0.211001	
0.221802	
0.224583	
0.220185	
0.212359	
0.200976	
0.184419	
0.164047	
0.137271	
0.106421	
0.0759583	
0.0480184	
0.023377	
0.00507383	
-0.00779662	
-0.0191149	
-0.0258411	
-0.0334728	
-0.0415573	
-0.0500298	
-0.0557213	
-0.0622535	
-0.0693678	
-0.0735071	
-0.0754473	
-0.0759001	
-0.0784871	
-0.0798453	
-0.0796513	
-0.0781637	
-0.0766762	
-0.0750593	
-0.0742185	
-0.0735717	
-0.0742832	
-0.0760941	
-0.0757707	
-0.0722136	
-0.058761	
-0.0279754	
0.0194318	
0.0740181	
0.124724	
0.164305	
0.189787	
0.200976	
0.201623	
0.194315	
0.178016	
0.159455	
0.136365	
0.110883	
0.0828139	
0.0541626	
0.0286804	
0.00960112	
-0.00559765	
-0.0163338	
-0.0250003	
-0.0340549	
-0.0417513	
-0.0499005	
-0.058761	
-0.0669748	
-0.0763528	
-0.0859248	
-0.0921336	
-0.096855	
-0.0985365	
-0.0991833	
-0.0997654	
-0.0999594	
-0.0991833	
-0.0987952	
-0.1008	
-0.101835	
-0.101447	
-0.102417	
-0.103258	
-0.104293	
-0.101188	
-0.0899347	
-0.0643878	
-0.0194382	
0.0370236	
0.0949083	
0.142316	
0.175106	
0.194121	
0.201688	
0.199553	
0.187847	
0.171484	
0.15441	
0.13352	
0.107261	
0.0751175	
0.0433618	
0.0168448	
-0.00495089	
-0.0233835	
-0.0387763	
-0.0513233	
-0.0612834	
-0.0691738	
-0.0756414	
-0.0798453	
-0.0819796	
-0.0872183	
-0.0917456	
-0.0943973	
-0.0964022	
-0.0976958	
-0.099442	
-0.101318	
-0.100283	
-0.0983425	
-0.0981485	
-0.0964669	
-0.0949147	
-0.0929098	
-0.0905168	
-0.0887058	
-0.0873477	
-0.0841139	
-0.072731	
-0.0473134	
-0.000294249	
0.059466	
0.119808	
0.167992	
0.200653	
0.22122	
0.23118	
0.229369	
0.221026	
0.208349	
0.194056	
0.174201	
0.147425	
0.114634	
0.0812617	
0.0526104	
0.0297799	
0.0122528	
-0.00107036	
-0.012712	
-0.0216372	
-0.0289456	
-0.0393583	
-0.0487363	
-0.0570795	
-0.0660047	
-0.0720195	
-0.0774523	
-0.0815268	
-0.0839198	
-0.0866362	
-0.0879944	
-0.0868949	
-0.085278	
-0.0840492	
-0.0814622	
-0.080492	
-0.0804274	
-0.07991	
-0.0803627	
-0.0806214	
-0.0786164	
-0.0694325	
-0.0423981	
0.0046211	
0.0607595	
0.113664	
0.154863	
0.182996	
0.197937	
0.199359	
0.191534	
0.177758	
0.16146	
0.141539	
0.117545	
0.0894109	
0.0606302	
0.0337898	
0.0116061	
-0.00805533	
-0.0244829	
-0.0391643	
-0.0498358	
-0.0572088	
-0.0647112	
-0.0705967	
-0.0762881	
-0.0837258	
-0.0909695	
-0.0960789	
-0.100153	
-0.103064	
-0.105263	
-0.107526	
-0.108044	
-0.107526	
-0.105651	
-0.106362	
-0.106427	
-0.105133	
-0.104681	
-0.102223	
-0.102676	
-0.102158	
-0.0955615	
-0.0749946	
-0.0352191	
0.0200786	
0.0791921	
0.131903	
0.171549	
0.197225	
0.208737	
0.210031	
0.202917	
0.19024	
0.173101	
0.151693	
0.125435	
0.0957491	
0.0645754	
0.0339838	
0.00610864	
-0.0145876	
-0.0283635	
-0.037224	
-0.0420747	
-0.0475075	
-0.0526168	
-0.0574675	
-0.0615421	
-0.0656813	
-0.070338	
-0.0734424	
-0.0760941	
-0.0777757	
-0.0788105	
-0.0812681	
-0.087283	
-0.0890939	
-0.087671	
-0.0841785	
-0.0807507	
-0.0782931	
-0.075706	
-0.0737011	
-0.0726016	
-0.0708554	
-0.067945	
-0.05598	
-0.027264	
0.0220188	
0.0813264	
0.137335	
0.179245	
0.204469	
0.215722	
0.215205	
0.208479	
0.196837	
0.180992	
0.160295	
0.133714	
0.102281	
0.0692967	
0.0389639	
0.0119294	
-0.0118065	
-0.0309505	
-0.0470547	
-0.0619301	
-0.0738304	
-0.082497	
-0.0903227	
-0.0979545	
-0.10591	
-0.110243	
-0.112312	
-0.115093	
-0.117745	
-0.12072	
-0.122919	
-0.123437	
-0.124019	
-0.123307	
-0.120785	
-0.11781	
-0.117681	
-0.11574	
-0.113865	
-0.112312	
-0.108691	
-0.1008	
-0.0782931	
-0.0360599	
0.0226656	
0.0850776	
0.140052	
0.178857	
0.202011	
0.214817	
0.218827	
0.216434	
0.20822	
0.193086	
0.17433	
0.149947	
0.117609	
0.0832667	
0.0522224	
0.0280984	
0.00707877	
-0.010707	
-0.0262292	
-0.0372887	
-0.0450498	
-0.0526815	
-0.0612187	
-0.0689151	
-0.0749299	
-0.080492	
-0.0837258	
-0.0890292	
-0.0930391	
-0.0962082	
-0.0977604	
-0.0997654	
-0.100541	
-0.100218	
-0.101059	
-0.100218	
-0.100541	
-0.101059	
-0.100736	
-0.0979545	
-0.0964022	
-0.0902581	
-0.0754473	
-0.043821	
0.00546188	
0.0656749	
0.12246	
0.168897	
0.200847	
0.22012	
0.2262	
0.223936	
0.217598	
0.206797	
0.189787	
0.168056	
0.141281	
0.110754	
0.0818438	
0.0569437	
0.0362475	
0.0203373	
0.00824293	
-0.003334	
-0.0132941	
-0.022478	
-0.029851	
-0.0361245	
-0.0425274	
-0.0472488	
-0.051582	
-0.0553979	
-0.0594078	
-0.0618655	
-0.0644525	
-0.0669102	
-0.0673629	
-0.0667161	
-0.0671042	
-0.0676863	
-0.0686564	
-0.0664574	
-0.066134	
-0.0660047	
-0.0669748	
-0.0691091	
-0.068333	
-0.0534576	
-0.0178213	
0.0334664	
0.0869532	
0.135848	
0.171096	
0.193021	
0.202593	
0.20214	
0.193733	
0.181186	
0.1634	
0.141022	
0.112888	
0.0867592	
0.0623118	
0.042715	
0.0250586	
0.00960112	
-0.0030753	
-0.0135528	
-0.022478	
-0.0323734	
-0.0409752	
-0.051194	
-0.0625122	
-0.0733777	
-0.0829497	
-0.0909695	
-0.0973724	
-0.101512	
-0.103775	
-0.102934	
-0.101318	
-0.100024	
-0.100865	
-0.100283	
-0.100347	
-0.100736	
-0.100412	
-0.100024	
-0.0995067	
-0.09983	
-0.0937505	
-0.0714374	
-0.0325027	
0.0171035	
0.0696201	
0.115799	
0.150982	
0.169867	
0.174589	
0.170708	
0.162042	
0.148783	
0.130609	
0.110818	
0.0865651	
0.0595307	
0.0314615	
0.00856631	
-0.00805533	
-0.0220899	
-0.0332141	
-0.0420747	
-0.0500298	
-0.0595371	
-0.0698206	
-0.0778403	
-0.0817209	
-0.0857308	
-0.08987	
-0.0929098	
-0.0938152	
-0.0953674	
-0.0964669	
-0.0977604	
-0.0976311	
-0.0940092	
-0.0918749	
-0.0888352	
-0.0857954	
-0.0837905	
-0.0803627	
-0.0791338	
-0.0775816	
-0.075124	
-0.0671042	
-0.0469254	
-0.00941351	
0.042133	
0.0993062	
0.1493	
0.187394	
0.210096	
0.220638	
0.222061	
0.217275	
0.207509	
0.192957	
0.169285	
0.140634	
0.109978	
0.0802916	
0.0550034	
0.0338545	
0.0187851	
0.00979515	
0.00151667	
-0.00566233	
-0.0123239	
-0.019891	
-0.0262939	
-0.0349604	
-0.0420747	
-0.0496418	
-0.0572088	
-0.0670395	
-0.0738304	
-0.0773876	
-0.0795219	
-0.0810094	
-0.0820442	
-0.0814622	
-0.0817209	
-0.082497	
-0.0806861	
-0.0784871	
-0.0745419	
-0.0700146	
-0.0656166	
-0.0586963	
-0.0417513	
-0.0112244	
0.0343072	
0.0856597	
0.130739	
0.161395	
0.180409	
0.19037	
0.191146	
0.183385	
0.17032	
0.152082	
0.129057	
0.102281	
0.0720778	
0.0448493	
0.0200139	
0.000675885	
-0.0136821	
-0.0257764	
-0.0367066	
-0.0471194	
-0.0553979	
-0.063741	
-0.0738304	
-0.082885	
-0.0919396	
-0.101059	
-0.108885	
-0.11574	
-0.119233	
-0.117939	
-0.114059	
-0.112571	
-0.111536	
-0.107268	
-0.105457	
-0.105327	
-0.105392	
-0.10688	
-0.103323	
-0.100089	
-0.0971783	
-0.0894173	
-0.065552	
-0.0254531	
0.0264168	
0.0813911	
0.128152	
0.160877	
0.18138	
0.189723	
0.189917	
0.183773	
0.174783	
0.160295	
0.139728	
0.114376	
0.0858537	
0.0587546	
0.0357301	
0.0182677	
0.00306888	
-0.00960754	
-0.0197616	
-0.0281048	
-0.0377414	
-0.0458906	
-0.0544924	
-0.0629649	
-0.0684624	
-0.0726016	
-0.0774523	
-0.0806214	
-0.0822383	
-0.0834024	
-0.0844372	
-0.0842432	
-0.0833378	
-0.082303	
-0.0823676	
-0.0832084	
-0.0812035	
-0.0825617	
-0.082885	
-0.0838552	
-0.082303	
-0.0742185	
-0.0524875	
-0.0131647	
0.03974	
0.0987241	
0.147425	
0.181509	
0.202852	
0.210678	
0.209449	
0.204663	
0.193345	
0.177111	
0.155315	
0.130351	
0.10545	
0.0797095	
0.0581078	
0.040128	
0.0235064	
0.00921307	
-0.000617628	
-0.00954286	
-0.0189208	
-0.027652	
-0.0354778	
-0.0410399	
-0.0473134	
-0.0531342	
-0.0593431	
-0.0645818	
-0.0677509	
-0.068333	
-0.0683977	
-0.067945	
-0.0663281	
-0.0660694	
-0.0671042	
-0.0691091	
-0.0711787	
-0.0721489	
-0.0716961	
-0.0694972	
-0.0652933	
-0.0570148	
-0.0401344	
-0.00676181	
0.0383171	
0.0855303	
0.126017	
0.156156	
0.174071	
0.181897	
0.180603	
0.172648	
0.157062	
0.1374	
0.112953	
0.0870825	
0.0594014	
0.0356007	
0.0176209	
0.00358629	
-0.00682649	
-0.0164632	
-0.024677	
-0.0349604	
-0.0458259	
-0.0541044	
-0.0601192	
-0.0669102	
-0.0764175	
-0.0863128	
-0.0938799	
-0.100218	
-0.103646	
-0.101576	
-0.0989246	
-0.0995067	
-0.0999594	
-0.100283	
-0.100024	
-0.0986659	
-0.0976958	
-0.0980191	
-0.100089	
-0.099636	
-0.0931038	
-0.0764821	
-0.0445324	
0.00184005	
0.0553915	
0.101699	
0.137012	
0.161589	
0.172713	
0.174459	
0.170449	
0.162688	
0.14736	
0.125823	
0.101893	
0.0789334	
0.0544213	
0.030362	
0.00714345	
-0.00812	
-0.019891	
-0.0290749	
-0.0365126	
-0.0407812	
-0.0455672	
-0.051194	
-0.0577262	
-0.0672335	
-0.0753827	
-0.0800393	
-0.0839845	
-0.0892879	
-0.0933625	
-0.0939446	
-0.0928451	
-0.0929744	
-0.0923924	
-0.0914222	
-0.0894173	
-0.0877357	
-0.0870243	
-0.0885118	
-0.0892232	
-0.0901934	
-0.0862482	
-0.0674922	
-0.0310799	
0.0187851	
0.0726599	
0.122266	
0.160489	
0.184743	
0.198454	
0.201752	
0.196837	
0.185778	
0.172002	
0.153892	
0.129962	
0.102734	
0.0738887	
0.0471777	
0.0240238	
0.00533253	
-0.00773195	
-0.0184681	
-0.0271346	
-0.0333435	
-0.0394877	
-0.0462786	
-0.0504825	
-0.0550098	
-0.0590844	
-0.0623182	
-0.0641938	
-0.0656813	
-0.0667808	
-0.0667808	
-0.0669748	
-0.0676863	
-0.0677509	
-0.0674922	
-0.0676216	
-0.0680096	
-0.0678803	
-0.0686564	
-0.0687857	
-0.0663927	
-0.0599899	
-0.0423981	
-0.0100603	
0.0332724	
0.0834607	
0.128734	
0.162042	
0.18125	
0.188882	
0.187459	
0.179569	
0.16534	
0.145937	
0.123624	
0.0976893	
0.0707843	
0.0466603	
0.0260287	
0.011218	
0.0017107	
-0.00818468	
-0.0159458	
-0.0243536	
-0.0332788	
-0.0423981	
-0.0510646	
-0.0598605	
-0.0669102	
-0.0727956	
-0.0783577	
-0.0822383	
-0.0840492	
-0.0827557	
-0.0812035	
-0.0814622	
-0.0819796	
-0.0834024	
-0.0843726	
-0.0869596	
-0.0909695	
-0.0940092	
-0.0947207	
-0.0947207	
-0.0923924	
-0.0815268	
-0.0545571	
-0.00980157	
0.0428444	
0.0928387	
0.132744	
0.15842	
0.172713	
0.17737	
0.174071	
0.164176	
0.151047	
0.13242	
0.10959	
0.0825552	
0.054098	
0.0297799	
0.0122528	
-0.00301063	
-0.0174333	
-0.0281694	
-0.0359305	
-0.0429155	
-0.0501592	
-0.056368	
-0.0630943	
-0.0716315	
-0.0793925	
-0.085278	
-0.0887058	
-0.0892232	
-0.0905814	
-0.0899347	
-0.090064	
-0.0914222	
-0.0918103	
-0.0925864	
-0.0907108	
-0.0895466	
-0.0905168	
-0.0904521	
-0.0913575	
-0.0916809	
-0.087671	
-0.072925	
-0.039035	
0.00914839	
0.0630232	
0.114246	
0.153698	
0.181768	
0.198648	
0.207056	
0.206862	
0.199101	
0.185389	
0.165663	
0.140699	
0.112888	
0.0839134	
0.0562323	
0.0309441	
0.0122528	
-0.00294595	
-0.0135528	
-0.0213785	
-0.029657	
-0.0376768	
-0.0442737	
-0.0486716	
-0.0528109	
-0.058373	
-0.0641291	
-0.0698206	
-0.073119	
-0.0758354	
-0.0788751	
-0.0810741	
-0.082497	
-0.0822383	
-0.0810094	
-0.0788105	
-0.0748653	
-0.073313	
-0.0750593	
-0.0746712	
-0.0727956	
-0.07092	
-0.0614127	
-0.0373534	
0.000675885	
0.0482125	
0.0963958	
0.136495	
0.162947	
0.178405	
0.180603	
0.172648	
0.161589	
0.145937	
0.126341	
0.103639	
0.0772518	
0.0517696	
0.0304267	
0.0162627	
0.0048798	
-0.00339868	
-0.00980157	
-0.0136174	
-0.0184034	
-0.0238362	
-0.032244	
-0.04201	
-0.0504825	
-0.0579202	
-0.0623829	
-0.0666514	
-0.0691738	
-0.0717608	
-0.0732484	
-0.075318	
-0.0768055	
-0.0790692	
-0.0811388	
-0.0847606	
-0.0894173	
-0.0921336	
-0.0936212	
-0.0916809	
-0.0879297	
-0.0800393	
-0.063159	
-0.0286869	
0.018009	
0.0677445	
0.112047	
0.145032	
0.165275	
0.17336	
0.172648	
0.163658	
0.149106	
0.132873	
0.111983	
0.0868238	
0.0606302	
0.0333371	
0.00979515	
-0.00598571	
-0.0190502	
-0.0288162	
-0.0369653	
-0.0426568	
-0.0494477	
-0.056368	
-0.0641938	
-0.0722782	
-0.0809448	
-0.087477	
-0.0913575	
-0.0951734	
-0.0989893	
-0.1008	
-0.100671	
-0.100477	
-0.100347	
-0.100153	
-0.1019	
-0.101835	
-0.100218	
-0.0993773	
-0.0989893	
-0.097243	
-0.0911635	
-0.0749299	
-0.0412339	
0.00643202	
0.0632172	
0.117221	
0.160166	
0.188882	
0.203434	
0.207573	
0.202917	
0.193345	
0.179957	
0.159907	
0.135589	
0.107843	
0.0769931	
0.0467249	
0.0207253	
2.91287E-05	
-0.0146522	
-0.0259705	
-0.0365773	
-0.0443384	
-0.0515174	
-0.0569501	
-0.063741	
-0.0693031	
-0.0726663	
-0.0769349	
-0.0813328	
-0.0847606	
-0.0872183	
-0.0902581	
-0.0925864	
-0.0906461	
-0.0872183	
-0.0842432	
-0.0805567	
-0.0782931	
-0.0764821	
-0.0767408	
-0.077905	
-0.078099	
-0.073119	
-0.058761	
-0.0289456	
0.0149692	
0.0669037	
0.115993	
0.156027	
0.180798	
0.195802	
0.199036	
0.194121	
0.182026	
0.164435	
0.141087	
0.11554	
0.0886347	
0.0607595	
0.0372176	
0.0193025	
0.00669072	
-0.00301063	
-0.0110951	
-0.0177567	
-0.025065	
-0.0315973	
-0.0379355	
-0.0449851	
-0.0519701	
-0.0560446	
-0.0597958	
-0.0640644	
-0.067945	
-0.0715668	
-0.0766762	
-0.078099	
-0.0773229	
-0.0748653	
-0.0736364	
-0.0711787	
-0.067945	
-0.0671042	
-0.0667161	
-0.0643231	
-0.0586317	
-0.0457612	
-0.0217019	
0.0193671	
0.0708489	
0.120973	
0.160877	
0.18623	
0.198389	
0.200459	
0.194767	
0.181444	
0.164564	
0.143221	
0.116963	
0.0908984	
0.0634112	
0.0374116	
0.0186557	
0.0024868	
-0.00805533	
-0.017886	
-0.025065	
-0.0338609	
-0.0462786	
-0.0577262	
-0.0660047	
-0.0739598	
-0.0821089	
-0.0887058	
-0.0912282	
-0.0919396	
-0.0921336	
-0.0938799	
-0.0943326	
-0.0943326	
-0.0945266	
-0.0947207	
-0.0954321	
-0.0973077	
-0.0989893	
-0.100994	
-0.100671	
-0.0984072	
-0.0879944	
-0.0598605	
-0.0140055	
0.042521	
0.0959431	
0.138758	
0.167668	
0.183708	
0.189076	
0.186166	
0.178793	
0.164435	
0.147554	
0.126858	
0.0987888	
0.0683913	
0.0411628	
0.0163274	
-0.00262257	
-0.0191149	
-0.030045	
-0.0381942	
-0.0437563	
-0.0499651	
-0.0575322	
-0.0669102	
-0.075318	
-0.0812681	
-0.0859248	
-0.0907108	
-0.0951087	
-0.0979545	
-0.0986659	
-0.0993126	
-0.0984072	
-0.0975664	
-0.0979545	
-0.0976958	
-0.0964022	
-0.0935565	
-0.0921983	
-0.0912282	
-0.0897406	
-0.0809448	
-0.0582436	
-0.0189855	
0.032755	
0.0900576	
0.140828	
0.179051	
0.203369	
0.213976	
0.213782	
0.204145	
0.190305	
0.172519	
0.151241	
0.127505	
0.0986595	
0.0703962	
0.0452374	
0.0234417	
0.00707877	
-0.00475687	
-0.0140702	
-0.0214432	
-0.0257118	
-0.0290749	
-0.0319853	
-0.0375474	
-0.0470547	
-0.0559153	
-0.0606366	
-0.06594	
-0.0701439	
-0.0724076	
-0.0735717	
-0.0755767	
-0.0754473	
-0.0740891	
-0.0726663	
-0.0713728	
-0.0728603	
-0.0759001	
-0.0759647	
-0.0738304	
-0.0685917	
-0.0583083	
-0.0314032	
0.0105066	
0.0636053	
0.115669	
0.157708	
0.185195	
0.199101	
0.201817	
0.197225	
0.184549	
0.167151	
0.14445	
0.120973	
0.0933561	
0.0635406	
0.0358594	
0.0152279	
-0.00107036	
-0.0155577	
-0.0273933	
-0.0398111	
-0.0501592	
-0.058761	
-0.0660047	
-0.0734424	
-0.080492	
-0.0861835	
-0.0903874	
-0.0938152	
-0.0943326	
-0.0929098	
-0.092069	
-0.0923924	
-0.0920043	
-0.0941386	
-0.0956908	
-0.0949794	
-0.0954968	
-0.097437	
-0.097243	
-0.0949147	
-0.0909695	
-0.0806214	
-0.0549452	
-0.00773195	
0.0488592	
0.103445	
0.147878	
0.17627	
0.189981	
0.193215	
0.188688	
0.177758	
0.164823	
0.148007	
0.124594	
0.0978834	
0.0693614	
0.0431031	
0.0213074	
0.00358629	
-0.0107717	
-0.0224133	
-0.0319853	
-0.0408459	
-0.0492537	
-0.0545571	
-0.0606366	
-0.0671689	
-0.0722136	
-0.0776463	
-0.0815268	
-0.0861188	
-0.089676	
-0.0914222	
-0.0931685	
-0.0940092	
-0.094656	
-0.0959495	
-0.0960142	
-0.0953674	
-0.0958202	
-0.094462	
-0.0954321	
-0.0938799	
-0.0859895	
-0.0660047	
-0.0275874	
0.0247352	
0.0825552	
0.137788	
0.178146	
0.202787	
0.213653	
0.212359	
0.204663	
0.192827	
0.175429	
0.15538	
0.133649	
0.107326	
0.0823612	
0.0590133	
0.0378644	
0.0206607	
0.0075315	
-0.00339868	
-0.0127766	
-0.0223486	
-0.0326321	
-0.0401991	
-0.0466667	
-0.0520348	
-0.0544924	
-0.0561093	
-0.0566914	
-0.0594078	
-0.0590197	
-0.0574028	
-0.0546865	
-0.056174	
-0.0568854	
-0.0570795	
-0.0575322	
-0.0593431	
-0.063353	
-0.0638704	
-0.063547	
-0.0647112	
-0.0579202	
-0.0384529	
-0.000229574	
0.0518343	
0.104739	
0.147425	
0.175365	
0.189981	
0.190822	
0.181768	
0.166698	
0.146584	
0.122589	
0.0969779	
0.0711076	
0.0470483	
0.0259641	
0.00985982	
-0.00268725	
-0.0123239	
-0.0167219	
-0.0216372	
-0.0292689	
-0.0367066	
-0.044015	
-0.0504825	
-0.0570795	
-0.0665868	
-0.0723429	
-0.075512	
-0.077711	
-0.0771936	
-0.0776463	
-0.0770642	
-0.0804274	
-0.0850193	
-0.0907755	
-0.0947853	
-0.0966609	
-0.0978898	
-0.097243	
-0.0963376	
-0.0925217	
-0.0853427	
-0.0666514	
-0.0284928	
0.0240238	
0.0777046	
0.125823	
0.162947	
0.185519	
0.194832	
0.191534	
0.18235	
0.17032	
0.155186	
0.13546	
0.110754	
0.08359	
0.0549387	
0.0312028	
0.0141284	
0.000740561	
-0.0116772	
-0.0220253	
-0.0301097	
-0.0371594	
-0.0431742	
-0.0524875	
-0.0607013	
-0.0658107	
-0.0704026	
-0.075512	
-0.0817855	
-0.085084	
-0.0886412	
-0.0932978	
-0.0967903	
-0.0999594	
-0.100736	
-0.101964	
-0.104422	
-0.105974	
-0.105069	
-0.103581	
-0.101124	
-0.097049	
-0.08489	
-0.0553979	
-0.00495089	
0.054098	
0.110948	
0.156285	
0.186748	
0.204986	
0.212359	
0.209061	
0.198389	
0.185907	
0.16741	
0.143415	
0.115604	
0.0861771	
0.0571377	
0.0333371	
0.0147105	
0.00255148	
-0.00734389	
-0.0175626	
-0.0249357	
-0.0339903	
-0.0401344	
-0.0469254	
-0.0529402	
-0.056368	
-0.0594078	
-0.0632236	
-0.0660694	
-0.0678803	
-0.0689151	
-0.0685917	
-0.070338	
-0.0721489	
-0.0718255	
-0.0711141	
-0.073119	
-0.073313	
-0.0748006	
-0.0757707	
-0.0758354	
-0.0753827	
-0.0661987	
-0.0398111	
0.0051385	
0.0579785	
0.109654	
0.149042	
0.175882	
0.188947	
0.192051	
0.185519	
0.173619	
0.15732	
0.137594	
0.110818	
0.0802269	
0.052287	
0.0294565	
0.011218	
-0.00191114	
-0.0110951	
-0.0185975	
-0.0268759	
-0.0329554	
-0.0404578	
-0.0485423	
-0.056174	
-0.0647112	
-0.0724076	
-0.0806861	
-0.0868302	
-0.0896113	
-0.0917456	
-0.0943326	
-0.0954321	
-0.0975017	
-0.1008	
-0.102805	
-0.103775	
-0.101512	
-0.100218	
-0.097049	
-0.0964669	
-0.0951734	
-0.0905814	
-0.0760294	
-0.041816	
0.0108946	
0.0685206	
0.119291	
0.159455	
0.184355	
0.196514	
0.197225	
0.190693	
0.178405	
0.160683	
0.139923	
0.116122	
0.0890875	
0.061471	
0.0376057	
0.0178149	
0.00365096	
-0.00708519	
-0.0152343	
-0.0251297	
-0.0348957	
-0.0457612	
-0.0582436	
-0.0677509	
-0.0773229	
-0.0864422	
-0.0929098	
-0.0973077	
-0.099442	
-0.0990539	
-0.0976311	
-0.0986659	
-0.100153	
-0.100606	
-0.100671	
-0.101059	
-0.101318	
-0.100153	
-0.0984072	
-0.0958202	
-0.0953674	
-0.0931038	
-0.0813328	
-0.0532636	
-0.00617973	
0.0502174	
0.102475	
0.144579	
0.17323	
0.188882	
0.193733	
0.190952	
0.181897	
0.168833	
0.150723	
0.131321	
0.106873	
0.078416	
0.052093	
0.0295212	
0.011412	
-0.00288127	
-0.0139408	
-0.020473	
-0.0259058	
-0.0311445	
-0.0378061	
-0.0456319	
-0.0526168	
-0.0579202	
-0.0645818	
-0.0696912	
-0.0737011	
-0.0766762	
-0.0812681	
-0.0827557	
-0.0819149	
-0.0808154	
-0.0798453	
-0.0788751	
-0.0776463	
-0.0779697	
-0.0776463	
-0.075706	
-0.0764821	
-0.0740891	
-0.0689798	
-0.0542337	
-0.0206671	
0.0288098	
0.0820378	
0.129639	
0.165211	
0.186101	
0.193797	
0.19328	
0.184937	
0.171937	
0.152858	
0.128928	
0.103122	
0.0755056	
0.0502821	
0.0299093	
0.0154866	
0.00669072	
-0.00100568	
-0.00656779	
-0.0123886	
-0.0197616	
-0.0270053	
-0.0360599	
-0.0445971	
-0.0514527	
-0.0577262	
-0.0644525	
-0.070338	
-0.075512	
-0.0788105	
-0.080104	
-0.0806861	
-0.0819149	
-0.0817855	
-0.0808801	
-0.0802333	
-0.0808801	
-0.0823676	
-0.0850193	
-0.0893526	
-0.0907755	
-0.0845019	
-0.0648405	
-0.0260998	
0.0276456	
0.0839134	
0.13255	
0.166375	
0.18526	
0.193215	
0.191016	
0.182026	
0.167668	
0.149171	
0.128346	
0.10461	
0.0780279	
0.0522224	
0.0290038	
0.00901904	
-0.00527427	
-0.0173039	
-0.0260998	
-0.0334082	
-0.0407812	
-0.0457612	
-0.0541044	
-0.061348	
-0.0689798	
-0.0755767	
-0.0808801	
-0.0857954	
-0.0893526	
-0.0909695	
-0.092263	
-0.0932978	
-0.0926511	
-0.0947853	
-0.0956908	
-0.0952381	
-0.0951734	
-0.0927804	
-0.0914869	
-0.0907108	
-0.0898053	
-0.0845019	
-0.0667161	
-0.0310799	
0.0215014	
0.0803563	
0.131838	
0.169673	
0.194185	
0.207897	
0.211712	
0.207703	
0.198777	
0.183643	
0.163788	
0.141022	
0.111207	
0.0767991	
0.0473717	
0.0231183	
0.00242213	
-0.0147816	
-0.0260998	
-0.0352191	
-0.0436916	
-0.0501592	
-0.0540397	
-0.0592784	
-0.0651639	
-0.0723429	
-0.0797159	
-0.0865069	
-0.092457	
-0.097243	
-0.0995713	
-0.10287	
-0.103258	
-0.101576	
-0.100541	
-0.0986012	
-0.0954321	
-0.0916809	
-0.0883178	
-0.0857954	
-0.08489	
-0.0825617	
-0.0736364	
-0.0517114	
-0.0138115	
0.0393519	
0.0943262	
0.140375	
0.170837	
0.187653	
0.194573	
0.191146	
0.181703	
0.169027	
0.151435	
0.129962	
0.10752	
0.0841075	
0.0588193	
0.0391579	
0.0233124	
0.0107006	
0.00151667	
-0.00643843	
-0.0156871	
-0.0251297	
-0.0325027	
-0.0398757	
-0.0481542	
-0.0557859	
-0.0604426	
-0.0643878	
-0.067945	
-0.0698852	
-0.0716315	
-0.0735717	
-0.0749946	
-0.0736364	
-0.0726016	
-0.0713728	
-0.0690444	
-0.0660047	
-0.06594	
-0.067945	
-0.0693678	
-0.07092	
-0.0680096	
-0.0504179	
-0.0146522	
0.0350833	
0.0850129	
0.127246	
0.157191	
0.174912	
0.182802	
0.180603	
0.171484	
0.154733	
0.137077	
0.116898	
0.0928387	
0.066645	
0.0410982	
0.0197552	
0.00339226	
-0.00915481	
-0.0196969	
-0.029463	
-0.0389703	
-0.0485423	
-0.0550745	
-0.0626416	
-0.0700793	
-0.0755767	
-0.0821089	
-0.0869596	
-0.0914222	
-0.0933625	
-0.0939446	
-0.0923277	
-0.0916809	
-0.0936212	
-0.0949147	
-0.097049	
-0.0965963	
-0.0950441	
-0.0936859	
-0.0914222	
-0.0909695	
-0.0868302	
-0.0744772	
-0.0489303	
-0.00540362	
0.0507995	
0.104416	
0.145873	
0.174136	
0.193086	
0.20324	
0.205633	
0.200588	
0.1883	
0.17142	
0.150271	
0.125629	
0.0960078	
0.0643814	
0.0345012	
0.0111533	
-0.00773195	
-0.0214432	
-0.0288809	
-0.034443	
-0.0409105	
-0.0491244	
-0.0578556	
-0.0660694	
-0.0745419	
-0.0806214	
-0.087477	
-0.0929098	
-0.0960142	
-0.0979545	
-0.097437	
-0.0969843	
-0.0957555	
-0.0932978	
-0.0906461	
-0.0870243	
-0.0854721	
-0.0853427	
-0.0843079	
-0.0830791	
-0.0801687	
-0.0744125	
-0.0594725	
-0.0256471	
0.0264168	
0.0813264	
0.127958	
0.161977	
0.182738	
0.194444	
0.196966	
0.191663	
0.181186	
0.166763	
0.146325	
0.122201	
0.0971073	
0.0721425	
0.0490533	
0.030556	
0.0144518	
0.00015848	
-0.0111598	
-0.0197616	
-0.0293336	
-0.0391643	
-0.0458906	
-0.0533929	
-0.0590197	
-0.0638057	
-0.0664574	
-0.0694325	
-0.0709847	
-0.0711141	
-0.0691738	
-0.0682037	
-0.0683977	
-0.0686564	
-0.0690444	
-0.0671689	
-0.0669102	
-0.067945	
-0.0686564	
-0.0688504	
-0.0670395	
-0.0632883	
-0.0542984	
-0.0302391	
0.0128996	
0.0646401	
0.114117	
0.152017	
0.176982	
0.188947	
0.190434	
0.182738	
0.170773	
0.154475	
0.134296	
0.110883	
0.088376	
0.0634759	
0.0415509	
0.0232477	
0.0104419	
0.00177537	
-0.00766727	
-0.0155577	
-0.0215725	
-0.027652	
-0.0363186	
-0.0452438	
-0.053975	
-0.0619301	
-0.0697559	
-0.0761588	
-0.0810741	
-0.082303	
-0.0812681	
-0.0797159	
-0.0815268	
-0.0830791	
-0.085084	
-0.0861835	
-0.0878651	
-0.08987	
-0.0906461	
-0.0909695	
-0.0895466	
-0.0837258	
-0.0672982	
-0.0330201	
0.0173622	
0.0700082	
0.118127	
0.154798	
0.174589	
0.182285	
0.183061	
0.175753	
0.163335	
0.147231	
0.128863	
0.106032	
0.0800329	
0.0536452	
0.030168	
0.00973047	
-0.00398076	
-0.0155577	
-0.0259058	
-0.0357365	
-0.0445971	
-0.053781	
-0.06096	
-0.0665868	
-0.0725369	
-0.0795219	
-0.0844372	
-0.0879944	
-0.0909695	
-0.0910342	
-0.0903227	
-0.0878004	
-0.0852134	
-0.0835965	
-0.0821089	
-0.0826263	
-0.0830791	
-0.0839845	
-0.0841785	
-0.0843726	
-0.08489	
-0.0773229	
-0.0553332	
-0.0140055	
0.0380584	
0.0898636	
0.131321	
0.162494	
0.182673	
0.192957	
0.194185	
0.190822	
0.184937	
0.172131	
0.153246	
0.127505	
0.0998236	
0.0724012	
0.0460782	
0.0233124	
0.00500915	
-0.010707	
-0.0225427	
-0.0310799	
-0.0382588	
-0.0438856	
-0.0505472	
-0.0574028	
-0.0627709	
-0.0682037	
-0.0740245	
-0.0790692	
-0.0830144	
-0.0861835	
-0.0868302	
-0.0883825	
-0.0907755	
-0.0905168	
-0.0866362	
-0.0837258	
-0.0810741	
-0.0795866	
-0.077711	
-0.0759001	
-0.0745419	
-0.0696265	
-0.0535223	
-0.0163985	
0.0361828	
0.0890875	
0.132808	
0.164499	
0.184484	
0.192116	
0.192763	
0.184549	
0.169932	
0.154086	
0.134942	
0.111401	
0.0844955	
0.0602421	
0.0380584	
0.0198199	
0.00740215	
-0.00294595	
-0.0103836	
-0.0171099	
-0.0258411	
-0.0331495	
-0.0380001	
-0.0459552	
-0.0552039	
-0.0626416	
-0.0704026	
-0.0736364	
-0.0758354	
-0.0771936	
-0.0780344	
-0.078099	
-0.0797159	
-0.0806214	
-0.0808801	
-0.0817209	
-0.0846313	
-0.0877357	
-0.090064	
-0.0926511	
-0.08987	
-0.0743478	
-0.0453085	
9.38044E-05	
0.0523517	
0.0987888	
0.134619	
0.158484	
0.174459	
0.179504	
0.175429	
0.163853	
0.14736	
0.127569	
0.104933	
0.078804	
0.0526104	
0.0265461	
0.00442707	
-0.0112244	
-0.0228014	
-0.0325027	
-0.0401991	
-0.0485423	
-0.0546218	
-0.0598605	
-0.0658107	
-0.0720195	
-0.0767408	
-0.0800393	
-0.0835318	
-0.0847606	
-0.0874123	
-0.0916809	
-0.0927804	
-0.0928451	
-0.0921336	
-0.0931685	
-0.0977604	
-0.0997007	
-0.099248	
-0.0973077	
-0.0938152	
-0.0903227	
-0.082885	
-0.061154	
-0.0214432	
0.0302326	
0.0846895	
0.130674	
0.162624	
0.181315	
0.191016	
0.194056	
0.191534	
0.182932	
0.168186	
0.149689	
0.123754	
0.0943262	
0.0639933	
0.035148	
0.0106359	
-0.00831403	
-0.0229954	
-0.0347664	
-0.0436269	
-0.0504179	
-0.058373	
-0.0665221	
-0.0730543	
-0.0771936	
-0.0815268	
-0.0839198	
-0.085084	
-0.0854721	
-0.0850193	
-0.08489	
-0.0866362	
-0.087283	
-0.087283	
-0.0847606	
-0.0819796	
-0.0806214	
-0.0806214	
-0.0817855	
-0.0831437	
-0.0835965	
-0.0773876	
-0.0572735	
-0.0215725	
0.0283571	
0.0794508	
0.123624	
0.156868	
0.177305	
0.185195	
0.183837	
0.175947	
0.163917	
0.146778	
0.12356	
0.0976893	
0.0698788	
0.0434912	
0.0226009	
0.00927774	
2.91287E-05	
-0.0103836	
-0.0211198	
-0.0291396	
-0.0356071	
-0.0422041	
-0.0495124	
-0.056368	
-0.0621242	
-0.0654873	
-0.0678803	
-0.0694325	
-0.0727956	
-0.0752533	
-0.0784224	
-0.0793279	
-0.0771289	
-0.0760294	
-0.0743478	
-0.073313	
-0.0740891	
-0.0747359	
-0.0758354	
-0.0745419	
-0.070338	
-0.0571441	
-0.029851	
0.0141284	
0.0637346	
0.108102	
0.143415	
0.165987	
0.176658	
0.177693	
0.172519	
0.161524	
0.146713	
0.129251	
0.106485	
0.0817791	
0.0556502	
0.0300386	
0.0094071	
-0.00734389	
-0.020473	
-0.0330848	
-0.0457612	
-0.0577909	
-0.068333	
-0.0751886	
-0.0835965	
-0.0909695	
-0.0969196	
-0.101641	
-0.10481	
-0.106168	
-0.107332	
-0.106815	
-0.105457	
-0.102546	
-0.100089	
-0.0980191	
-0.0945913	
-0.0926511	
-0.0914222	
-0.0895466	
-0.0867009	
-0.0808801	
-0.068333	
-0.039229	
0.00843696	
0.0635406	
0.116575	
0.15939	
0.189917	
0.205439	
0.211907	
0.211842	
0.204081	
0.190111	
0.17323	
0.150982	
0.125241	
0.0958784	
0.0674211	
0.0410335	
0.0197552	
0.00281018	
-0.0114185	
-0.0226073	
-0.0334082	
-0.0441443	
-0.0510646	
-0.0575969	
-0.0632236	
-0.0680096	
-0.0729897	
-0.0765468	
-0.0808154	
-0.0839198	
-0.0861835	
-0.0866362	
-0.0871536	
-0.0892879	
-0.0907755	
-0.0903874	
-0.0880591	
-0.0879944	
-0.0892232	
-0.0903874	
-0.0908401	
-0.0875417	
-0.072925	
-0.0403285	
0.00837229	
0.0639933	
0.11457	
0.155768	
0.182544	
0.196837	
0.201688	
0.202464	
0.19923	
0.190499	
0.175106	
0.153828	
0.128669	
0.100341	
0.071237	
0.0480184	
0.027969	
0.0118648	
-0.000682303	
-0.0104483	
-0.0200203	
-0.0313386	
-0.0415573	
-0.0498358	
-0.056562	
-0.0614774	
-0.0671042	
-0.0722136	
-0.0771936	
-0.0804274	
-0.0834671	
-0.0854721	
-0.0852134	
-0.0866362	
-0.0861835	
-0.082303	
-0.0787458	
-0.0764175	
-0.0734424	
-0.0710494	
-0.0689798	
-0.0642585	
-0.046602	
-0.0144582	
0.0292625	
0.0793215	
0.123754	
0.15247	
0.170449	
0.179181	
0.178016	
0.169544	
0.157126	
0.143027	
0.125435	
0.102928	
0.0778986	
0.0540333	
0.0341132	
0.0200139	
0.00740215	
-0.00249322	
-0.0109657	
-0.0191149	
-0.0271346	
-0.0361245	
-0.0447911	
-0.0536516	
-0.0627709	
-0.070726	
-0.0793925	
-0.0861835	
-0.0920043	
-0.0949794	
-0.0985365	
-0.102805	
-0.106815	
-0.108885	
-0.110825	
-0.111278	
-0.111148	
-0.110696	
-0.109079	
-0.106039	
-0.0986012	
-0.0829497	
-0.0502885	
-0.00242855	
0.0513816	
0.101311	
0.137465	
0.161265	
0.173554	
0.179375	
0.178469	
0.172713	
0.163917	
0.146972	
0.122525	
0.0940028	
0.066451	
0.0418743	
0.0189144	
0.00015848	
-0.0136821	
-0.0266819	
-0.0361245	
-0.0443384	
-0.0550098	
-0.0641938	
-0.0706613	
-0.075318	
-0.0795219	
-0.0847606	
-0.089676	
-0.0936212	
-0.0969196	
-0.0987306	
-0.101318	
-0.101059	
-0.0993126	
-0.100606	
-0.1019	
-0.10177	
-0.101641	
-0.1008	
-0.0997007	
-0.0971783	
-0.0894819	
-0.0676216	
-0.0251297	
0.0310734	
0.087988	
0.135201	
0.169221	
0.189011	
0.196449	
0.198583	
0.19729	
0.191728	
0.18125	
0.164629	
0.142251	
0.115216	
0.0858537	
0.0579785	
0.0334664	
0.0145811	
0.00326291	
-0.00805533	
-0.0158811	
-0.0206671	
-0.0267466	
-0.0365773	
-0.0447911	
-0.0533283	
-0.0627709	
-0.0711787	
-0.0757707	
-0.0808154	
-0.0849547	
-0.0867656	
-0.0857954	
-0.0853427	
-0.0838552	
-0.0823676	
-0.0807507	
-0.0788751	
-0.0790045	
-0.0793925	
-0.0773876	
-0.0743478	
-0.0656813	
-0.0462786	
-0.0103836	
0.0381231	
0.0884407	
0.130545	
0.159196	
0.176852	
0.185713	
0.187265	
0.182156	
0.172002	
0.158678	
0.138888	
0.113794	
0.0875999	
0.0623764	
0.0401927	
0.0213721	
0.00869566	
-0.00152309	
-0.0105777	
-0.0167865	
-0.0251944	
-0.0332788	
-0.0408459	
-0.049189	
-0.0575969	
-0.0676216	
-0.0752533	
-0.0786811	
-0.0802333	
-0.0850193	
-0.0897406	
-0.092069	
-0.0938799	
-0.0947207	
-0.0964669	
-0.0976311	
-0.0984719	
-0.100218	
-0.099636	
-0.097049	
-0.0919396	
-0.0746066	
-0.0412339	
0.00604396	
0.0598541	
0.109072	
0.144967	
0.168315	
0.179504	
0.179698	
0.172713	
0.162947	
0.148912	
0.131256	
0.109848	
0.0850129	
0.0599188	
0.0372823	
0.0169741	
0.000934588	
-0.00954286	
-0.019891	
-0.0314032	
-0.041622	
-0.0526168	
-0.0653579	
-0.0756414	
-0.0838552	
-0.0885765	
-0.0911635	
-0.0949147	
-0.0977604	
-0.0995713	
-0.100606	
-0.102158	
-0.102611	
-0.102676	
-0.100865	
-0.0991833	
-0.0978898	
-0.0976958	
-0.0978898	
-0.0980838	
-0.0953028	
-0.0837905	
-0.0581143	
-0.0148463	
0.0400633	
0.0932914	
0.138435	
0.170449	
0.190111	
0.199489	
0.200782	
0.197096	
0.186942	
0.171872	
0.15331	
0.130092	
0.101246	
0.071237	
0.0431678	
0.018591	
-0.000100223	
-0.0150403	
-0.0278461	
-0.0394877	
-0.0493831	
-0.0581143	
-0.0645818	
-0.0699499	
-0.075318	
-0.0804274	
-0.0859895	
-0.0913575	
-0.0964669	
-0.100089	
-0.101964	
-0.10093	
-0.100865	
-0.100994	
-0.0997654	
-0.0969843	
-0.0951087	
-0.0911635	
-0.0894173	
-0.0859895	
-0.082885	
-0.0739598	
-0.0520994	
-0.0140055	
0.0334664	
0.0813911	
0.122525	
0.153504	
0.172519	
0.181962	
0.183385	
0.177822	
0.166375	
0.151111	
0.129186	
0.103963	
0.0767344	
0.051899	
0.0307501	
0.0147105	
0.00255148	
-0.00708519	
-0.0136174	
-0.0193736	
-0.0251297	
-0.03205	
-0.0387116	
-0.0443384	
-0.0488656	
-0.0531989	
-0.0568854	
-0.0601839	
-0.0632236	
-0.0632883	
-0.0649052	
-0.0680743	
-0.0715021	
-0.0748653	
-0.0762234	
-0.0784871	
-0.0797806	
-0.0818502	
-0.085084	
-0.0859248	
-0.0823676	
-0.0675569	
-0.0345723	
0.0138697	
0.0654162	
0.110236	
0.144579	
0.164823	
0.174201	
0.175494	
0.170708	
0.160554	
0.147684	
0.132097	
0.111789	
0.0870179	
0.0598541	
0.0372176	
0.0166508	
-0.00262257	
-0.0172393	
-0.0293983	
-0.0389703	
-0.0467314	
-0.0531342	
-0.058761	
-0.0638704	
-0.0698206	
-0.0748006	
-0.0772583	
-0.0804274	
-0.082691	
-0.0854721	
-0.0888999	
-0.0902581	
-0.0909695	
-0.0932978	
-0.0939446	
-0.0965963	
-0.0979545	
-0.0962082	
-0.0936859	
-0.0921336	
-0.0883178	
-0.0793279	
-0.056368	
-0.0141348	
0.0400633	
0.0943909	
0.141669	
0.174136	
0.194444	
0.205051	
0.207315	
0.204404	
0.194315	
0.179051	
0.159519	
0.134037	
0.10448	
0.0756349	
0.0480184	
0.0236357	
0.0048798	
-0.0107717	
-0.0213785	
-0.0286222	
-0.0380648	
-0.0480895	
-0.0562387	
-0.0642585	
-0.0702733	
-0.0739598	
-0.0784871	
-0.0817855	
-0.0830144	
-0.0836611	
-0.0856014	
-0.0868949	
-0.0856014	
-0.0839198	
-0.0802333	
-0.0780344	
-0.0762234	
-0.0750593	
-0.0728603	
-0.0705967	
-0.0673629	
-0.0625122	
-0.0480895	
-0.0157517	
0.0315262	
0.0804209	
0.123883	
0.156027	
0.17724	
0.188235	
0.188817	
0.182414	
0.169738	
0.154733	
0.13837	
0.116769	
0.0909631	
0.0674858	
0.0453667	
0.0249292	
0.00895437	
-0.00449817	
-0.015105	
-0.0240302	
-0.0325674	
-0.041428	
-0.0495124	
-0.0571441	
-0.066134	
-0.0749946	
-0.0819796	
-0.0878651	
-0.0923277	
-0.096855	
-0.0989246	
-0.100024	
-0.102676	
-0.105133	
-0.107397	
-0.108303	
-0.108755	
-0.10979	
-0.108691	
-0.108044	
-0.104228	
-0.0919396	
-0.0636764	
-0.0193736	
0.0326256	
0.0815851	
0.119808	
0.145679	
0.162624	
0.169544	
0.169867	
0.164693	
0.153569	
0.139082	
0.119097	
0.095361	
0.0693614	
0.0413569	
0.0150986	
-0.00462752	
-0.0188562	
-0.0291396	
-0.0367066	
-0.0433682	
-0.0486716	
-0.0539103	
-0.060766	
-0.0669102	
-0.0743478	
-0.0799746	
-0.0839198	
-0.0876064	
-0.0905168	
-0.0907108	
-0.0912282	
-0.0935565	
-0.0956261	
-0.0952381	
-0.0945913	
-0.0926511	
-0.0911635	
-0.0907108	
-0.0910342	
-0.090064	
-0.0839845	
-0.0680096	
-0.034443	
0.0150986	
0.0700728	
0.116445	
0.151176	
0.17336	
0.185389	
0.188882	
0.18526	
0.175947	
0.161654	
0.14542	
0.125047	
0.099759	
0.0718838	
0.0460782	
0.0237651	
0.0077902	
-0.00449817	
-0.0165278	
-0.0255824	
-0.0328908	
-0.0408459	
-0.0509999	
-0.0618655	
-0.072925	
-0.0817855	
-0.0899347	
-0.0949794	
-0.0967256	
-0.097049	
-0.0973724	
-0.0991186	
-0.102546	
-0.10384	
-0.101964	
-0.099636	
-0.0964022	
-0.0937505	
-0.0907108	
-0.0866362	
-0.082691	
-0.0756414	
-0.0610893	
-0.0312739	
0.0126409	
0.0646401	
0.113664	
0.149818	
0.173748	
0.185001	
0.185842	
0.179116	
0.167668	
0.154604	
0.135913	
0.112888	
0.0873412	
0.0625705	
0.040128	
0.0228596	
0.0116707	
0.000869912	
-0.00863741	
-0.0158811	
-0.0215079	
-0.0299804	
-0.036836	
-0.0422687	
-0.0504179	
-0.0579849	
-0.0629003	
-0.0677509	
-0.0702733	
-0.0715021	
-0.0735717	
-0.0738304	
-0.0737658	
-0.0761588	
-0.0782284	
-0.0797159	
-0.0815268	
-0.0807507	
-0.0782931	
-0.0751886	
-0.0716961	
-0.0629649	
-0.0411046	
-0.00236387	
0.0486652	
0.0995649	
0.142962	
0.173877	
0.188559	
0.190758	
0.186812	
0.1764	
0.16146	
0.142574	
0.121425	
0.0986595	
0.07363	
0.0457548	
0.0220835	
0.0046211	
-0.0106424	
-0.0233835	
-0.0334082	
-0.04201	
-0.0497711	
-0.05598	
-0.0603132	
-0.0670395	
-0.0749299	
-0.0809448	
-0.0847606	
-0.0865715	
-0.0891586	
-0.090064	
-0.0927157	
-0.0961435	
-0.0959495	
-0.0929098	
-0.092457	
-0.0930391	
-0.0931038	
-0.0938799	
-0.0956908	
-0.0951734	
-0.0864422	
-0.0621888	
-0.0189208	
0.0341779	
0.0884407	
0.136236	
0.170449	
0.191728	
0.201429	
0.201235	
0.194185	
0.184096	
0.172196	
0.154798	
0.13352	
0.107326	
0.0779633	
0.0491179	
0.0255113	
0.00643202	
-0.00753792	
-0.0187268	
-0.0286222	
-0.0363833	
-0.0440797	
-0.0504825	
-0.0554626	
-0.0600545	
-0.0645172	
-0.0665868	
-0.0677509	
-0.0697559	
-0.0726663	
-0.0749946	
-0.0784871	
-0.0810741	
-0.0820442	
-0.0827557	
-0.0833378	
-0.0830144	
-0.0823676	
-0.0812681	
-0.0806861	
-0.0767408	
-0.0652933	
-0.0409752	
0.000417183	
0.0519637	
0.101958	
0.143544	
0.172066	
0.188559	
0.194832	
0.193862	
0.185001	
0.171743	
0.156156	
0.136947	
0.113923	
0.088182	
0.06367	
0.0433618	
0.0242178	
0.0112827	
0.00319823	
-0.00275192	
-0.00792597	
-0.0135528	
-0.0218959	
-0.0329554	
-0.0444677	
-0.0532636	
-0.0597958	
-0.0653579	
-0.0682037	
-0.0713081	
-0.0753827	
-0.0779697	
-0.0800393	
-0.0791985	
-0.0784871	
-0.0770642	
-0.075318	
-0.075318	
-0.0751886	
-0.0759001	
-0.077905	
-0.0760941	
-0.0616714	
-0.0316619	
0.011412	
0.0616003	
0.106356	
0.137335	
0.156415	
0.165728	
0.168509	
0.16534	
0.159261	
0.145743	
0.128216	
0.107843	
0.0826846	
0.0536452	
0.0282277	
0.00507383	
-0.0116125	
-0.0246123	
-0.0359952	
-0.0430448	
-0.0496418	
-0.0559153	
-0.0628356	
-0.0702086	
-0.0784224	
-0.0850193	
-0.0899994	
-0.0945266	
-0.0977604	
-0.1008	
-0.102805	
-0.101188	
-0.0998947	
-0.0990539	
-0.0957555	
-0.0941386	
-0.0933625	
-0.0909695	
-0.0869596	
-0.0857308	
-0.0825617	
-0.0742185	
-0.0526815	
-0.0131647	
0.040322	
0.0944556	
0.141087	
0.175559	
0.197419	
0.204016	
0.200912	
0.194509	
0.187136	
0.175688	
0.159649	
0.135266	
0.103381	
0.0721425	
0.0428444	
0.0184617	
-0.000294249	
-0.0150403	
-0.0275874	
-0.0370947	
-0.0446617	
-0.0480895	
-0.0510646	
-0.0557213	
-0.0629003	
-0.0672982	
-0.0687211	
-0.0708554	
-0.0731837	
-0.0760294	
-0.0774523	
-0.0766115	
-0.0786811	
-0.0782284	
-0.0789398	
-0.0797806	
-0.0810094	
-0.0819149	
-0.0835965	
-0.0832731	
-0.0817209	
-0.0742185	
-0.0553979	
-0.0203437	
0.0276456	
0.078804	
0.12343	
0.157967	
0.180215	
0.190628	
0.191146	
0.185389	
0.175559	
0.161071	
0.14238	
0.117739	
0.0899929	
0.0632172	
0.0403867	
0.020402	
0.00481513	
-0.00404544	
-0.0118065	
-0.020279	
-0.0273933	
-0.0381942	
-0.0482189	
-0.0597958	
-0.0697559	
-0.0771289	
-0.0817855	
-0.0843726	
-0.0861835	
-0.0857308	
-0.082497	
-0.0784871	
-0.0765468	
-0.0744772	
-0.07092	
-0.0669748	
-0.0667161	
-0.0691091	
-0.0704673	
-0.0702733	
-0.0701439	
-0.0651639	
-0.0445324	
-0.00643843	
0.0390932	
0.0855303	
0.125435	
0.152987	
0.167474	
0.170514	
0.166957	
0.155315	
0.141798	
0.125306	
0.10448	
0.0791921	
0.0509935	
0.0247352	
0.00203407	
-0.0131	
-0.0253884	
-0.0361892	
-0.0447264	
-0.0523581	
-0.0618008	
-0.070532	
-0.0782931	
-0.0842432	
-0.0888352	
-0.092457	
-0.0978898	
-0.103905	
-0.104681	
-0.10481	
-0.103969	
-0.104745	
-0.105133	
-0.105133	
-0.103711	
-0.102805	
-0.102352	
-0.10274	
-0.100412	
-0.0982132	
-0.0934272	
-0.0808154	
-0.0523581	
-0.00902546	
0.0438145	
0.094973	
0.136818	
0.166892	
0.184161	
0.192374	
0.19522	
0.191857	
0.182932	
0.167604	
0.148007	
0.119679	
0.0890228	
0.0601775	
0.0365062	
0.0167801	
-0.00087633	
-0.0138115	
-0.0236422	
-0.0325027	
-0.039423	
-0.0452438	
-0.0512586	
-0.0566914	
-0.0621888	
-0.0673629	
-0.0724076	
-0.0731837	
-0.072925	
-0.0743478	
-0.0769995	
-0.0773229	
-0.0767408	
-0.0767408	
-0.0758354	
-0.0741538	
-0.0718902	
-0.0702733	
-0.0700146	
-0.0687857	
-0.0686564	
-0.0623829	
-0.0440797	
-0.00915481	
0.0370883	
0.0857243	
0.127893	
0.158678	
0.179245	
0.189464	
0.191275	
0.187588	
0.178728	
0.166246	
0.148136	
0.123948	
0.0967839	
0.0692967	
0.0472423	
0.0321082	
0.0194965	
0.00630267	
-0.00469219	
-0.0136821	
-0.022672	
-0.0331495	
-0.0418807	
-0.0517761	
-0.0603132	
-0.0687857	
-0.0758354	
-0.0778403	
-0.0770642	
-0.075512	
-0.0740245	
-0.0727956	
-0.072731	
-0.0717608	
-0.0694972	
-0.068333	
-0.0685917	
-0.0687857	
-0.0674922	
-0.0663281	
-0.0650346	
-0.0564327	
-0.0354778	
0.00209875	
0.0497	
0.100341	
0.143932	
0.175041	
0.194897	
0.201688	
0.200394	
0.193151	
0.182026	
0.16644	
0.143092	
0.117221	
0.090769	
0.0639287	
0.0402574	
0.0215661	
0.0072728	
-0.00288127	
-0.0115478	
-0.0197616	
-0.0256471	
-0.0310152	
-0.0354131	
-0.036836	
-0.039229	
-0.0427215	
-0.0475721	
-0.0526815	
-0.0574675	
-0.0607013	
-0.0645818	
-0.0664574	
-0.0688504	
-0.0716961	
-0.0739598	
-0.0752533	
-0.0772583	
-0.080298	
-0.0823676	
-0.0827557	
-0.0810741	
-0.0761588	
-0.0596018	
-0.0240949	
0.0234417	
0.0716897	
0.114828	
0.149236	
0.170385	
0.177758	
0.177111	
0.170514	
0.159584	
0.144903	
0.124465	
0.0965898	
0.0667097	
0.0368296	
0.011024	
-0.00915481	
-0.0241596	
-0.0352838	
-0.044015	
-0.0499651	
-0.0573382	
-0.0634823	
-0.0689151	
-0.0726016	
-0.0759001	
-0.080298	
-0.0844372	
-0.0868949	
-0.0887705	
-0.0902581	
-0.0931685	
-0.0961435	
-0.09983	
-0.102288	
-0.101641	
-0.0980191	
-0.0931038	
-0.089676	
-0.0879944	
-0.085278	
-0.0832731	
-0.0785518	
-0.068527	
-0.0449204	
-0.00611506	
0.042521	
0.0918039	
0.132355	
0.161589	
0.17821	
0.182544	
0.176464	
0.165405	
0.151564	
0.136301	
0.112241	
0.0845602	
0.0572671	
0.0314615	
0.0116061	
-0.00145841	
-0.0112891	
-0.0159458	
-0.0220899	
-0.0282988	
-0.0349604	
-0.0409105	
-0.0455025	
-0.0498358	
-0.0548158	
-0.0612187	
-0.0670395	
-0.0689151	
-0.0711141	
-0.0737658	
-0.0760294	
-0.075318	
-0.0741538	
-0.0713081	
-0.0686564	
-0.0690444	
-0.0714374	
-0.0722136	
-0.0733777	
-0.0736364	
-0.0693678	
-0.0572735	
-0.0331495	
0.00378032	
0.0469836	
0.0887641	
0.122266	
0.144062	
0.153634	
0.150271	
0.142639	
0.128281	
0.111207	
0.0903163	
0.0679385	
0.0421976	
0.0173622	
-0.00443349	
-0.0182094	
-0.0254531	
