-0.956376	
-0.955664	
-0.951004	
-0.942914	
-0.927639	
-0.908805	
-0.890554	
-0.872885	
-0.860911	
-0.853597	
-0.848614	
-0.846607	
-0.842077	
-0.80978	
-0.713992	
-0.54319	
-0.319899	
-0.0924655	
0.0987236	
0.233799	
0.314119	
0.349069	
0.351916	
0.338454	
0.317355	
0.294767	
0.267001	
0.228362	
0.182733	
0.138334	
0.102931	
0.0769123	
0.0576251	
0.0409915	
0.0198274	
-0.00599674	
-0.0368692	
-0.0751847	
-0.118613	
-0.164889	
-0.213107	
-0.258089	
-0.299317	
-0.338151	
-0.373812	
-0.405526	
-0.43504	
-0.460087	
-0.481639	
-0.499438	
-0.517107	
-0.536006	
-0.552704	
-0.568302	
-0.582023	
-0.594321	
-0.606424	
-0.617426	
-0.628817	
-0.641827	
-0.654577	
-0.669657	
-0.68176	
-0.68066	
-0.636584	
-0.520667	
-0.340675	
-0.12761	
0.0794364	
0.242536	
0.352046	
0.411331	
0.430554	
0.423499	
0.405442	
0.385119	
0.360978	
0.331076	
0.291725	
0.249073	
0.209269	
0.177749	
0.15322	
0.133026	
0.11361	
0.0934164	
0.0694045	
0.0387262	
0.00345269	
-0.0368045	
-0.0790033	
-0.121332	
-0.161848	
-0.20204	
-0.243721	
-0.28579	
-0.320417	
-0.351095	
-0.377825	
-0.400802	
-0.418341	
-0.430897	
-0.442612	
-0.453679	
-0.464876	
-0.476203	
-0.488953	
-0.503645	
-0.517431	
-0.528692	
-0.522867	
-0.473484	
-0.364492	
-0.204046	
-0.0203003	
0.151278	
0.288295	
0.380006	
0.428547	
0.444081	
0.439032	
0.422593	
0.398063	
0.365832	
0.326869	
0.282211	
0.241048	
0.207327	
0.183768	
0.165776	
0.151278	
0.140016	
0.122994	
0.101636	
0.0732231	
0.0395676	
-0.000430637	
-0.0431472	
-0.0859933	
-0.126121	
-0.164178	
-0.200098	
-0.233365	
-0.261584	
-0.285143	
-0.302553	
-0.317245	
-0.328636	
-0.338345	
-0.345723	
-0.356014	
-0.366564	
-0.376142	
-0.38488	
-0.384039	
-0.348636	
-0.257442	
-0.114083	
0.0597609	
0.23341	
0.376187	
0.474306	
0.531003	
0.553526	
0.553655	
0.539805	
0.518964	
0.491522	
0.456507	
0.412626	
0.366026	
0.320462	
0.281046	
0.253409	
0.234769	
0.217812	
0.196842	
0.171989	
0.144417	
0.108173	
0.0668156	
0.0234518	
-0.0227598	
-0.0700716	
-0.115636	
-0.158158	
-0.19615	
-0.228188	
-0.256018	
-0.280807	
-0.300612	
-0.317375	
-0.332973	
-0.347082	
-0.362357	
-0.375172	
-0.38378	
-0.376725	
-0.325659	
-0.215308	
-0.05648	
0.122541	
0.289977	
0.421428	
0.505696	
0.549642	
0.561357	
0.553461	
0.533397	
0.509515	
0.479872	
0.43968	
0.390944	
0.339684	
0.294573	
0.260464	
0.234381	
0.210046	
0.188364	
0.165582	
0.138787	
0.107591	
0.0700517	
0.0290826	
-0.0162876	
-0.0641172	
-0.111558	
-0.15654	
-0.197639	
-0.234919	
-0.268445	
-0.298346	
-0.323329	
-0.344364	
-0.361062	
-0.376272	
-0.393164	
-0.408115	
-0.419895	
-0.434975	
-0.449861	
-0.452579	
-0.41284	
-0.310126	
-0.150133	
0.0384026	
0.220595	
0.368615	
0.470228	
0.524013	
0.541811	
0.537086	
0.519094	
0.495276	
0.466345	
0.427577	
0.382983	
0.336448	
0.294184	
0.259687	
0.230951	
0.207521	
0.188687	
0.16707	
0.14034	
0.107332	
0.0659742	
0.0187918	
-0.03085	
-0.0810097	
-0.129033	
-0.17408	
-0.217185	
-0.256471	
-0.291162	
-0.321452	
-0.34527	
-0.364622	
-0.378861	
-0.393035	
-0.408892	
-0.424166	
-0.437305	
-0.450638	
-0.463453	
-0.473808	
-0.468889	
-0.423519	
-0.317245	
-0.158288	
0.0279824	
0.204091	
0.343244	
0.434114	
0.478772	
0.486215	
0.475018	
0.453077	
0.424664	
0.388096	
0.345703	
0.298974	
0.255416	
0.217812	
0.189464	
0.169206	
0.152831	
0.137363	
0.118982	
0.0972997	
0.0679159	
0.0328365	
-0.0085209	
-0.0535028	
-0.100103	
-0.144826	
-0.18696	
-0.228835	
-0.267798	
-0.303006	
-0.332779	
-0.356273	
-0.372	
-0.382032	
-0.39077	
-0.400802	
-0.411545	
-0.423131	
-0.435493	
-0.448372	
-0.456074	
-0.437758	
-0.363781	
-0.227929	
-0.0495547	
0.138592	
0.304734	
0.42913	
0.504984	
0.537475	
0.538251	
0.520906	
0.497282	
0.46764	
0.433272	
0.390491	
0.345056	
0.302598	
0.267066	
0.240853	
0.220531	
0.204415	
0.188428	
0.167847	
0.142799	
0.109144	
0.0679159	
0.0204099	
-0.029685	
-0.079521	
-0.125474	
-0.168838	
-0.209548	
-0.245469	
-0.276212	
-0.304495	
-0.325077	
-0.342746	
-0.358279	
-0.371806	
-0.384492	
-0.398666	
-0.413617	
-0.427338	
-0.434198	
-0.408568	
-0.324753	
-0.17997	
0.00578268	
0.197878	
0.363372	
0.483302	
0.550743	
0.576955	
0.572554	
0.554561	
0.529773	
0.496441	
0.456637	
0.411008	
0.361172	
0.313083	
0.271855	
0.2404	
0.21956	
0.203897	
0.189011	
0.166811	
0.138787	
0.103125	
0.0587254	
0.00837157	
-0.0427589	
-0.0928538	
-0.142949	
-0.190196	
-0.23343	
-0.274788	
-0.31142	
-0.344429	
-0.372259	
-0.39297	
-0.409604	
-0.423907	
-0.436463	
-0.444424	
-0.452903	
-0.464941	
-0.480151	
-0.496202	
-0.509276	
-0.502674	
-0.440606	
-0.311097	
-0.12981	
0.0690162	
0.249073	
0.385572	
0.470746	
0.509774	
0.512168	
0.49081	
0.459679	
0.427382	
0.390944	
0.347774	
0.301563	
0.257228	
0.223378	
0.200726	
0.186228	
0.173866	
0.160792	
0.140728	
0.115163	
0.0831256	
0.0428037	
0.000216584	
-0.0454772	
-0.0917535	
-0.138677	
-0.182106	
-0.223592	
-0.26152	
-0.29401	
-0.323006	
-0.344429	
-0.363069	
-0.38022	
-0.398018	
-0.418082	
-0.436722	
-0.452579	
-0.459634	
-0.43724	
-0.361386	
-0.234595	
-0.0780324	
0.0777537	
0.205062	
0.293149	
0.34072	
0.35101	
0.339813	
0.313536	
0.282987	
0.250562	
0.215094	
0.176843	
0.137427	
0.102219	
0.0752942	
0.0573662	
0.0460398	
0.0340015	
0.0197627	
0.00041075	
-0.0251545	
-0.05415	
-0.0896824	
-0.128127	
-0.168449	
-0.209159	
-0.250711	
-0.288056	
-0.320028	
-0.345141	
-0.366822	
-0.384362	
-0.39653	
-0.407597	
-0.418018	
-0.426302	
-0.436205	
-0.447855	
-0.451673	
-0.429991	
-0.354461	
-0.225599	
-0.066253	
0.092575	
0.225385	
0.318843	
0.369974	
0.387255	
0.380071	
0.359295	
0.333082	
0.304475	
0.272179	
0.235546	
0.198331	
0.168106	
0.1461	
0.134321	
0.127396	
0.120276	
0.110179	
0.0930281	
0.0704401	
0.0420271	
0.00837157	
-0.0276139	
-0.0640525	
-0.100038	
-0.136412	
-0.166896	
-0.194144	
-0.219127	
-0.240614	
-0.260937	
-0.277894	
-0.294463	
-0.307796	
-0.321905	
-0.333555	
-0.343005	
-0.338409	
-0.291615	
-0.187607	
-0.0438592	
0.114257	
0.258781	
0.370815	
0.438838	
0.46874	
0.472105	
0.457478	
0.434825	
0.408678	
0.374828	
0.336901	
0.297938	
0.261629	
0.235999	
0.220595	
0.211599	
0.205839	
0.199496	
0.186681	
0.165582	
0.136845	
0.100859	
0.061379	
0.0217043	
-0.0195884	
-0.0602986	
-0.0987435	
-0.133111	
-0.165343	
-0.193432	
-0.214984	
-0.233948	
-0.249417	
-0.265468	
-0.280354	
-0.294981	
-0.307343	
-0.307213	
-0.270516	
-0.177769	
-0.0334389	
0.13322	
0.294379	
0.427706	
0.519288	
0.565111	
0.576632	
0.567247	
0.545759	
0.51877	
0.486474	
0.445699	
0.398581	
0.352952	
0.317355	
0.290884	
0.272114	
0.256257	
0.239624	
0.218006	
0.189399	
0.157491	
0.120082	
0.078142	
0.0354901	
-0.0085209	
-0.0524672	
-0.0959605	
-0.136282	
-0.174857	
-0.208901	
-0.237249	
-0.261973	
-0.282166	
-0.299965	
-0.31608	
-0.331031	
-0.346564	
-0.361839	
-0.364751	
-0.327536	
-0.23123	
-0.0824335	
0.0904392	
0.253862	
0.384148	
0.471652	
0.516828	
0.527831	
0.519158	
0.499353	
0.473788	
0.442333	
0.402659	
0.356706	
0.310883	
0.273538	
0.243636	
0.221825	
0.201373	
0.181762	
0.160663	
0.134709	
0.102024	
0.0619615	
0.0177563	
-0.0285848	
-0.0770616	
-0.124309	
-0.171556	
-0.216214	
-0.255371	
-0.291292	
-0.324171	
-0.351224	
-0.372065	
-0.389993	
-0.403714	
-0.412452	
-0.418082	
-0.425331	
-0.43614	
-0.448761	
-0.464682	
-0.480539	
-0.485329	
-0.448761	
-0.345205	
-0.185212	
0.00520019	
0.188817	
0.337225	
0.438062	
0.495082	
0.514563	
0.510421	
0.493852	
0.470811	
0.443045	
0.405895	
0.361948	
0.320008	
0.28357	
0.255869	
0.235611	
0.217877	
0.200078	
0.178073	
0.149401	
0.114451	
0.0744528	
0.0304418	
-0.0179056	
-0.0658	
-0.113888	
-0.16133	
-0.204499	
-0.243268	
-0.278606	
-0.310579	
-0.336468	
-0.359509	
-0.377631	
-0.392194	
-0.403585	
-0.415429	
-0.426367	
-0.434975	
-0.441965	
-0.449149	
-0.459699	
-0.46863	
-0.47795	
-0.489147	
-0.500991	
-0.509599	
-0.497885	
-0.433163	
-0.298152	
-0.105345	
0.104613	
0.294961	
0.443045	
0.53631	
0.581421	
0.590676	
0.579479	
0.555467	
0.527896	
0.496765	
0.457155	
0.412626	
0.370039	
0.334183	
0.306999	
0.287389	
0.273409	
0.257228	
0.235611	
0.20778	
0.17186	
0.12979	
0.0827373	
0.0342604	
-0.0169995	
-0.0659941	
-0.112465	
-0.153887	
-0.193367	
-0.228188	
-0.259513	
-0.284884	
-0.305466	
-0.321064	
-0.333749	
-0.34637	
-0.358279	
-0.369152	
-0.380026	
-0.391805	
-0.403779	
-0.417241	
-0.427661	
-0.421448	
-0.367534	
-0.24851	
-0.074408	
0.1217	
0.302792	
0.442851	
0.528931	
0.568865	
0.576243	
0.563169	
0.540776	
0.513528	
0.480908	
0.439939	
0.392497	
0.345638	
0.307388	
0.278716	
0.257422	
0.240789	
0.224996	
0.203768	
0.174448	
0.140016	
0.099112	
0.052059	
0.00299963	
-0.0451536	
-0.0922713	
-0.139518	
-0.186507	
-0.22987	
-0.270128	
-0.304236	
-0.329154	
-0.347017	
-0.363069	
-0.377631	
-0.389475	
-0.403326	
-0.41737	
-0.432192	
-0.447855	
-0.452644	
-0.420801	
-0.327083	
-0.171038	
0.0214454	
0.212052	
0.368226	
0.471135	
0.524789	
0.539934	
0.529838	
0.507055	
0.478383	
0.445893	
0.411526	
0.36978	
0.32551	
0.283182	
0.24862	
0.222149	
0.203768	
0.186487	
0.166099	
0.142023	
0.110179	
0.0741939	
0.0326424	
-0.0108509	
-0.0551208	
-0.100879	
-0.146767	
-0.190649	
-0.231165	
-0.270128	
-0.30676	
-0.339769	
-0.365916	
-0.385592	
-0.403132	
-0.419183	
-0.434845	
-0.449278	
-0.463194	
-0.478856	
-0.493289	
-0.501833	
-0.486494	
-0.413487	
-0.26961	
-0.0744727	
0.134839	
0.31839	
0.448935	
0.526084	
0.558315	
0.556503	
0.540323	
0.51534	
0.486862	
0.456119	
0.416962	
0.372045	
0.326545	
0.286612	
0.255222	
0.230951	
0.212699	
0.19503	
0.173866	
0.144417	
0.105714	
0.059502	
0.0118018	
-0.0354453	
-0.081398	
-0.125668	
-0.165731	
-0.203982	
-0.240679	
-0.276212	
-0.31032	
-0.34184	
-0.368764	
-0.389475	
-0.403973	
-0.416076	
-0.432062	
-0.45122	
-0.470119	
-0.487335	
-0.503774	
-0.516395	
-0.507658	
-0.446236	
-0.31265	
-0.120555	
0.0933517	
0.284023	
0.423823	
0.506861	
0.541876	
0.54317	
0.52699	
0.501036	
0.470682	
0.438579	
0.39774	
0.351399	
0.304734	
0.265836	
0.236582	
0.215547	
0.197554	
0.179108	
0.155938	
0.127525	
0.0947108	
0.054389	
0.00966601	
-0.0349275	
-0.0795858	
-0.12528	
-0.168449	
-0.211166	
-0.25317	
-0.289997	
-0.321064	
-0.349089	
-0.373748	
-0.395171	
-0.414264	
-0.431739	
-0.445589	
-0.457498	
-0.470378	
-0.482869	
-0.496137	
-0.512641	
-0.528628	
-0.540666	
-0.539889	
-0.493031	
-0.375107	
-0.190131	
0.0288885	
0.239883	
0.405247	
0.510939	
0.563622	
0.575596	
0.558056	
0.527766	
0.494758	
0.45929	
0.417545	
0.370556	
0.324215	
0.2859	
0.256387	
0.23697	
0.220595	
0.204026	
0.184222	
0.158656	
0.125001	
0.0848731	
0.0403443	
-0.00347258	
-0.0481955	
-0.0951838	
-0.138095	
-0.178352	
-0.216538	
-0.255889	
-0.290774	
-0.322229	
-0.349671	
-0.371677	
-0.38844	
-0.402225	
-0.415299	
-0.427791	
-0.440865	
-0.454844	
-0.468048	
-0.465783	
-0.416853	
-0.301453	
-0.12638	
0.0765239	
0.266095	
0.410102	
0.500001	
0.542782	
0.546277	
0.527443	
0.497347	
0.464792	
0.428871	
0.386608	
0.338195	
0.289654	
0.248814	
0.217683	
0.195936	
0.179756	
0.164093	
0.144676	
0.121312	
0.0931575	
0.0563306	
0.0148438	
-0.0292967	
-0.0733077	
-0.115636	
-0.157188	
-0.195956	
-0.232136	
-0.267021	
-0.297699	
-0.327018	
-0.352842	
-0.373748	
-0.390446	
-0.405591	
-0.421707	
-0.436334	
-0.451544	
-0.468954	
-0.479957	
-0.459246	
-0.377113	
-0.223334	
-0.0226303	
0.187199	
0.364796	
0.486603	
0.555467	
0.580968	
0.575143	
0.550743	
0.521683	
0.492493	
0.457413	
0.414503	
0.368162	
0.323698	
0.286806	
0.258846	
0.237747	
0.219819	
0.201373	
0.176778	
0.146553	
0.10895	
0.0670098	
0.021769	
-0.0276139	
-0.0773205	
-0.121785	
-0.163724	
-0.202428	
-0.236343	
-0.267345	
-0.294269	
-0.320287	
-0.343976	
-0.363845	
-0.37899	
-0.392905	
-0.406432	
-0.421642	
-0.439052	
-0.454327	
-0.471219	
-0.483516	
-0.465394	
-0.385074	
-0.230518	
-0.0237306	
0.190953	
0.375022	
0.507185	
0.586534	
0.616306	
0.612358	
0.589964	
0.559351	
0.525631	
0.489969	
0.447899	
0.400393	
0.35347	
0.314895	
0.285965	
0.2626	
0.242083	
0.221954	
0.197231	
0.164158	
0.122347	
0.0737409	
0.0222868	
-0.0277434	
-0.0768027	
-0.125215	
-0.169614	
-0.208577	
-0.244886	
-0.274593	
-0.300094	
-0.321193	
-0.334138	
-0.346564	
-0.359121	
-0.373748	
-0.392388	
-0.412646	
-0.431998	
-0.454844	
-0.471802	
-0.467401	
-0.414005	
-0.291551	
-0.113241	
0.0846142	
0.260529	
0.388938	
0.464792	
0.496182	
0.494305	
0.474177	
0.445505	
0.41392	
0.380718	
0.340849	
0.294379	
0.247067	
0.208686	
0.178526	
0.155744	
0.137751	
0.117558	
0.095617	
0.0680453	
0.0343899	
-0.00625563	
-0.048778	
-0.0957663	
-0.14159	
-0.183983	
-0.224563	
-0.264885	
-0.299511	
-0.329607	
-0.354331	
-0.376531	
-0.395559	
-0.411092	
-0.423713	
-0.435946	
-0.450185	
-0.463906	
-0.476526	
-0.488371	
-0.503127	
-0.522026	
-0.537042	
-0.530893	
-0.47342	
-0.346241	
-0.1601	
0.050182	
0.240724	
0.382854	
0.469581	
0.508026	
0.51288	
0.49793	
0.472753	
0.442398	
0.407319	
0.366673	
0.322338	
0.278845	
0.240789	
0.212893	
0.191988	
0.174448	
0.15885	
0.138269	
0.112768	
0.0779478	
0.0384673	
-0.00276063	
-0.0465128	
-0.0904591	
-0.133693	
-0.171556	
-0.207088	
-0.238996	
-0.268251	
-0.295434	
-0.31731	
-0.33595	
-0.351807	
-0.365204	
-0.378537	
-0.393164	
-0.409151	
-0.42339	
-0.436528	
-0.437175	
-0.395883	
-0.288444	
-0.121785	
0.0710226	
0.248296	
0.387061	
0.475924	
0.519806	
0.526407	
0.507832	
0.481231	
0.452365	
0.420004	
0.382401	
0.340266	
0.29742	
0.259817	
0.228103	
0.203315	
0.185581	
0.168235	
0.148301	
0.122024	
0.0866853	
0.0476579	
0.00481185	
-0.0412703	
-0.0878702	
-0.131881	
-0.173692	
-0.213107	
-0.246698	
-0.276923	
-0.305142	
-0.325724	
-0.343264	
-0.356467	
-0.367599	
-0.378472	
-0.390964	
-0.407015	
-0.427273	
-0.447207	
-0.46287	
-0.462935	
-0.414782	
-0.297052	
-0.119455	
0.0848731	
0.270755	
0.411396	
0.502007	
0.5444	
0.552749	
0.53851	
0.512816	
0.485309	
0.45586	
0.418774	
0.372628	
0.327063	
0.285641	
0.250497	
0.222731	
0.198719	
0.17639	
0.151666	
0.121117	
0.0853909	
0.0466223	
0.00390574	
-0.0430178	
-0.0914299	
-0.138095	
-0.17997	
-0.215955	
-0.24987	
-0.279189	
-0.305854	
-0.330708	
-0.352842	
-0.372842	
-0.391417	
-0.407015	
-0.420865	
-0.433875	
-0.444813	
-0.456527	
-0.468177	
-0.481445	
-0.495684	
-0.509988	
-0.52578	
-0.541896	
-0.547656	
-0.511153	
-0.404555	
-0.22521	
0.000928527	
0.222149	
0.397092	
0.514693	
0.577149	
0.598702	
0.591647	
0.570418	
0.54796	
0.522459	
0.492363	
0.453401	
0.406412	
0.361236	
0.323892	
0.296709	
0.272891	
0.250238	
0.227974	
0.200337	
0.165776	
0.125389	
0.07976	
0.0324482	
-0.0168053	
-0.0667708	
-0.113371	
-0.155764	
-0.193756	
-0.22644	
-0.253494	
-0.279448	
-0.302748	
-0.321193	
-0.337439	
-0.35349	
-0.367793	
-0.384686	
-0.400672	
-0.415558	
-0.430444	
-0.44436	
-0.460928	
-0.477756	
-0.493678	
-0.509988	
-0.526168	
-0.534064	
-0.501703	
-0.397501	
-0.223722	
-0.00670868	
0.211664	
0.390038	
0.514369	
0.581874	
0.60485	
0.596372	
0.572942	
0.545565	
0.517734	
0.48505	
0.445505	
0.402335	
0.359877	
0.324733	
0.299492	
0.282081	
0.264412	
0.243572	
0.216518	
0.184739	
0.145971	
0.099112	
0.0507645	
0.00248186	
-0.0467069	
-0.0919477	
-0.13337	
-0.172915	
-0.210066	
-0.240097	
-0.26715	
-0.289868	
-0.309543	
-0.325271	
-0.339639	
-0.355755	
-0.370512	
-0.384103	
-0.399313	
-0.414782	
-0.430638	
-0.442612	
-0.430638	
-0.360997	
-0.222039	
-0.0335684	
0.17063	
0.34881	
0.475924	
0.548477	
0.575725	
0.57126	
0.547636	
0.517152	
0.488545	
0.456248	
0.413856	
0.36499	
0.316967	
0.277551	
0.24506	
0.21956	
0.20092	
0.186746	
0.167135	
0.141893	
0.110956	
0.0726406	
0.0266879	
-0.0204945	
-0.0693597	
-0.114471	
-0.154922	
-0.193367	
-0.227605	
-0.258607	
-0.286761	
-0.31032	
-0.329996	
-0.351095	
-0.373554	
-0.393035	
-0.407792	
-0.410445	
-0.378278	
-0.287279	
-0.131493	
0.0604081	
0.249526	
0.403047	
0.506602	
0.559416	
0.572619	
0.556697	
0.525242	
0.487898	
0.450488	
0.407124	
0.35813	
0.306546	
0.258911	
0.221243	
0.192506	
0.173478	
0.161116	
0.151407	
0.136974	
0.111215	
0.0752295	
0.0342604	
-0.010139	
-0.0557033	
-0.101009	
-0.145343	
-0.18463	
-0.22068	
-0.253882	
-0.280354	
-0.300741	
-0.319705	
-0.334914	
-0.344429	
-0.345658	
-0.314656	
-0.227994	
-0.0843752	
0.093287	
0.269072	
0.410943	
0.502913	
0.542976	
0.542717	
0.517476	
0.47929	
0.437544	
0.393015	
0.341173	
0.28247	
0.225773	
0.178526	
0.144547	
0.122541	
0.108432	
0.0982058	
0.0850673	
0.0662978	
0.0408621	
0.00869518	
-0.0303322	
-0.075573	
-0.12392	
-0.172527	
-0.216149	
-0.25686	
-0.293104	
-0.321776	
-0.345076	
-0.366499	
-0.384427	
-0.399895	
-0.407144	
-0.384297	
-0.30922	
-0.176993	
-0.0102684	
0.157362	
0.295544	
0.383113	
0.423823	
0.424082	
0.392433	
0.344926	
0.294896	
0.243054	
0.18584	
0.123965	
0.0690809	
0.0273999	
-0.000365915	
-0.0171937	
-0.0289084	
-0.0386814	
-0.0507844	
-0.070913	
-0.0999085	
-0.136088	
-0.175763	
-0.216732	
-0.258737	
-0.299188	
-0.336856	
-0.371224	
-0.401578	
-0.42915	
-0.451608	
-0.468242	
-0.482481	
-0.494454	
-0.508693	
-0.521638	
-0.536718	
-0.554387	
-0.571215	
-0.571215	
-0.527333	
-0.416917	
-0.249028	
-0.0586158	
0.11115	
0.235934	
0.30907	
0.338131	
0.332047	
0.302598	
0.264736	
0.223896	
0.180791	
0.132767	
0.0853261	
0.0440334	
0.0147143	
-0.00541424	
-0.0202356	
-0.03318	
-0.0468364	
-0.0645055	
-0.0893588	
-0.120361	
-0.157252	
-0.197186	
-0.23919	
-0.28016	
-0.321258	
-0.361386	
-0.40119	
-0.438729	
-0.470766	
-0.498856	
-0.525586	
-0.54675	
-0.564743	
-0.583059	
-0.599887	
-0.614579	
-0.627135	
-0.63995	
-0.652506	
-0.665256	
-0.678395	
-0.692763	
-0.708879	
-0.723053	
-0.735933	
-0.741693	
-0.714315	
-0.626941	
-0.488629	
-0.32896	
-0.178352	
-0.059975	
0.0150379	
0.0511529	
0.0589842	
0.0518648	
0.0362021	
0.0176916	
0.000540194	
-0.021077	
-0.0465775	
-0.072078	
-0.0894235	
-0.0991318	
-0.10308	
-0.10418	
-0.105086	
-0.113306	
-0.124244	
-0.143596	
-0.168255	
-0.195374	
-0.225016	
-0.254141	
-0.283072	
-0.307925	
-0.330125	
-0.352584	
-0.371094	
-0.386369	
-0.399637	
-0.408957	
-0.418535	
-0.426626	
-0.433163	
-0.437693	
-0.444877	
-0.451285	
-0.454521	
-0.456657	
-0.460475	
-0.464553	
-0.467401	
-0.47096	
-0.475038	
-0.47575	
-0.457304	
-0.395235	
-0.290321	
-0.170973	
-0.065088	
0.0132904	
0.0564601	
0.0692103	
0.0596315	
0.0408621	
0.0218338	
0.00837157	
-0.000171749	
-0.00962118	
-0.020365	
-0.0316914	
-0.0396522	
-0.0405583	
-0.0329859	
-0.0219831	
-0.0139576	
-0.0112392	
-0.0148637	
-0.0247014	
-0.03784	
-0.054603	
-0.0719486	
-0.0896824	
-0.105086	
-0.118031	
-0.130263	
-0.141072	
-0.150845	
-0.155505	
-0.156281	
-0.156799	
-0.156993	
-0.158935	
-0.160747	
-0.162559	
-0.165666	
-0.170067	
-0.172268	
-0.174145	
-0.176151	
-0.178999	
-0.18217	
-0.184112	
-0.186571	
-0.190778	
-0.19382	
-0.191555	
-0.161589	
-0.0836633	
0.0206688	
0.122671	
0.199172	
0.239494	
0.246678	
0.230886	
0.202538	
0.174384	
0.150242	
0.136068	
0.128431	
0.121312	
0.113933	
0.110762	
0.11238	
0.119499	
0.127201	
0.132573	
0.137039	
0.136392	
0.132314	
0.123383	
0.10895	
0.0923809	
0.0752942	
0.0581429	
0.0404737	
0.0272704	
0.0176268	
0.010831	
0.00487657	
0.000540194	
-0.00243702	
-0.00360202	
-0.00489646	
-0.00586729	
-0.00755007	
-0.0079384	
-0.0102037	
-0.0114981	
-0.016417	
-0.0223067	
-0.0265784	
-0.0254134	
-0.0047023	
0.0532887	
0.135227	
0.219236	
0.289913	
0.327905	
0.335089	
0.318649	
0.287518	
0.253862	
0.225967	
0.206162	
0.195289	
0.184739	
0.17283	
0.160663	
0.15542	
0.155744	
0.162863	
0.172895	
0.180273	
0.179562	
0.172313	
0.163963	
0.152961	
0.139887	
0.125842	
0.110503	
0.0963289	
0.0864911	
0.0813134	
0.07743	
0.0726406	
0.0675923	
0.0644209	
0.0620909	
0.0617026	
0.0607317	
0.0570426	
0.052512	
0.0471401	
0.0395029	
0.033419	
0.034584	
0.0585959	
0.121182	
0.204026	
0.285576	
0.344344	
0.375475	
0.382077	
0.370621	
0.349198	
0.326481	
0.307711	
0.294443	
0.285576	
0.274574	
0.260594	
0.248749	
0.241695	
0.238782	
0.240594	
0.245384	
0.249526	
0.24862	
0.240271	
0.226809	
0.21011	
0.1927	
0.175355	
0.162216	
0.146359	
0.130567	
0.116522	
0.106296	
0.0998886	
0.0933517	
0.0883681	
0.0836434	
0.0793717	
0.0755531	
0.0694692	
0.0628676	
0.054842	
0.0484993	
0.0421565	
0.0346487	
0.0316068	
0.0525768	
0.114127	
0.200337	
0.283635	
0.350946	
0.391656	
0.404341	
0.394374	
0.374375	
0.353729	
0.336771	
0.329328	
0.324733	
0.31742	
0.307194	
0.296061	
0.290236	
0.287453	
0.287906	
0.289783	
0.288036	
0.281175	
0.272308	
0.257875	
0.238653	
0.219689	
0.200014	
0.180532	
0.162475	
0.145129	
0.129984	
0.117687	
0.107332	
0.0957464	
0.0840964	
0.074647	
0.0611201	
0.0495348	
0.0420918	
0.0366551	
0.028759	
0.0202157	
0.0122549	
0.0043588	
-0.00573785	
-0.0161581	
-0.0250898	
-0.0193295	
0.0199568	
0.0958758	
0.189658	
0.279945	
0.350946	
0.391397	
0.406024	
0.403371	
0.390491	
0.378064	
0.370492	
0.365767	
0.360783	
0.35114	
0.339037	
0.324474	
0.314895	
0.309394	
0.307194	
0.306417	
0.301757	
0.292178	
0.276709	
0.25794	
0.234252	
0.211923	
0.187781	
0.164481	
0.143058	
0.12293	
0.10306	
0.0861028	
0.0704401	
0.0571073	
0.0433215	
0.027594	
0.0130316	
-0.000754248	
-0.0130514	
-0.0249603	
-0.0371928	
-0.0481955	
-0.0617872	
-0.0722074	
-0.0837927	
-0.0958957	
-0.105733	
-0.115377	
-0.124503	
-0.134988	
-0.146573	
-0.155052	
-0.166572	
-0.176475	
-0.176022	
-0.139195	
-0.0540205	
0.0576898	
0.16953	
0.260011	
0.31962	
0.347062	
0.351787	
0.345509	
0.33826	
0.333988	
0.331853	
0.33373	
0.329393	
0.31975	
0.308358	
0.299362	
0.298197	
0.298391	
0.296255	
0.291013	
0.281369	
0.262212	
0.240206	
0.2171	
0.191729	
0.163963	
0.137363	
0.113674	
0.0916042	
0.0710226	
0.048564	
0.0298593	
0.0121902	
-0.00567313	
-0.0202356	
-0.0345392	
-0.0497489	
-0.0656705	
-0.0817863	
-0.0947955	
-0.105345	
-0.116736	
-0.129163	
-0.140295	
-0.151751	
-0.164048	
-0.178222	
-0.194273	
-0.210195	
-0.223269	
-0.226181	
-0.202105	
-0.133758	
-0.0263842	
0.0928339	
0.198396	
0.279557	
0.329652	
0.353858	
0.361431	
0.363437	
0.365896	
0.367968	
0.367968	
0.362596	
0.346545	
0.329199	
0.313795	
0.299362	
0.289719	
0.283182	
0.275544	
0.265642	
0.249332	
0.228103	
0.202279	
0.17283	
0.143705	
0.112574	
0.080472	
0.0499232	
0.0184035	
-0.0110451	
-0.0377106	
-0.0624991	
-0.0857991	
-0.108775	
-0.128839	
-0.147997	
-0.166249	
-0.183271	
-0.199516	
-0.217638	
-0.233689	
-0.252588	
-0.268768	
-0.284625	
-0.299382	
-0.311873	
-0.325853	
-0.336468	
-0.346759	
-0.356855	
-0.365463	
-0.374589	
-0.384168	
-0.38598	
-0.357697	
-0.280095	
-0.158482	
-0.0179703	
0.117817	
0.228362	
0.306676	
0.353211	
0.376123	
0.384731	
0.387837	
0.390685	
0.394439	
0.395086	
0.38829	
0.37444	
0.358389	
0.342273	
0.326416	
0.314701	
0.304605	
0.290107	
0.271855	
0.249008	
0.219366	
0.186875	
0.150372	
0.109726	
0.0687573	
0.027594	
-0.0114981	
-0.0498136	
-0.0841163	
-0.116024	
-0.147026	
-0.177316	
-0.202752	
-0.224434	
-0.245404	
-0.264691	
-0.280613	
-0.296664	
-0.313362	
-0.329737	
-0.342552	
-0.35692	
-0.370965	
-0.385333	
-0.400996	
-0.41627	
-0.429991	
-0.443	
-0.453874	
-0.461058	
-0.45122	
-0.396789	
-0.289997	
-0.146444	
0.0081774	
0.14623	
0.251986	
0.320656	
0.35923	
0.376381	
0.380718	
0.378194	
0.372498	
0.366414	
0.355606	
0.337289	
0.312889	
0.286159	
0.262859	
0.245319	
0.231598	
0.218136	
0.202538	
0.181827	
0.15788	
0.128237	
0.0947108	
0.059502	
0.0229988	
-0.0158345	
-0.05415	
-0.0900707	
-0.123856	
-0.157058	
-0.189937	
-0.221715	
-0.249028	
-0.272005	
-0.292327	
-0.306178	
-0.320352	
-0.33362	
-0.346759	
-0.361839	
-0.377307	
-0.394006	
-0.412387	
-0.429085	
-0.435622	
-0.409539	
-0.332326	
-0.206959	
-0.0578391	
0.0851967	
0.204997	
0.289783	
0.338972	
0.35923	
0.357483	
0.345315	
0.329652	
0.316513	
0.30111	
0.278133	
0.250238	
0.22422	
0.20448	
0.18914	
0.177102	
0.166747	
0.155809	
0.138851	
0.116393	
0.0878503	
0.056719	
0.0188565	
-0.023407	
-0.063923	
-0.103857	
-0.143661	
-0.182364	
-0.218609	
-0.251811	
-0.279577	
-0.299511	
-0.316986	
-0.333102	
-0.347276	
-0.35815	
-0.36857	
-0.378796	
-0.387339	
-0.394459	
-0.407274	
-0.422354	
-0.438146	
-0.443389	
-0.412193	
-0.322099	
-0.181847	
-0.0148637	
0.14843	
0.283829	
0.375799	
0.424405	
0.443498	
0.441427	
0.428547	
0.409713	
0.394115	
0.376187	
0.351399	
0.321497	
0.289071	
0.261953	
0.242083	
0.226938	
0.21477	
0.200855	
0.181374	
0.155161	
0.121571	
0.0841611	
0.0433862	
0.000799082	
-0.0428883	
-0.0874171	
-0.129292	
-0.168061	
-0.203399	
-0.235695	
-0.264367	
-0.286179	
-0.305142	
-0.321258	
-0.336597	
-0.350707	
-0.363004	
-0.376531	
-0.393164	
-0.409733	
-0.419765	
-0.408827	
-0.349865	
-0.2322	
-0.0727252	
0.0989825	
0.254769	
0.369456	
0.443887	
0.479484	
0.483173	
0.473594	
0.46052	
0.444534	
0.423564	
0.396575	
0.362855	
0.328099	
0.295414	
0.268684	
0.246419	
0.229139	
0.214058	
0.194448	
0.166617	
0.131797	
0.0917984	
0.0496643	
0.00422935	
-0.0419175	
-0.0880644	
-0.132658	
-0.172786	
-0.209871	
-0.244886	
-0.276082	
-0.299965	
-0.319705	
-0.337568	
-0.353684	
-0.368117	
-0.383068	
-0.399183	
-0.416723	
-0.428567	
-0.420153	
-0.360221	
-0.242297	
-0.0788738	
0.0980764	
0.259623	
0.381689	
0.458578	
0.494823	
0.49903	
0.485115	
0.465245	
0.443434	
0.416703	
0.381753	
0.342467	
0.302016	
0.264347	
0.236064	
0.215159	
0.197231	
0.179562	
0.159951	
0.134062	
0.0992414	
0.058337	
0.0138082	
-0.0342803	
-0.0819158	
-0.128192	
-0.174339	
-0.215502	
-0.252135	
-0.284884	
-0.312521	
-0.336662	
-0.357956	
-0.376531	
-0.392647	
-0.406691	
-0.422289	
-0.439441	
-0.454586	
-0.454521	
-0.413228	
-0.31375	
-0.160877	
0.0185977	
0.191665	
0.331464	
0.422528	
0.46861	
0.47929	
0.467963	
0.445828	
0.42091	
0.395604	
0.365767	
0.329393	
0.290107	
0.253345	
0.223637	
0.200078	
0.181115	
0.163899	
0.143641	
0.118011	
0.0864911	
0.0511529	
0.0107663	
-0.0328564	
-0.0765438	
-0.119002	
-0.161136	
-0.202234	
-0.24055	
-0.275694	
-0.305854	
-0.331549	
-0.352842	
-0.372583	
-0.392582	
-0.410122	
-0.427467	
-0.446884	
-0.464229	
-0.467659	
-0.428179	
-0.327601	
-0.173951	
0.00953657	
0.185128	
0.322468	
0.411137	
0.456054	
0.466216	
0.454113	
0.433013	
0.410231	
0.384536	
0.35101	
0.310235	
0.267131	
0.231274	
0.203962	
0.18351	
0.169918	
0.157944	
0.138657	
0.112056	
0.0819606	
0.045069	
0.00248186	
-0.0406878	
-0.0848283	
-0.125409	
-0.165084	
-0.201781	
-0.235048	
-0.265015	
-0.293363	
-0.317181	
-0.336274	
-0.35459	
-0.372712	
-0.392129	
-0.413293	
-0.43491	
-0.45355	
-0.453679	
-0.410316	
-0.302942	
-0.139713	
0.0463634	
0.216324	
0.345056	
0.430295	
0.470293	
0.478513	
0.464468	
0.440845	
0.415021	
0.388031	
0.351916	
0.311595	
0.268166	
0.229721	
0.198396	
0.174966	
0.156974	
0.138981	
0.118334	
0.0924456	
0.0592431	
0.0195038	
-0.0246367	
-0.0694891	
-0.114277	
-0.160294	
-0.202622	
-0.239708	
-0.272717	
-0.302748	
-0.331678	
-0.359509	
-0.385462	
-0.40818	
-0.429279	
-0.446301	
-0.461446	
-0.474326	
-0.48617	
-0.498467	
-0.512382	
-0.527333	
-0.544161	
-0.558012	
-0.557882	
-0.511023	
-0.392776	
-0.207736	
0.0132257	
0.219107	
0.378647	
0.480519	
0.532038	
0.546018	
0.533397	
0.509062	
0.482073	
0.452689	
0.417156	
0.377611	
0.336318	
0.298715	
0.267001	
0.240336	
0.220272	
0.204026	
0.18351	
0.155873	
0.122088	
0.082802	
0.039956	
-0.00314897	
-0.048778	
-0.0955721	
-0.141201	
-0.183335	
-0.220227	
-0.25207	
-0.281195	
-0.305854	
-0.325077	
-0.34184	
-0.355302	
-0.366564	
-0.380802	
-0.39776	
-0.416917	
-0.43737	
-0.456721	
-0.473873	
-0.480345	
-0.447207	
-0.347147	
-0.186118	
0.0117371	
0.202214	
0.354505	
0.45832	
0.512557	
0.525825	
0.512104	
0.483885	
0.4512	
0.419227	
0.383177	
0.341755	
0.295738	
0.253604	
0.220013	
0.197619	
0.179108	
0.160533	
0.140146	
0.112509	
0.0778831	
0.0378848	
-0.00651451	
-0.0531144	
-0.0992613	
-0.143855	
-0.186248	
-0.223722	
-0.258866	
-0.290774	
-0.318151	
-0.34294	
-0.364104	
-0.383715	
-0.400931	
-0.415752	
-0.430056	
-0.441576	
-0.455298	
-0.469536	
-0.483581	
-0.499956	
-0.517042	
-0.533158	
-0.549015	
-0.56073	
-0.549921	
-0.482934	
-0.338668	
-0.13104	
0.0962642	
0.297615	
0.447187	
0.537798	
0.576696	
0.577214	
0.552749	
0.520971	
0.485115	
0.448611	
0.412043	
0.371851	
0.331853	
0.29632	
0.267907	
0.248361	
0.233799	
0.218589	
0.198266	
0.171212	
0.137363	
0.0989825	
0.0550362	
0.00720657	
-0.0415292	
-0.0898119	
-0.135506	
-0.175957	
-0.21246	
-0.245404	
-0.27427	
-0.298411	
-0.320223	
-0.337568	
-0.351872	
-0.365334	
-0.377696	
-0.38954	
-0.401255	
-0.413034	
-0.425849	
-0.444036	
-0.461123	
-0.478921	
-0.499309	
-0.517237	
-0.519114	
-0.470119	
-0.346888	
-0.155764	
0.0683042	
0.277292	
0.439291	
0.544012	
0.596048	
0.604397	
0.584334	
0.551972	
0.519741	
0.489257	
0.453918	
0.411267	
0.366479	
0.32428	
0.290884	
0.267131	
0.249461	
0.233022	
0.21477	
0.1916	
0.160469	
0.122153	
0.0796953	
0.0340015	
-0.016417	
-0.0691655	
-0.117383	
-0.162948	
-0.203205	
-0.239579	
-0.270192	
-0.29414	
-0.31375	
-0.331549	
-0.344817	
-0.357049	
-0.366175	
-0.37556	
-0.38721	
-0.400478	
-0.416529	
-0.435946	
-0.455039	
-0.474455	
-0.492577	
-0.499503	
-0.473226	
-0.378731	
-0.211036	
0.00539435	
0.220272	
0.398387	
0.523171	
0.591453	
0.612035	
0.598378	
0.568412	
0.535274	
0.50259	
0.467381	
0.422787	
0.373469	
0.330558	
0.295414	
0.265771	
0.24629	
0.231469	
0.215223	
0.193218	
0.164805	
0.12759	
0.0846142	
0.0406032	
-0.00632035	
-0.0540853	
-0.101332	
-0.143208	
-0.181976	
-0.217638	
-0.248057	
-0.272522	
-0.293881	
-0.309414	
-0.321711	
-0.333361	
-0.344299	
-0.356661	
-0.367599	
-0.380155	
-0.39763	
-0.417694	
-0.436787	
-0.442353	
-0.404361	
-0.298994	
-0.127545	
0.0741939	
0.269007	
0.424211	
0.525889	
0.574107	
0.580709	
0.559351	
0.525825	
0.494046	
0.460844	
0.421234	
0.372239	
0.323503	
0.282405	
0.251338	
0.227391	
0.211081	
0.198201	
0.181892	
0.158656	
0.126748	
0.0893389	
0.0477873	
0.000475472	
-0.04949	
-0.0975138	
-0.145408	
-0.189678	
-0.227605	
-0.258219	
-0.284172	
-0.30566	
-0.321582	
-0.331549	
-0.343134	
-0.353749	
-0.365722	
-0.378408	
-0.391223	
-0.401837	
-0.395883	
-0.347859	
-0.236343	
-0.0683241	
0.123512	
0.302922	
0.440586	
0.523106	
0.554432	
0.548477	
0.520194	
0.482849	
0.444404	
0.405312	
0.363631	
0.31496	
0.267972	
0.230368	
0.201696	
0.181827	
0.169012	
0.157362	
0.144094	
0.123059	
0.0928986	
0.0534181	
0.00675352	
-0.0421117	
-0.0913005	
-0.139454	
-0.182818	
-0.221327	
-0.252458	
-0.278218	
-0.299188	
-0.314915	
-0.330708	
-0.347276	
-0.364298	
-0.377307	
-0.388181	
-0.396206	
-0.386369	
-0.334397	
-0.219774	
-0.0478719	
0.147006	
0.328228	
0.466604	
0.55016	
0.583751	
0.579997	
0.552943	
0.516181	
0.479678	
0.441427	
0.392627	
0.336513	
0.281046	
0.236258	
0.205968	
0.183963	
0.167976	
0.153867	
0.133932	
0.106037	
0.0700517	
0.0253288	
-0.024572	
-0.0766085	
-0.126574	
-0.172462	
-0.213043	
-0.248381	
-0.278995	
-0.303524	
-0.324947	
-0.34527	
-0.363716	
-0.380479	
-0.395041	
-0.410057	
-0.42339	
-0.42682	
-0.398342	
-0.310514	
-0.159194	
0.031801	
0.222343	
0.38143	
0.48861	
0.5455	
0.560516	
0.546018	
0.519935	
0.489839	
0.456378	
0.414373	
0.362401	
0.303699	
0.249332	
0.205968	
0.175031	
0.150307	
0.128561	
0.108108	
0.0833845	
0.0521884	
0.0123196	
-0.0329211	
-0.0847635	
-0.138742	
-0.189613	
-0.236407	
-0.278865	
-0.316922	
-0.350059	
-0.378019	
-0.401708	
-0.422289	
-0.438599	
-0.44999	
-0.457692	
-0.463517	
-0.468566	
-0.476203	
-0.485587	
-0.496202	
-0.507464	
-0.516654	
-0.505457	
-0.437758	
-0.296923	
-0.0962841	
0.126684	
0.326416	
0.472364	
0.556374	
0.587893	
0.583298	
0.56071	
0.530485	
0.498059	
0.46395	
0.422464	
0.370233	
0.31606	
0.266677	
0.226809	
0.196972	
0.173672	
0.152055	
0.127201	
0.0928986	
0.0506998	
0.00248186	
-0.0486486	
-0.104504	
-0.158158	
-0.208318	
-0.2544	
-0.294204	
-0.33019	
-0.360997	
-0.38721	
-0.408827	
-0.425849	
-0.438858	
-0.447337	
-0.453679	
-0.461705	
-0.468566	
-0.479504	
-0.490312	
-0.502933	
-0.515813	
-0.526557	
-0.518402	
-0.459699	
-0.331096	
-0.143984	
0.0626087	
0.253992	
0.399552	
0.486474	
0.519288	
0.513592	
0.490745	
0.459096	
0.425764	
0.387125	
0.339749	
0.286935	
0.235481	
0.18817	
0.151666	
0.125066	
0.105325	
0.0890153	
0.0684337	
0.0406032	
0.00597685	
-0.0373222	
-0.0850871	
-0.136735	
-0.185924	
-0.230841	
-0.274723	
-0.31265	
-0.346564	
-0.376337	
-0.402484	
-0.424296	
-0.4419	
-0.453615	
-0.463582	
-0.473096	
-0.481704	
-0.490183	
-0.499891	
-0.511153	
-0.523191	
-0.527527	
-0.50591	
-0.430638	
-0.290709	
-0.107287	
0.0851967	
0.251468	
0.368874	
0.43379	
0.45243	
0.440845	
0.414438	
0.384342	
0.354246	
0.317678	
0.271855	
0.223249	
0.17872	
0.143058	
0.118334	
0.101054	
0.0894036	
0.0765239	
0.0575604	
0.0329012	
-0.000365915	
-0.0398464	
-0.083728	
-0.130393	
-0.178546	
-0.225275	
-0.265727	
-0.297829	
-0.32773	
-0.351354	
-0.369476	
-0.383909	
-0.395818	
-0.40708	
-0.416011	
-0.422807	
-0.433227	
-0.448049	
-0.463323	
-0.471672	
-0.454327	
-0.383456	
-0.249352	
-0.0683888	
0.121635	
0.286353	
0.402853	
0.470876	
0.4967	
0.490163	
0.467445	
0.437738	
0.405247	
0.368679	
0.326869	
0.28467	
0.244089	
0.208816	
0.183639	
0.166229	
0.15199	
0.135939	
0.114322	
0.0871384	
0.0538712	
0.0135493	
-0.0338272	
-0.0824335	
-0.128904	
-0.172333	
-0.215179	
-0.252458	
-0.285337	
-0.315239	
-0.338151	
-0.356079	
-0.370447	
-0.381903	
-0.393294	
-0.405591	
-0.420542	
-0.439894	
-0.458469	
-0.473743	
-0.475879	
-0.437305	
-0.331355	
-0.161459	
0.0420918	
0.237294	
0.393727	
0.498512	
0.555144	
0.574431	
0.567053	
0.544335	
0.514951	
0.481814	
0.444469	
0.399617	
0.352693	
0.310235	
0.274703	
0.248555	
0.229203	
0.212311	
0.192053	
0.1672	
0.134644	
0.0961995	
0.0534181	
0.00558852	
-0.0458008	
-0.0966077	
-0.143013	
-0.184824	
-0.220033	
-0.249611	
-0.274205	
-0.296534	
-0.315627	
-0.331549	
-0.348247	
-0.366952	
-0.384297	
-0.404038	
-0.420477	
-0.432515	
-0.422807	
-0.361062	
-0.234142	
-0.0530497	
0.145971	
0.324604	
0.458061	
0.537734	
0.573266	
0.574043	
0.551714	
0.521229	
0.488221	
0.452883	
0.409584	
0.359165	
0.313472	
0.274897	
0.242277	
0.218783	
0.202732	
0.185387	
0.164934	
0.138981	
0.106814	
0.0661684	
0.0196979	
-0.0292967	
-0.0775794	
-0.121332	
-0.163595	
-0.20204	
-0.237896	
-0.268315	
-0.292327	
-0.315304	
-0.335756	
-0.353296	
-0.367923	
-0.38378	
-0.403002	
-0.421124	
-0.436981	
-0.438793	
-0.400866	
-0.297635	
-0.133111	
0.0665567	
0.258717	
0.411137	
0.51178	
0.561228	
0.570483	
0.551002	
0.520518	
0.486862	
0.450941	
0.406995	
0.358906	
0.310688	
0.267907	
0.234381	
0.211987	
0.194836	
0.179497	
0.162087	
0.137104	
0.105649	
0.0692103	
0.0262349	
-0.0185528	
-0.0656705	
-0.111494	
-0.15421	
-0.195697	
-0.233171	
-0.266827	
-0.294463	
-0.317569	
-0.336338	
-0.353554	
-0.372647	
-0.389669	
-0.40585	
-0.423066	
-0.440865	
-0.45355	
-0.445007	
-0.383844	
-0.252717	
-0.0707188	
0.131797	
0.311789	
0.446799	
0.526601	
0.559416	
0.559674	
0.535598	
0.503237	
0.467575	
0.427965	
0.378841	
0.328875	
0.282534	
0.243831	
0.217877	
0.203185	
0.191276	
0.178397	
0.159821	
0.134644	
0.100471	
0.0609906	
0.0170443	
-0.0314972	
-0.0795858	
-0.125992	
-0.170067	
-0.210001	
-0.24521	
-0.272652	
-0.295305	
-0.316857	
-0.336209	
-0.352584	
-0.36844	
-0.385139	
-0.400478	
-0.416529	
-0.422807	
-0.3964	
-0.307472	
-0.15544	
0.0350371	
0.224349	
0.377999	
0.481814	
0.536698	
0.546924	
0.525695	
0.490098	
0.449841	
0.409843	
0.361819	
0.311012	
0.262471	
0.221178	
0.189658	
0.169724	
0.157038	
0.148042	
0.135292	
0.115357	
0.0866206	
0.0505057	
0.00791851	
-0.0376458	
-0.0850871	
-0.133952	
-0.181329	
-0.22424	
-0.262555	
-0.294463	
-0.318928	
-0.340998	
-0.360156	
-0.378278	
-0.394523	
-0.411675	
-0.428567	
-0.439505	
-0.431545	
-0.376531	
-0.25906	
-0.0889705	
0.0978822	
0.264024	
0.385119	
0.456702	
0.484014	
0.477672	
0.453854	
0.422075	
0.386025	
0.348163	
0.30098	
0.249591	
0.201696	
0.160986	
0.128366	
0.108108	
0.09607	
0.0830609	
0.064162	
0.0393735	
0.00707713	
-0.0310442	
-0.0733077	
-0.120296	
-0.16586	
-0.211425	
-0.2555	
-0.29058	
-0.319511	
-0.345594	
-0.3709	
-0.394394	
-0.416917	
-0.435946	
-0.45245	
-0.467206	
-0.481834	
-0.48617	
-0.456851	
-0.364881	
-0.21369	
-0.024572	
0.163252	
0.315607	
0.420522	
0.473659	
0.489127	
0.478837	
0.455148	
0.427706	
0.395669	
0.354894	
0.305058	
0.255934	
0.211664	
0.177167	
0.15322	
0.135097	
0.118658	
0.101636	
0.0811192	
0.0545831	
0.0208629	
-0.0192	
-0.0644408	
-0.110847	
-0.155699	
-0.195179	
-0.231165	
-0.265015	
-0.296793	
-0.322876	
-0.345529	
-0.364751	
-0.383521	
-0.403455	
-0.420736	
-0.437693	
-0.450961	
-0.444683	
-0.393423	
-0.280289	
-0.109552	
0.0845495	
0.262017	
0.397934	
0.483238	
0.524595	
0.528931	
0.512039	
0.485179	
0.45366	
0.416703	
0.371786	
0.322856	
0.273344	
0.229268	
0.196454	
0.174254	
0.15885	
0.143252	
0.123318	
0.0970408	
0.0624792	
0.0226752	
-0.0204945	
-0.0663177	
-0.116218	
-0.163919	
-0.205923	
-0.244045	
-0.276276	
-0.30113	
-0.321064	
-0.339898	
-0.357697	
-0.377049	
-0.39776	
-0.41983	
-0.437564	
-0.450767	
-0.440994	
-0.381126	
-0.258348	
-0.0856696	
0.105714	
0.274703	
0.398775	
0.473659	
0.505308	
0.503366	
0.482073	
0.451977	
0.419745	
0.379812	
0.332241	
0.281758	
0.234058	
0.194771	
0.165323	
0.146035	
0.132379	
0.118464	
0.0998886	
0.0739998	
0.0406032	
8.71393E-05	
-0.0442475	
-0.0911063	
-0.136153	
-0.180746	
-0.222557	
-0.257766	
-0.287991	
-0.312326	
-0.331484	
-0.350836	
-0.369605	
-0.387663	
-0.402225	
-0.413099	
-0.414458	
-0.385721	
-0.301777	
-0.156735	
0.024811	
0.205515	
0.355023	
0.453854	
0.504855	
0.512945	
0.495535	
0.464921	
0.429648	
0.391656	
0.346286	
0.294832	
0.242471	
0.196195	
0.160986	
0.136392	
0.1206	
0.10882	
0.0938047	
0.0737409	
0.0432568	
0.00630046	
-0.0362867	
-0.0817863	
-0.129422	
-0.174015	
-0.216732	
-0.255953	
-0.289674	
-0.316274	
-0.338927	
-0.359703	
-0.378343	
-0.396465	
-0.412516	
-0.424037	
-0.4197	
-0.378602	
-0.278218	
-0.124179	
0.0557481	
0.227585	
0.362337	
0.447187	
0.484985	
0.485891	
0.46395	
0.430619	
0.393792	
0.352628	
0.305899	
0.254251	
0.19982	
0.150307	
0.113027	
0.0850025	
0.0650034	
0.0499232	
0.0317362	
0.00856573	
-0.0213359	
-0.0567389	
-0.0980963	
-0.14489	
-0.192137	
-0.237896	
-0.277894	
-0.312715	
-0.343458	
-0.370447	
-0.393812	
-0.414393	
-0.43135	
-0.447855	
-0.461446	
-0.475297	
-0.490118	
-0.50125	
-0.490571	
-0.430509	
-0.307731	
-0.1346	
0.047399	
0.205321	
0.32072	
0.38719	
0.412108	
0.407966	
0.385572	
0.355994	
0.321756	
0.281369	
0.233022	
0.18118	
0.132962	
0.0923809	
0.0618967	
0.0414446	
0.025976	
0.010378	
-0.00644979	
-0.0289084	
-0.0593925	
-0.0951838	
-0.134082	
-0.178481	
-0.22191	
-0.262426	
-0.299058	
-0.331937	
-0.360739	
-0.38831	
-0.412257	
-0.435363	
-0.453226	
-0.467336	
-0.479309	
-0.490312	
-0.499438	
-0.511412	
-0.524874	
-0.540731	
-0.554646	
-0.544614	
-0.480733	
-0.352195	
-0.173627	
0.0220927	
0.195289	
0.322662	
0.400523	
0.435732	
0.438062	
0.421622	
0.398257	
0.371916	
0.339425	
0.29645	
0.24629	
0.201891	
0.16597	
0.139628	
0.122541	
0.109467	
0.0956817	
0.0767181	
0.0506351	
0.0197627	
-0.0149284	
-0.0531791	
-0.0944718	
-0.134664	
-0.172786	
-0.210972	
-0.245145	
-0.277959	
-0.308119	
-0.332455	
-0.351483	
-0.366046	
-0.381061	
-0.393941	
-0.408698	
-0.422613	
-0.436528	
-0.447855	
-0.444813	
-0.40475	
-0.309673	
-0.165019	
0.00520019	
0.168235	
0.300333	
0.386996	
0.430683	
0.438709	
0.425311	
0.399681	
0.371009	
0.338195	
0.298068	
0.253733	
0.21134	
0.175355	
0.149854	
0.131344	
0.11704	
0.106684	
0.0920572	
0.0708931	
0.0428684	
0.00979545	
-0.0268373	
-0.0672238	
-0.110135	
-0.154599	
-0.195827	
-0.23576	
-0.268574	
-0.296599	
-0.321193	
-0.343522	
-0.361062	
-0.376401	
-0.390575	
-0.404879	
-0.418406	
-0.425978	
-0.410186	
-0.35116	
-0.236343	
-0.0780972	
0.0941283	
0.252697	
0.373534	
0.447576	
0.477995	
0.479419	
0.463821	
0.43845	
0.407319	
0.368809	
0.320397	
0.273732	
0.232051	
0.199431	
0.178138	
0.164028	
0.154902	
0.146942	
0.132573	
0.112121	
0.0823489	
0.0477226	
0.0087599	
-0.0335684	
-0.0793916	
-0.124891	
-0.167996	
-0.206376	
-0.238025	
-0.264238	
-0.286696	
-0.307278	
-0.327795	
-0.343976	
-0.357502	
-0.367534	
-0.361774	
-0.316598	
-0.217444	
-0.0699422	
0.0999533	
0.262794	
0.392627	
0.478578	
0.517476	
0.52233	
0.505955	
0.477801	
0.445375	
0.404665	
0.355994	
0.306676	
0.260982	
0.223443	
0.197748	
0.180209	
0.17063	
0.16118	
0.145712	
0.124483	
0.0955522	
0.0616379	
0.0211865	
-0.022242	
-0.0699422	
-0.116995	
-0.161071	
-0.200875	
-0.234725	
-0.26249	
-0.287214	
-0.310967	
-0.332649	
-0.352131	
-0.370447	
-0.386239	
-0.393229	
-0.376595	
-0.30922	
-0.182429	
-0.0125984	
0.17283	
0.340914	
0.464274	
0.536439	
0.563364	
0.558445	
0.534498	
0.505696	
0.471588	
0.429777	
0.38376	
0.337678	
0.295867	
0.262212	
0.234575	
0.216324	
0.204738	
0.192118	
0.173866	
0.147783	
0.111409	
0.0705048	
0.0269468	
-0.0170642	
-0.0652822	
-0.114536	
-0.161653	
-0.202881	
-0.239449	
-0.272587	
-0.299706	
-0.322682	
-0.344299	
-0.364428	
-0.38242	
-0.396853	
-0.40708	
-0.399378	
-0.351742	
-0.245339	
-0.0846988	
0.102413	
0.279687	
0.416509	
0.500907	
0.538381	
0.539546	
0.520129	
0.493723	
0.459549	
0.419681	
0.374634	
0.32538	
0.282211	
0.246419	
0.216971	
0.197943	
0.187393	
0.177296	
0.162604	
0.140081	
0.110503	
0.0730289	
0.0311537	
-0.0172584	
-0.0648938	
-0.112335	
-0.161006	
-0.205923	
-0.245274	
-0.282554	
-0.315692	
-0.340481	
-0.36281	
-0.384492	
-0.404879	
-0.423066	
-0.437628	
-0.443583	
-0.418082	
-0.337309	
-0.195827	
-0.0138281	
0.175355	
0.335153	
0.44434	
0.502654	
0.520776	
0.509644	
0.485503	
0.452883	
0.412755	
0.364343	
0.311918	
0.259946	
0.216518	
0.183639	
0.163705	
0.152055	
0.141958	
0.128884	
0.109532	
0.0833198	
0.0498584	
0.0125138	
-0.0293614	
-0.074408	
-0.118031	
-0.158935	
-0.200357	
-0.241715	
-0.280613	
-0.314786	
-0.341969	
-0.363651	
-0.383132	
-0.399119	
-0.414523	
-0.428438	
-0.434651	
-0.41737	
-0.346435	
-0.216085	
-0.0408819	
0.14843	
0.314895	
0.432431	
0.499095	
0.521941	
0.51288	
0.487315	
0.455731	
0.419486	
0.375605	
0.323115	
0.271467	
0.228103	
0.195613	
0.174384	
0.162087	
0.152184	
0.139563	
0.121441	
0.0963289	
0.0633854	
0.0246815	
-0.018035	
-0.0626933	
-0.107869	
-0.150651	
-0.190778	
-0.227864	
-0.260096	
-0.286891	
-0.310126	
-0.332455	
-0.354072	
-0.375625	
-0.398472	
-0.413487	
-0.412322	
-0.371547	
-0.268768	
-0.108711	
0.0772359	
0.252568	
0.391526	
0.481814	
0.526472	
0.534303	
0.519353	
0.492622	
0.458384	
0.416962	
0.365896	
0.312889	
0.261564	
0.219948	
0.190176	
0.169077	
0.155679	
0.140987	
0.121376	
0.0980117	
0.0695987	
0.0323835	
-0.0112392	
-0.0591336	
-0.106381	
-0.153887	
-0.197186	
-0.236731	
-0.272781	
-0.302618	
-0.325336	
-0.343587	
-0.357632	
-0.369476	
-0.38365	
-0.399442	
-0.41737	
-0.436593	
-0.456527	
-0.467271	
-0.447725	
-0.36734	
-0.218479	
-0.027355	
0.164352	
0.324215	
0.439097	
0.503949	
0.523495	
0.513333	
0.48958	
0.460714	
0.425441	
0.383048	
0.334247	
0.283829	
0.238782	
0.203703	
0.178138	
0.161569	
0.148948	
0.131667	
0.107526	
0.0772359	
0.0395029	
-0.00612618	
-0.055315	
-0.103598	
-0.153175	
-0.197768	
-0.239385	
-0.2755	
-0.30566	
-0.332649	
-0.354137	
-0.369605	
-0.385398	
-0.399766	
-0.41284	
-0.424166	
-0.436334	
-0.448502	
-0.458145	
-0.45012	
-0.396206	
-0.281713	
-0.118095	
0.062544	
0.230109	
0.357806	
0.437738	
0.471199	
0.467445	
0.444404	
0.413532	
0.379553	
0.340525	
0.292502	
0.239947	
0.192053	
0.151537	
0.122477	
0.102995	
0.0894036	
0.0784009	
0.0633206	
0.0402796	
0.0087599	
-0.0302675	
-0.0749905	
-0.121914	
-0.168643	
-0.213431	
-0.252135	
-0.28715	
-0.317116	
-0.34417	
-0.366175	
-0.384103	
-0.398536	
-0.407921	
-0.414134	
-0.419895	
-0.42669	
-0.435816	
-0.447984	
-0.463517	
-0.480021	
-0.490959	
-0.473484	
-0.400284	
-0.260484	
-0.0718191	
0.124224	
0.296385	
0.424082	
0.499353	
0.528478	
0.524077	
0.500389	
0.470552	
0.434372	
0.389391	
0.339684	
0.291078	
0.24752	
0.214382	
0.191665	
0.177167	
0.163769	
0.147654	
0.126748	
0.0987883	
0.0644856	
0.0229988	
-0.022242	
-0.0696186	
-0.11583	
-0.160747	
-0.202752	
-0.239255	
-0.271746	
-0.296923	
-0.315433	
-0.329801	
-0.342422	
-0.354072	
-0.367211	
-0.379961	
-0.392711	
-0.405979	
-0.418082	
-0.411028	
-0.361127	
-0.2522	
-0.0922066	
0.0899214	
0.257681	
0.386866	
0.466151	
0.497412	
0.494888	
0.46874	
0.434308	
0.396251	
0.351269	
0.299233	
0.245578	
0.197748	
0.159951	
0.133609	
0.117493	
0.108367	
0.0972997	
0.0840317	
0.062997	
0.0337426	
-0.00424924	
-0.0479367	
-0.0949896	
-0.14146	
-0.185342	
-0.225469	
-0.260872	
-0.292198	
-0.316339	
-0.33595	
-0.350642	
-0.364751	
-0.380285	
-0.393812	
-0.404491	
-0.413422	
-0.417823	
-0.398795	
-0.329607	
-0.203076	
-0.0323386	
0.148754	
0.307711	
0.422593	
0.485632	
0.505502	
0.493399	
0.46065	
0.420457	
0.379747	
0.333924	
0.282017	
0.226291	
0.17652	
0.138334	
0.110956	
0.0941283	
0.0833845	
0.0751648	
0.062544	
0.0393735	
0.00727129	
-0.0317561	
-0.0738255	
-0.119066	
-0.166702	
-0.212137	
-0.254012	
-0.290127	
-0.320093	
-0.34417	
-0.362745	
-0.377049	
-0.389928	
-0.401255	
-0.411545	
-0.422095	
-0.431868	
-0.439117	
-0.431221	
-0.386627	
-0.280483	
-0.118095	
0.0742587	
0.258458	
0.403824	
0.496117	
0.535209	
0.532621	
0.507055	
0.471264	
0.432949	
0.389585	
0.340461	
0.287842	
0.237553	
0.194253	
0.164158	
0.145388	
0.134385	
0.122736	
0.109144	
0.0894684	
0.0584018	
0.0195685	
-0.022695	
-0.0687772	
-0.116024	
-0.161459	
-0.205341	
-0.24521	
-0.281648	
-0.311291	
-0.331873	
-0.347535	
-0.360674	
-0.368052	
-0.375236	
-0.380608	
-0.388763	
-0.397371	
-0.40818	
-0.419247	
-0.425202	
-0.399572	
-0.313556	
-0.163142	
0.0292121	
0.223119	
0.385572	
0.496506	
0.554044	
0.565241	
0.545436	
0.512104	
0.477607	
0.438062	
0.389455	
0.332435	
0.275221	
0.227326	
0.190629	
0.167005	
0.15309	
0.143252	
0.131344	
0.114127	
0.0856498	
0.0479168	
0.00390574	
-0.0443769	
-0.0960252	
-0.145796	
-0.192202	
-0.232459	
-0.26495	
-0.29401	
-0.32074	
-0.341904	
-0.36158	
-0.375884	
-0.386045	
-0.392194	
-0.398989	
-0.405915	
-0.414652	
-0.427143	
-0.439311	
-0.451026	
-0.457045	
-0.441123	
-0.374719	
-0.242297	
-0.0575155	
0.144353	
0.322274	
0.450812	
0.526278	
0.550678	
0.535468	
0.4989	
0.457219	
0.415279	
0.368485	
0.31975	
0.268166	
0.220725	
0.183121	
0.156779	
0.139822	
0.129272	
0.118399	
0.101895	
0.0792423	
0.0480462	
0.00746546	
-0.0375811	
-0.084181	
-0.130587	
-0.17408	
-0.214078	
-0.25207	
-0.285078	
-0.314398	
-0.336468	
-0.350318	
-0.360933	
-0.367405	
-0.371547	
-0.377372	
-0.389928	
-0.401449	
-0.41407	
-0.424619	
-0.428503	
-0.40119	
-0.316663	
-0.172333	
0.00947184	
0.191406	
0.341626	
0.443045	
0.492105	
0.499353	
0.480972	
0.445958	
0.404665	
0.361236	
0.314313	
0.263506	
0.213476	
0.17296	
0.143641	
0.128107	
0.120794	
0.115487	
0.108108	
0.093287	
0.0714109	
0.0400207	
0.00189936	
-0.0406878	
-0.0866405	
-0.132399	
-0.175116	
-0.213107	
-0.245857	
-0.27181	
-0.292133	
-0.309414	
-0.323006	
-0.335173	
-0.344752	
-0.356143	
-0.369152	
-0.383262	
-0.396271	
-0.400737	
-0.366887	
-0.272069	
-0.115765	
0.0723817	
0.25561	
0.405506	
0.506667	
0.555791	
0.562393	
0.542782	
0.508997	
0.472364	
0.433272	
0.38842	
0.337483	
0.287389	
0.244413	
0.210499	
0.189723	
0.175613	
0.165387	
0.152508	
0.13322	
0.105649	
0.0727701	
0.0315421	
-0.0166759	
-0.0669002	
-0.116348	
-0.160877	
-0.201975	
-0.240355	
-0.272717	
-0.298088	
-0.315821	
-0.328183	
-0.33718	
-0.346435	
-0.356726	
-0.369994	
-0.387145	
-0.405915	
-0.423066	
-0.42682	
-0.387663	
-0.280418	
-0.106769	
0.0972997	
0.291207	
0.444987	
0.544076	
0.588605	
0.591324	
0.570095	
0.537475	
0.500842	
0.462268	
0.416703	
0.363308	
0.308941	
0.262276	
0.22642	
0.203897	
0.189076	
0.176714	
0.162087	
0.142346	
0.111021	
0.0706342	
0.0266232	
-0.0217889	
-0.0724016	
-0.121396	
-0.168773	
-0.213302	
-0.252329	
-0.284366	
-0.310967	
-0.330902	
-0.347988	
-0.362292	
-0.369929	
-0.374589	
-0.382679	
-0.391935	
-0.404038	
-0.417759	
-0.43381	
-0.452515	
-0.472255	
-0.482546	
-0.451997	
-0.351095	
-0.178028	
0.041574	
0.263053	
0.447187	
0.572684	
0.636694	
0.652356	
0.636435	
0.60265	
0.564011	
0.520906	
0.4723	
0.417092	
0.36169	
0.312436	
0.27425	
0.247714	
0.231728	
0.223378	
0.21134	
0.190823	
0.161439	
0.12293	
0.0771064	
0.0257818	
-0.0272903	
-0.0789385	
-0.130457	
-0.176151	
-0.219191	
-0.256407	
-0.287538	
-0.313297	
-0.333555	
-0.347988	
-0.359638	
-0.369864	
-0.379184	
-0.39064	
-0.406044	
-0.424425	
-0.443195	
-0.462546	
-0.468048	
-0.431027	
-0.324559	
-0.152139	
0.0595667	
0.26726	
0.434825	
0.548542	
0.605692	
0.615077	
0.591712	
0.549772	
0.50136	
0.452818	
0.402917	
0.346933	
0.290948	
0.244737	
0.213411	
0.19393	
0.18228	
0.175031	
0.165646	
0.148171	
0.118658	
0.0798248	
0.0333543	
-0.0151873	
-0.0649586	
-0.113759	
-0.163595	
-0.209354	
-0.249611	
-0.283978	
-0.31032	
-0.330578	
-0.347859	
-0.360286	
-0.369411	
-0.378408	
-0.387922	
-0.399054	
-0.410575	
-0.419118	
-0.421513	
-0.38488	
-0.279965	
-0.109293	
0.0938695	
0.293472	
0.45586	
0.56181	
0.60964	
0.611776	
0.580385	
0.535274	
0.48958	
0.442398	
0.38829	
0.331464	
0.278069	
0.233669	
0.205386	
0.191923	
0.185775	
0.181503	
0.174707	
0.157944	
0.130632	
0.0931575	
0.0479815	
-0.00172508	
-0.0535028	
-0.103403	
-0.151557	
-0.195309	
-0.231165	
-0.263008	
-0.287797	
-0.306825	
-0.322553	
-0.335173	
-0.345917	
-0.357632	
-0.368376	
-0.376854	
-0.375236	
-0.339769	
-0.24152	
-0.0800388	
0.118464	
0.318455	
0.483302	
0.593848	
0.646014	
0.649379	
0.619025	
0.575272	
0.527249	
0.478189	
0.422269	
0.359036	
0.298585	
0.249332	
0.211016	
0.18584	
0.174643	
0.167976	
0.158397	
0.141505	
0.113804	
0.0752295	
0.029924	
-0.0189412	
-0.0710424	
-0.124503	
-0.177381	
-0.223916	
-0.262232	
-0.291615	
-0.31608	
-0.333555	
-0.346176	
-0.357697	
-0.368958	
-0.380285	
-0.391935	
-0.402614	
-0.407274	
-0.383132	
-0.300741	
-0.150133	
0.0503115	
0.262471	
0.448094	
0.581615	
0.652486	
0.668537	
0.646402	
0.606727	
0.561228	
0.511715	
0.456443	
0.395474	
0.329717	
0.270302	
0.225579	
0.193218	
0.173154	
0.159692	
0.148883	
0.132444	
0.106037	
0.069534	
0.024811	
-0.0267078	
-0.0824983	
-0.137577	
-0.191361	
-0.240614	
-0.285596	
-0.323782	
-0.353878	
-0.378149	
-0.3964	
-0.408439	
-0.417176	
-0.422678	
-0.426626	
-0.433033	
-0.443842	
-0.456527	
-0.465329	
-0.452256	
-0.388051	
-0.249999	
-0.051108	
0.17419	
0.38363	
0.540193	
0.632422	
0.664718	
0.653263	
0.61786	
0.574625	
0.528155	
0.476895	
0.419422	
0.357288	
0.296903	
0.246484	
0.209204	
0.18448	
0.16817	
0.154255	
0.134321	
0.105714	
0.0677865	
0.0213807	
-0.0324034	
-0.0892294	
-0.143725	
-0.196992	
-0.24618	
-0.294204	
-0.334461	
-0.366046	
-0.391482	
-0.413228	
-0.428956	
-0.438988	
-0.44436	
-0.446819	
-0.449731	
-0.455556	
-0.46164	
-0.471154	
-0.484358	
-0.499309	
-0.513742	
-0.524097	
-0.512965	
-0.445719	
-0.299123	
-0.0858638	
0.153996	
0.375022	
0.542458	
0.641807	
0.677404	
0.666595	
0.629056	
0.579738	
0.529514	
0.473141	
0.408289	
0.343373	
0.283958	
0.234381	
0.197878	
0.173542	
0.158074	
0.144547	
0.125454	
0.099112	
0.0618967	
0.0147791	
-0.039005	
-0.0941482	
-0.150651	
-0.204046	
-0.251552	
-0.294398	
-0.332908	
-0.364492	
-0.392647	
-0.413681	
-0.42792	
-0.436916	
-0.440023	
-0.443648	
-0.44902	
-0.455751	
-0.463129	
-0.473873	
-0.487917	
-0.50138	
-0.508176	
-0.493095	
-0.426302	
-0.285402	
-0.0831455	
0.14377	
0.348551	
0.502525	
0.593136	
0.621031	
0.605303	
0.563169	
0.512816	
0.460326	
0.404341	
0.340137	
0.272632	
0.214123	
0.172507	
0.144612	
0.128625	
0.121571	
0.114257	
0.100601	
0.0796306	
0.049729	
0.0105721	
-0.0375811	
-0.0885821	
-0.14159	
-0.192526	
-0.238802	
-0.28249	
-0.321841	
-0.351419	
-0.369605	
-0.382097	
-0.39077	
-0.397436	
-0.40708	
-0.415493	
-0.424619	
-0.43614	
-0.445525	
-0.442418	
-0.393747	
-0.277959	
-0.100167	
0.112509	
0.317808	
0.481102	
0.584916	
0.62938	
0.627115	
0.595013	
0.549966	
0.500971	
0.449776	
0.389844	
0.321821	
0.259429	
0.20791	
0.173542	
0.153673	
0.141375	
0.133932	
0.1217	
0.0969761	
0.0622204	
0.0209277	
-0.0272256	
-0.0791327	
-0.132205	
-0.181523	
-0.227929	
-0.26948	
-0.307278	
-0.335756	
-0.356855	
-0.374395	
-0.389605	
-0.403455	
-0.415493	
-0.426237	
-0.437305	
-0.445007	
-0.448761	
-0.434133	
-0.368311	
-0.234142	
-0.0381636	
0.183186	
0.389973	
0.54673	
0.640706	
0.675009	
0.664006	
0.629186	
0.583169	
0.536245	
0.484661	
0.423434	
0.354958	
0.288489	
0.230045	
0.185257	
0.157944	
0.142929	
0.13225	
0.119564	
0.0982058	
0.0666862	
0.0265585	
-0.0239895	
-0.0802977	
-0.137512	
-0.192655	
-0.241909	
-0.286049	
-0.326436	
-0.36035	
-0.387339	
-0.409798	
-0.427726	
-0.441188	
-0.45122	
-0.456916	
-0.462352	
-0.468954	
-0.473226	
-0.47575	
-0.481639	
-0.490377	
-0.498532	
-0.508629	
-0.519955	
-0.531993	
-0.544873	
-0.556005	
-0.56183	
-0.537559	
-0.445525	
-0.259448	
-0.0035373	
0.275221	
0.524271	
0.710153	
0.815456	
0.850471	
0.837591	
0.796881	
0.745297	
0.693196	
0.642583	
0.586858	
0.522977	
0.460132	
0.406477	
0.366544	
0.340072	
0.320591	
0.302598	
0.278522	
0.246743	
0.203185	
0.149142	
0.0903097	
0.0280471	
-0.0346686	
-0.0942777	
-0.150456	
-0.200163	
-0.245792	
-0.287667	
-0.324688	
-0.354461	
-0.375495	
-0.39297	
-0.40339	
-0.410704	
-0.41407	
-0.416335	
-0.420607	
-0.431091	
-0.446107	
-0.463194	
-0.481251	
-0.498791	
-0.506946	
-0.481898	
-0.38611	
-0.212913	
0.0135493	
0.249397	
0.456119	
0.603168	
0.680705	
0.698892	
0.676368	
0.630804	
0.577991	
0.523236	
0.464403	
0.400782	
0.330688	
0.264865	
0.212958	
0.176973	
0.156003	
0.142864	
0.12869	
0.111409	
0.0857792	
0.0538712	
0.0123843	
-0.0373222	
-0.0939541	
-0.150521	
-0.206053	
-0.257118	
-0.304301	
-0.344234	
-0.376466	
-0.401578	
-0.420153	
-0.430768	
-0.436205	
-0.438988	
-0.441318	
-0.447337	
-0.454844	
-0.461576	
-0.467724	
-0.47452	
-0.461123	
-0.388504	
-0.23932	
-0.0305911	
0.200661	
0.408031	
0.559351	
0.645302	
0.670414	
0.651062	
0.605368	
0.546795	
0.48725	
0.425635	
0.361301	
0.293408	
0.231922	
0.187069	
0.15775	
0.143188	
0.13788	
0.135809	
0.12759	
0.10772	
0.0754884	
0.0329012	
-0.0188764	
-0.0754436	
-0.133823	
-0.19039	
-0.242103	
-0.286502	
-0.322423	
-0.349477	
-0.368505	
-0.383974	
-0.395818	
-0.403714	
-0.410639	
-0.417823	
-0.424296	
-0.430768	
-0.434004	
-0.419377	
-0.354072	
-0.218997	
-0.0201062	
0.209075	
0.426217	
0.593783	
0.695979	
0.736495	
0.728858	
0.691254	
0.638441	
0.582004	
0.523624	
0.460585	
0.391591	
0.326416	
0.270755	
0.231598	
0.20914	
0.198525	
0.189982	
0.17639	
0.15419	
0.118076	
0.0712814	
0.0171091	
-0.0427589	
-0.103403	
-0.162624	
-0.21712	
-0.265921	
-0.303201	
-0.332131	
-0.355884	
-0.376984	
-0.393294	
-0.407338	
-0.420865	
-0.433292	
-0.443777	
-0.449602	
-0.435493	
-0.36844	
-0.227929	
-0.0227598	
0.210434	
0.423693	
0.583622	
0.678181	
0.713907	
0.704264	
0.667437	
0.617601	
0.565111	
0.50958	
0.44544	
0.373663	
0.302922	
0.240206	
0.192635	
0.163446	
0.14623	
0.134321	
0.121247	
0.0966525	
0.0628676	
0.0181446	
-0.0362867	
-0.0954427	
-0.154405	
-0.212784	
-0.267345	
-0.315757	
-0.356855	
-0.388116	
-0.410963	
-0.427596	
-0.440088	
-0.449408	
-0.457692	
-0.46863	
-0.478662	
-0.490377	
-0.497108	
-0.482416	
-0.413358	
-0.265791	
-0.0507844	
0.190047	
0.409843	
0.573654	
0.667696	
0.697468	
0.686465	
0.651839	
0.608151	
0.556956	
0.499548	
0.432107	
0.357094	
0.283311	
0.221437	
0.176649	
0.148689	
0.131926	
0.119888	
0.104031	
0.0784656	
0.0383379	
-0.0124042	
-0.0694891	
-0.131299	
-0.192849	
-0.249805	
-0.303006	
-0.349995	
-0.389087	
-0.419247	
-0.441835	
-0.457563	
-0.470119	
-0.47918	
-0.490571	
-0.502027	
-0.509988	
-0.511088	
-0.481963	
-0.390446	
-0.226505	
-0.00832673	
0.223378	
0.423887	
0.562199	
0.634299	
0.651839	
0.633652	
0.594948	
0.545953	
0.491134	
0.423305	
0.343891	
0.262147	
0.188817	
0.130761	
0.0920572	
0.0723817	
0.0640973	
0.0570426	
0.0435804	
0.0198274	
-0.0161581	
-0.0620461	
-0.117254	
-0.17997	
-0.244304	
-0.304236	
-0.356079	
-0.398795	
-0.433745	
-0.461123	
-0.484228	
-0.504875	
-0.52235	
-0.534194	
-0.542284	
-0.544485	
-0.531929	
-0.478015	
-0.359185	
-0.176281	
0.0407326	
0.248296	
0.413985	
0.518899	
0.566535	
0.567829	
0.535921	
0.48382	
0.412237	
0.323245	
0.226679	
0.130955	
0.0522532	
-0.00308424	
-0.0341509	
-0.0431472	
-0.0383578	
-0.0333742	
-0.0340214	
-0.0454772	
-0.0676122	
-0.0994554	
-0.13803	
-0.17764	
-0.216408	
-0.249805	
-0.279706	
-0.303913	
-0.327536	
-0.349024	
-0.368764	
-0.388051	
-0.406303	
-0.422483	
-0.436334	
-0.446172	
-0.447207	
-0.417629	
-0.334073	
-0.19395	
-0.0129867	
0.173154	
0.327063	
0.429324	
0.47683	
0.472235	
0.422852	
0.340978	
0.235417	
0.117299	
0.00409991	
-0.0879349	
-0.149227	
-0.180229	
-0.181394	
-0.163724	
-0.140101	
-0.12282	
-0.11596	
-0.123532	
-0.146314	
-0.182688	
-0.228964	
-0.277571	
-0.322941	
-0.36611	
-0.405979	
-0.440153	
-0.467401	
-0.489212	
-0.507722	
-0.519308	
-0.528887	
-0.534064	
-0.53633	
-0.538012	
-0.527657	
-0.477756	
-0.367534	
-0.199127	
-0.00191925	
0.184027	
0.328034	
0.411461	
0.43366	
0.404018	
0.338066	
0.250303	
0.149272	
0.0423507	
-0.0572566	
-0.135117	
-0.188448	
-0.214078	
-0.21492	
-0.200098	
-0.179128	
-0.16353	
-0.160424	
-0.171297	
-0.195438	
-0.231294	
-0.273946	
-0.320093	
-0.366758	
-0.41284	
-0.453679	
-0.489536	
-0.520149	
-0.547203	
-0.570179	
-0.58623	
-0.596262	
-0.600146	
-0.602929	
-0.606035	
-0.610048	
-0.618397	
-0.629853	
-0.638332	
-0.623899	
-0.552898	
-0.410898	
-0.220033	
-0.0188117	
0.153025	
0.270949	
0.329782	
0.335153	
0.300527	
0.240724	
0.169465	
0.0940636	
0.0165913	
-0.055315	
-0.114989	
-0.153887	
-0.176863	
-0.185601	
-0.184112	
-0.176604	
-0.172527	
-0.179323	
-0.195503	
-0.223592	
-0.262232	
-0.307925	
-0.358538	
-0.411222	
-0.462093	
-0.510506	
-0.55717	
-0.596651	
-0.629141	
-0.657942	
-0.678265	
-0.696258	
-0.70862	
-0.718522	
-0.726871	
-0.738004	
-0.749265	
-0.75632	
-0.762598	
-0.752825	
-0.698394	
-0.592832	
-0.454586	
-0.309543	
-0.182818	
-0.0911063	
-0.0367397	
-0.0166759	
-0.0231481	
-0.0436003	
-0.0715602	
-0.101591	
-0.133693	
-0.167155	
-0.198027	
-0.219191	
-0.227864	
-0.229482	
-0.224887	
-0.218415	
-0.21479	
-0.215761	
-0.223916	
-0.237702	
-0.2555	
-0.275629	
-0.29977	
-0.322876	
-0.345917	
-0.367599	
-0.385398	
-0.397695	
-0.407986	
-0.415752	
-0.421189	
-0.424101	
-0.421901	
-0.422613	
-0.424425	
-0.426496	
-0.430768	
-0.431415	
-0.42902	
-0.409086	
-0.347924	
-0.247216	
-0.131752	
-0.0292967	
0.0468812	
0.0888211	
0.10196	
0.0922514	
0.0712167	
0.0448748	
0.0233871	
0.00772435	
-0.00386091	
-0.0168701	
-0.0268373	
-0.0322092	
-0.0316267	
-0.0237953	
-0.0120806	
-0.000171749	
0.00791851	
0.00966601	
0.00351741	
-0.00767951	
-0.0217242	
-0.0370633	
-0.0528555	
-0.0685183	
-0.0823041	
-0.0938246	
-0.105928	
-0.115507	
-0.12062	
-0.123662	
-0.124762	
-0.124503	
-0.125538	
-0.124697	
-0.124373	
-0.125538	
-0.125927	
-0.124115	
-0.11363	
-0.066253	
0.0144554	
0.104225	
0.18215	
0.232181	
0.250756	
0.245319	
0.224802	
0.19393	
0.162863	
0.139499	
0.123059	
0.110244	
0.0961347	
0.085132	
0.0794364	
0.0821548	
0.0873325	
0.0958111	
0.106037	
0.115163	
0.118464	
0.115228	
0.106749	
0.094905	
0.0818312	
0.0659742	
0.0493407	
0.0362021	
0.0278529	
0.0220927	
0.0183388	
0.0161382	
0.0169796	
0.0195685	
0.018986	
0.0152321	
0.0110252	
0.00746546	
0.00714185	
0.0167207	
0.0522532	
0.118917	
0.195483	
0.264024	
0.310494	
0.330235	
0.326028	
0.302469	
0.27069	
0.240983	
0.218524	
0.201502	
0.190694	
0.180403	
0.171989	
0.166941	
0.168429	
0.175549	
0.184157	
0.193218	
0.198849	
0.198331	
0.193153	
0.183833	
0.170306	
0.154902	
0.139304	
0.126166	
0.114645	
0.107008	
0.0993061	
0.0918631	
0.0875267	
0.0845495	
0.0826725	
0.0802131	
0.0769123	
0.0749706	
0.0724464	
0.0693398	
0.0668156	
0.0707637	
0.0978175	
0.155938	
0.230109	
0.296838	
0.34402	
0.365638	
0.361495	
0.343114	
0.318714	
0.292566	
0.271143	
0.254574	
0.242666	
0.231922	
0.221501	
0.215094	
0.214511	
0.221178	
0.230563	
0.238006	
0.243313	
0.244025	
0.236258	
0.224608	
0.21011	
0.191535	
0.175096	
0.160792	
0.148819	
0.138851	
0.130955	
0.125713	
0.120729	
0.115551	
0.110503	
0.107073	
0.105261	
0.102089	
0.0971703	
0.0910864	
0.0831903	
0.0784009	
0.0750353	
0.0806662	
0.11581	
0.180144	
0.252956	
0.31742	
0.360395	
0.377417	
0.371786	
0.353146	
0.330688	
0.311206	
0.298585	
0.288877	
0.279751	
0.265577	
0.250885	
0.241565	
0.240659	
0.245837	
0.252374	
0.258005	
0.258199	
0.253668	
0.242666	
0.229268	
0.2149	
0.197813	
0.181115	
0.162863	
0.1472	
0.135615	
0.123577	
0.113351	
0.106231	
0.100406	
0.0938695	
0.0862323	
0.0811839	
0.0794364	
0.078595	
0.0767181	
0.0719287	
0.0643562	
0.0519943	
0.0403443	
0.0285649	
0.0191802	
0.0132257	
0.0262996	
0.0773653	
0.152572	
0.233281	
0.300074	
0.343567	
0.359813	
0.357806	
0.347062	
0.331529	
0.319426	
0.311789	
0.303828	
0.295414	
0.285641	
0.272438	
0.261564	
0.25904	
0.259299	
0.261306	
0.262341	
0.257875	
0.249073	
0.236905	
0.221178	
0.203056	
0.183704	
0.167847	
0.153996	
0.138075	
0.122994	
0.109467	
0.0972997	
0.0863617	
0.0785303	
0.0701165	
0.0655212	
0.0617026	
0.0551009	
0.0466871	
0.0377554	
0.0295357	
0.0189213	
0.00727129	
-0.00276063	
-0.0133103	
-0.025025	
-0.03551	
-0.0443122	
-0.0535028	
-0.0591983	
-0.0621108	
-0.0537616	
-0.0120806	
0.0647445	
0.158656	
0.25328	
0.328034	
0.372951	
0.38596	
0.383824	
0.372304	
0.358065	
0.346739	
0.341626	
0.334118	
0.32428	
0.311336	
0.300915	
0.293537	
0.29166	
0.292307	
0.293343	
0.292566	
0.287842	
0.27768	
0.262924	
0.244866	
0.22409	
0.202667	
0.17872	
0.15419	
0.133479	
0.117299	
0.100342	
0.082802	
0.0677217	
0.0538065	
0.0417682	
0.0303771	
0.0181446	
0.00998962	
0.0031938	
-0.00729118	
-0.0184234	
-0.0333095	
-0.0478719	
-0.0589394	
-0.0707188	
-0.0827571	
-0.093501	
-0.10528	
-0.115053	
-0.124762	
-0.132399	
-0.138936	
-0.145408	
-0.154728	
-0.165601	
-0.176216	
-0.182753	
-0.183271	
-0.159259	
-0.0920771	
0.00824212	
0.119046	
0.218589	
0.290689	
0.331853	
0.344797	
0.338325	
0.324992	
0.312501	
0.303893	
0.300204	
0.295802	
0.2859	
0.273862	
0.2637	
0.258717	
0.258005	
0.259882	
0.26137	
0.260658	
0.251921	
0.235481	
0.212958	
0.189982	
0.163446	
0.137492	
0.11115	
0.0840317	
0.0576898	
0.0354901	
0.0172385	
-0.00140147	
-0.0147342	
-0.0274198	
-0.0375164	
-0.0465775	
-0.0586158	
-0.0692302	
-0.0809449	
-0.0925949	
-0.106769	
-0.121461	
-0.137965	
-0.15434	
-0.169355	
-0.183465	
-0.199063	
-0.210972	
-0.218026	
-0.206506	
-0.158482	
-0.0728547	
0.0351018	
0.141829	
0.229915	
0.292372	
0.325122	
0.336836	
0.336124	
0.331982	
0.327257	
0.32428	
0.31839	
0.304734	
0.286677	
0.265966	
0.249979	
0.2382	
0.233151	
0.230368	
0.227521	
0.219624	
0.205839	
0.188687	
0.166552	
0.139693	
0.109273	
0.076977	
0.0454573	
0.0143907	
-0.0133751	
-0.0406231	
-0.0665766	
-0.0876113	
-0.106963	
-0.125992	
-0.140813	
-0.15311	
-0.165084	
-0.178675	
-0.191037	
-0.203011	
-0.215567	
-0.227346	
-0.23919	
-0.252458	
-0.265727	
-0.2788	
-0.293039	
-0.305207	
-0.29278	
-0.236213	
-0.136218	
-0.00806785	
0.1206	
0.229074	
0.308682	
0.355411	
0.375022	
0.377676	
0.371786	
0.366349	
0.360007	
0.350816	
0.336836	
0.316125	
0.293472	
0.273538	
0.256581	
0.243831	
0.232828	
0.22189	
0.206939	
0.190111	
0.1672	
0.139693	
0.109403	
0.0763298	
0.0402148	
0.00461769	
-0.0324681	
-0.0691655	
-0.10185	
-0.130522	
-0.156346	
-0.180488	
-0.201781	
-0.222492	
-0.241326	
-0.257572	
-0.270645	
-0.283201	
-0.29291	
-0.303654	
-0.315692	
-0.329996	
-0.345529	
-0.359962	
-0.373748	
-0.388245	
-0.395818	
-0.387857	
-0.338927	
-0.240226	
-0.105992	
0.0368493	
0.166682	
0.268749	
0.336577	
0.372433	
0.382012	
0.373598	
0.360395	
0.343826	
0.323892	
0.301045	
0.272956	
0.242989	
0.220272	
0.201826	
0.190953	
0.187199	
0.185322	
0.17885	
0.166682	
0.14623	
0.120211	
0.08908	
0.0529004	
0.0147791	
-0.0247661	
-0.0626286	
-0.0962841	
-0.128257	
-0.160035	
-0.190649	
-0.217962	
-0.240226	
-0.257442	
-0.269027	
-0.278865	
-0.28935	
-0.301777	
-0.315498	
-0.33006	
-0.343846	
-0.354525	
-0.352842	
-0.315627	
-0.23	
-0.104698	
0.0351018	
0.165776	
0.27069	
0.343438	
0.384407	
0.398128	
0.393015	
0.380135	
0.363113	
0.342661	
0.316513	
0.284476	
0.249785	
0.218524	
0.195483	
0.182215	
0.174513	
0.168882	
0.16008	
0.146877	
0.124677	
0.0963936	
0.061832	
0.023646	
-0.0192	
-0.0644408	
-0.108581	
-0.147415	
-0.183788	
-0.215437	
-0.243203	
-0.26728	
-0.288703	
-0.308314	
-0.323006	
-0.336015	
-0.348636	
-0.360868	
-0.375689	
-0.388828	
-0.398407	
-0.388828	
-0.333296	
-0.226311	
-0.0826924	
0.075812	
0.220595	
0.335218	
0.414438	
0.457284	
0.469063	
0.462009	
0.445505	
0.42667	
0.403759	
0.37554	
0.34169	
0.305058	
0.273538	
0.248491	
0.229074	
0.213023	
0.200078	
0.185645	
0.166099	
0.13924	
0.105519	
0.0673981	
0.0258465	
-0.0195884	
-0.0637936	
-0.109617	
-0.152786	
-0.191231	
-0.225534	
-0.255112	
-0.280677	
-0.30223	
-0.323653	
-0.34061	
-0.355561	
-0.372971	
-0.387598	
-0.394459	
-0.38255	
-0.327666	
-0.218738	
-0.0689713	
0.0968467	
0.251468	
0.372692	
0.453854	
0.494305	
0.503172	
0.490357	
0.467187	
0.438515	
0.408225	
0.374246	
0.334442	
0.294961	
0.258976	
0.230433	
0.21024	
0.193283	
0.17516	
0.157491	
0.136974	
0.109338	
0.0752295	
0.0347782	
-0.00897395	
-0.0558975	
-0.102497	
-0.14735	
-0.19395	
-0.23822	
-0.274982	
-0.303977	
-0.32773	
-0.347924	
-0.366822	
-0.383715	
-0.400672	
-0.418988	
-0.436463	
-0.449667	
-0.452385	
-0.424231	
-0.341775	
-0.204499	
-0.0329211	
0.145712	
0.300527	
0.411526	
0.474112	
0.495858	
0.491328	
0.469193	
0.438709	
0.4046	
0.367579	
0.32441	
0.278716	
0.235934	
0.203509	
0.179626	
0.163963	
0.152572	
0.141181	
0.125001	
0.103642	
0.0752295	
0.0387262	
-0.00392563	
-0.048325	
-0.0898766	
-0.130393	
-0.173174	
-0.21602	
-0.25207	
-0.282748	
-0.310385	
-0.33595	
-0.357049	
-0.374395	
-0.391352	
-0.407986	
-0.425008	
-0.437175	
-0.434781	
-0.39297	
-0.29168	
-0.138418	
0.0378201	
0.204674	
0.33483	
0.419422	
0.460779	
0.466539	
0.447835	
0.413467	
0.375799	
0.336836	
0.294637	
0.250173	
0.20791	
0.173348	
0.14966	
0.136198	
0.127654	
0.117881	
0.108561	
0.0923161	
0.0670745	
0.036461	
-0.00256647	
-0.0456067	
-0.0900707	
-0.13337	
-0.173756	
-0.215502	
-0.253106	
-0.284108	
-0.311744	
-0.336468	
-0.358667	
-0.378925	
-0.395947	
-0.414458	
-0.431415	
-0.44423	
-0.442094	
-0.401255	
-0.301453	
-0.143984	
0.0402148	
0.215871	
0.358712	
0.453724	
0.501554	
0.511392	
0.495017	
0.463497	
0.427577	
0.39185	
0.351916	
0.305834	
0.257746	
0.2171	
0.187911	
0.168818	
0.155614	
0.145647	
0.134321	
0.113804	
0.0855203	
0.0491465	
0.00830685	
-0.0364161	
-0.084181	
-0.13337	
-0.181523	
-0.226181	
-0.26482	
-0.298217	
-0.326501	
-0.351419	
-0.371547	
-0.387987	
-0.400284	
-0.412193	
-0.425331	
-0.436205	
-0.450961	
-0.466559	
-0.467789	
-0.423001	
-0.310126	
-0.138095	
0.0540006	
0.23587	
0.37897	
0.4723	
0.518705	
0.52453	
0.501813	
0.467445	
0.431589	
0.393015	
0.346545	
0.294314	
0.243895	
0.201502	
0.170824	
0.151019	
0.137233	
0.125713	
0.112704	
0.0939342	
0.0690809	
0.0361373	
-0.00599674	
-0.052273	
-0.0997143	
-0.149939	
-0.197704	
-0.24288	
-0.283331	
-0.317893	
-0.345076	
-0.366305	
-0.382615	
-0.395171	
-0.40818	
-0.419053	
-0.429085	
-0.441835	
-0.451867	
-0.450573	
-0.411804	
-0.311485	
-0.155181	
0.0285001	
0.204091	
0.342208	
0.431395	
0.470099	
0.466151	
0.435537	
0.394374	
0.352434	
0.308358	
0.25917	
0.204868	
0.153349	
0.110956	
0.0830609	
0.0672687	
0.0591784	
0.0553598	
0.0455221	
0.0286296	
0.00364685	
-0.0312384	
-0.0737608	
-0.11926	
-0.16366	
-0.210389	
-0.255953	
-0.295369	
-0.328378	
-0.358538	
-0.382356	
-0.399248	
-0.411545	
-0.419895	
-0.427338	
-0.436981	
-0.449473	
-0.462288	
-0.469407	
-0.45135	
-0.377049	
-0.238284	
-0.0543441	
0.139499	
0.307582	
0.430489	
0.496247	
0.51068	
0.48861	
0.446929	
0.401752	
0.359618	
0.313018	
0.257293	
0.199884	
0.151278	
0.112704	
0.0872678	
0.0741292	
0.0650034	
0.0587901	
0.0496643	
0.0297299	
0.000346028	
-0.0375811	
-0.0826277	
-0.125021	
-0.167608	
-0.211748	
-0.255889	
-0.296858	
-0.330966	
-0.358603	
-0.381385	
-0.400348	
-0.41737	
-0.433033	
-0.44436	
-0.453938	
-0.447401	
-0.399701	
-0.292263	
-0.129292	
0.0608612	
0.24273	
0.388226	
0.481037	
0.519547	
0.513528	
0.477607	
0.426282	
0.372498	
0.315219	
0.25205	
0.187069	
0.129014	
0.08442	
0.0538712	
0.0437746	
0.0470754	
0.0540654	
0.0560718	
0.0497937	
0.0301829	
-0.0023723	
-0.0426942	
-0.0880644	
-0.136671	
-0.184824	
-0.230324	
-0.272458	
-0.308767	
-0.338927	
-0.364298	
-0.386045	
-0.40475	
-0.421836	
-0.436334	
-0.442418	
-0.418277	
-0.341581	
-0.206053	
-0.0314325	
0.151796	
0.310947	
0.422981	
0.48026	
0.48861	
0.459096	
0.405312	
0.340849	
0.27082	
0.195871	
0.121894	
0.0566543	
0.00655935	
-0.0253486	
-0.039717	
-0.0419822	
-0.0372575	
-0.0327917	
-0.0359631	
-0.052273	
-0.0802977	
-0.114859	
-0.155052	
-0.199969	
-0.245404	
-0.29045	
-0.332973	
-0.370382	
-0.401967	
-0.427661	
-0.446172	
-0.460152	
-0.468824	
-0.473614	
-0.479957	
-0.486947	
-0.495684	
-0.499762	
-0.479504	
-0.399313	
-0.248899	
-0.0533086	
0.152702	
0.329976	
0.452948	
0.512621	
0.517217	
0.483496	
0.427253	
0.361172	
0.289654	
0.215676	
0.143576	
0.081637	
0.0384673	
0.0120607	
0.00254658	
0.00455296	
0.0099249	
0.0139377	
0.0103132	
-0.00489646	
-0.032015	
-0.0696186	
-0.115571	
-0.165148	
-0.213949	
-0.262167	
-0.305142	
-0.343199	
-0.377502	
-0.406432	
-0.429991	
-0.448372	
-0.460799	
-0.471349	
-0.478662	
-0.483193	
-0.485458	
-0.492383	
-0.50248	
-0.514842	
-0.530375	
-0.543125	
-0.530246	
-0.458663	
-0.310708	
-0.105539	
0.115357	
0.309006	
0.44777	
0.528219	
0.551325	
0.528737	
0.477477	
0.41159	
0.34305	
0.272179	
0.202408	
0.139952	
0.0912159	
0.0582076	
0.0410562	
0.0408621	
0.0468812	
0.0492759	
0.043904	
0.0305065	
0.00688296	
-0.0296203	
-0.0727899	
-0.117966	
-0.164372	
-0.212201	
-0.257377	
-0.299641	
-0.337115	
-0.372065	
-0.403714	
-0.42902	
-0.450379	
-0.466948	
-0.481316	
-0.492836	
-0.500603	
-0.510311	
-0.519955	
-0.530375	
-0.546103	
-0.562218	
-0.570115	
-0.541378	
-0.447855	
-0.28825	
-0.0854108	
0.119499	
0.292825	
0.414632	
0.481037	
0.499095	
0.481555	
0.442074	
0.392497	
0.340008	
0.283958	
0.226226	
0.174254	
0.132962	
0.103837	
0.0884328	
0.0803425	
0.0771712	
0.0760062	
0.071152	
0.0560718	
0.0317362	
-0.000365915	
-0.0401053	
-0.0827571	
-0.126509	
-0.171621	
-0.217379	
-0.260484	
-0.297699	
-0.331355	
-0.357308	
-0.380479	
-0.398083	
-0.414717	
-0.426626	
-0.438081	
-0.449537	
-0.459699	
-0.468695	
-0.466753	
-0.433033	
-0.341969	
-0.193432	
-0.00586729	
0.185387	
0.352499	
0.471329	
0.539287	
0.561616	
0.549384	
0.512104	
0.465245	
0.414567	
0.358777	
0.300268	
0.245319	
0.201049	
0.170953	
0.154385	
0.150307	
0.155097	
0.15775	
0.155744	
0.143964	
0.122088	
0.0892742	
0.0492112	
0.00500602	
-0.0419822	
-0.0879996	
-0.134341	
-0.173498	
-0.208965	
-0.242427	
-0.27427	
-0.300094	
-0.318022	
-0.334914	
-0.349671	
-0.361968	
-0.36844	
-0.355884	
-0.296923	
-0.179387	
-0.0148637	
0.172701	
0.35224	
0.497606	
0.58977	
0.632228	
0.63527	
0.610481	
0.572425	
0.525436	
0.475859	
0.421104	
0.366803	
0.315284	
0.276256	
0.251338	
0.238847	
0.233216	
0.230433	
0.22642	
0.216324	
0.195354	
0.161439	
0.122218	
0.0802778	
0.038079	
-0.00431396	
-0.0449594	
-0.0832102	
-0.11926	
-0.153822	
-0.186183	
-0.216861	
-0.241326	
-0.265209	
-0.286632	
-0.302295	
-0.308831	
-0.292068	
-0.223334	
-0.0938246	
0.0822842	
0.275544	
0.448741	
0.578444	
0.654622	
0.681158	
0.673909	
0.643295	
0.598961	
0.549125	
0.495146	
0.43955	
0.382918	
0.336124	
0.30208	
0.278651	
0.267519	
0.261953	
0.255804	
0.245772	
0.227068	
0.197554	
0.160857	
0.119435	
0.0738056	
0.0255229	
-0.0190059	
-0.0608164	
-0.0986788	
-0.132205	
-0.160747	
-0.187672	
-0.213496	
-0.235048	
-0.253623	
-0.270969	
-0.286632	
-0.291486	
-0.262749	
-0.179193	
-0.0336978	
0.145453	
0.324927	
0.476312	
0.580515	
0.634687	
0.64582	
0.624655	
0.586599	
0.542717	
0.49657	
0.445634	
0.391009	
0.34169	
0.299103	
0.268101	
0.248232	
0.239818	
0.233734	
0.223378	
0.205645	
0.179562	
0.143188	
0.100342	
0.0552951	
0.00740074	
-0.0417881	
-0.0863816	
-0.127351	
-0.165537	
-0.198545	
-0.225793	
-0.248057	
-0.264756	
-0.278024	
-0.291356	
-0.30346	
-0.315757	
-0.322811	
-0.31155	
-0.252782	
-0.133888	
0.0325129	
0.215676	
0.382659	
0.508738	
0.583039	
0.607763	
0.597925	
0.565758	
0.526537	
0.486474	
0.440974	
0.386672	
0.332694	
0.283246	
0.243831	
0.215482	
0.196583	
0.182345	
0.16817	
0.149013	
0.123383	
0.0892095	
0.0494054	
0.0031938	
-0.0472247	
-0.0968018	
-0.142884	
-0.185471	
-0.221651	
-0.253623	
-0.277377	
-0.296081	
-0.314527	
-0.329025	
-0.340545	
-0.351872	
-0.366175	
-0.379508	
-0.390122	
-0.397824	
-0.390446	
-0.340545	
-0.227282	
-0.06114	
0.127978	
0.307258	
0.450165	
0.538963	
0.578509	
0.577797	
0.553461	
0.517087	
0.475212	
0.42913	
0.375346	
0.315737	
0.260464	
0.215288	
0.182927	
0.160792	
0.146942	
0.131861	
0.11115	
0.0852614	
0.0516059	
0.0123196	
-0.0320797	
-0.081398	
-0.130522	
-0.177899	
-0.220745	
-0.25906	
-0.293428	
-0.3254	
-0.352066	
-0.373942	
-0.390705	
-0.40462	
-0.413875	
-0.42106	
-0.42792	
-0.43491	
-0.4419	
-0.448761	
-0.45478	
-0.461252	
-0.469731	
-0.479115	
-0.490118	
-0.501897	
-0.514	
-0.522997	
-0.519049	
-0.472578	
-0.355496	
-0.166378	
0.0607965	
0.285317	
0.472947	
0.601679	
0.666789	
0.680511	
0.659605	
0.62349	
0.58278	
0.541229	
0.495858	
0.442074	
0.389779	
0.341755	
0.304152	
0.278327	
0.260205	
0.242795	
0.220725	
0.190241	
0.15322	
0.10772	
0.0550362	
0.00118742	
-0.053438	
-0.106445	
-0.153822	
-0.194597	
-0.233171	
-0.267927	
-0.295822	
-0.319252	
-0.341322	
-0.357697	
-0.370253	
-0.380544	
-0.386498	
-0.392388	
-0.398213	
-0.406368	
-0.417241	
-0.432127	
-0.449537	
-0.467465	
-0.484876	
-0.495037	
-0.47918	
-0.406821	
-0.266309	
-0.0769322	
0.128302	
0.314637	
0.452754	
0.536957	
0.567312	
0.557021	
0.526666	
0.489516	
0.449064	
0.402529	
0.346156	
0.284735	
0.229527	
0.187134	
0.155355	
0.130696	
0.111086	
0.0947108	
0.0766534	
0.0501173	
0.0141318	
-0.0286495	
-0.0736961	
-0.121332	
-0.170261	
-0.217638	
-0.261649	
-0.299511	
-0.335626	
-0.366628	
-0.391805	
-0.41161	
-0.426496	
-0.437175	
-0.4419	
-0.443259	
-0.44546	
-0.449214	
-0.456786	
-0.465718	
-0.477368	
-0.491477	
-0.504939	
-0.512253	
-0.502739	
-0.446625	
-0.322553	
-0.140036	
0.0703753	
0.27302	
0.432042	
0.532103	
0.575014	
0.570483	
0.53508	
0.489257	
0.44201	
0.392886	
0.338778	
0.280852	
0.225967	
0.179885	
0.144029	
0.119564	
0.104549	
0.093287	
0.0799542	
0.0585959	
0.0285001	
-0.00988006	
-0.0538264	
-0.101138	
-0.150974	
-0.20081	
-0.250064	
-0.293169	
-0.330772	
-0.361774	
-0.391287	
-0.414911	
-0.432515	
-0.442159	
-0.44656	
-0.448825	
-0.453097	
-0.45931	
-0.466624	
-0.478274	
-0.490442	
-0.502998	
-0.514842	
-0.524032	
-0.517754	
-0.465524	
-0.342163	
-0.157058	
0.0620262	
0.27768	
0.452106	
0.567247	
0.622196	
0.626015	
0.596437	
0.551843	
0.504078	
0.455666	
0.402464	
0.343244	
0.284541	
0.235223	
0.193671	
0.162281	
0.140599	
0.123383	
0.109014	
0.0901156	
0.0612495	
0.0239696	
-0.0217242	
-0.069295	
-0.118031	
-0.168838	
-0.217444	
-0.264238	
-0.306437	
-0.344623	
-0.376919	
-0.402096	
-0.420865	
-0.432904	
-0.441318	
-0.447337	
-0.451673	
-0.457757	
-0.465329	
-0.476268	
-0.48494	
-0.480474	
-0.439246	
-0.332455	
-0.160553	
0.052059	
0.266224	
0.439485	
0.555014	
0.611582	
0.616177	
0.587117	
0.540064	
0.489386	
0.43735	
0.382595	
0.320332	
0.255934	
0.199561	
0.154773	
0.123059	
0.102542	
0.0890153	
0.0773653	
0.060214	
0.0348429	
0.00164047	
-0.0399111	
-0.0865758	
-0.135635	
-0.187154	
-0.235566	
-0.279901	
-0.319058	
-0.351936	
-0.37899	
-0.398342	
-0.414717	
-0.42792	
-0.440476	
-0.450249	
-0.457563	
-0.466624	
-0.475103	
-0.481251	
-0.475038	
-0.427143	
-0.310838	
-0.128322	
0.0889506	
0.299686	
0.468805	
0.581292	
0.632098	
0.633911	
0.602456	
0.553008	
0.497541	
0.441039	
0.380071	
0.31729	
0.25328	
0.196583	
0.155032	
0.125713	
0.106037	
0.0953581	
0.0883681	
0.0745176	
0.0530298	
0.0209277	
-0.0210123	
-0.0705894	
-0.123856	
-0.176022	
-0.225987	
-0.273105	
-0.31388	
-0.349024	
-0.376725	
-0.400219	
-0.418859	
-0.436593	
-0.450961	
-0.462805	
-0.471025	
-0.471413	
-0.444683	
-0.358409	
-0.200422	
0.00604157	
0.224802	
0.417609	
0.555791	
0.630027	
0.647696	
0.620772	
0.567635	
0.508673	
0.447576	
0.382724	
0.314313	
0.246614	
0.184933	
0.134839	
0.101895	
0.0839023	
0.0749059	
0.0673981	
0.0569779	
0.038791	
0.0118018	
-0.0252192	
-0.0714308	
-0.121849	
-0.175698	
-0.229094	
-0.277506	
-0.318346	
-0.353684	
-0.383132	
-0.409992	
-0.435298	
-0.456916	
-0.472837	
-0.486041	
-0.493937	
-0.483905	
-0.428114	
-0.302942	
-0.114989	
0.102478	
0.310688	
0.476765	
0.579997	
0.62006	
0.608604	
0.565694	
0.506602	
0.443498	
0.379941	
0.3114	
0.241242	
0.175872	
0.121441	
0.0827373	
0.0620909	
0.0528357	
0.0492112	
0.0445512	
0.0314774	
0.00927768	
-0.0233423	
-0.06347	
-0.107546	
-0.159453	
-0.211101	
-0.258283	
-0.300094	
-0.338345	
-0.371288	
-0.399766	
-0.42449	
-0.445654	
-0.465912	
-0.482675	
-0.491024	
-0.478598	
-0.41504	
-0.279124	
-0.0861227	
0.132185	
0.335542	
0.487898	
0.579156	
0.61197	
0.594624	
0.546406	
0.486927	
0.425182	
0.36156	
0.292243	
0.222925	
0.16131	
0.115487	
0.0850025	
0.0658448	
0.0592431	
0.0579487	
0.0546479	
0.0408621	
0.0151674	
-0.0213359	
-0.0655411	
-0.112723	
-0.161848	
-0.210842	
-0.257442	
-0.299641	
-0.337503	
-0.370576	
-0.401513	
-0.426237	
-0.448113	
-0.463647	
-0.468824	
-0.444942	
-0.36158	
-0.206441	
-0.00114258	
0.219236	
0.413144	
0.548931	
0.621613	
0.636564	
0.606145	
0.552361	
0.49204	
0.429	
0.361172	
0.28933	
0.221243	
0.164028	
0.120729	
0.0927692	
0.0780125	
0.0692103	
0.0646151	
0.0561365	
0.0424154	
0.0189213	
-0.0179056	
-0.0621755	
-0.111105	
-0.162365	
-0.211619	
-0.25673	
-0.298994	
-0.337503	
-0.371612	
-0.400413	
-0.423907	
-0.443518	
-0.457045	
-0.453226	
-0.405656	
-0.290839	
-0.108258	
0.111539	
0.32784	
0.503237	
0.61553	
0.661288	
0.653198	
0.611517	
0.55495	
0.492493	
0.429454	
0.361431	
0.290884	
0.224867	
0.1705	
0.133738	
0.112833	
0.102801	
0.0976881	
0.0910217	
0.0758767	
0.0514765	
0.0164618	
-0.0283259	
-0.0788091	
-0.131428	
-0.182106	
-0.229547	
-0.273558	
-0.315304	
-0.349542	
-0.378796	
-0.405008	
-0.426885	
-0.443324	
-0.45245	
-0.441123	
-0.375495	
-0.23699	
-0.0417881	
0.178008	
0.381689	
0.53851	
0.632034	
0.662324	
0.646531	
0.603944	
0.548931	
0.48738	
0.417739	
0.341561	
0.266677	
0.199755	
0.149077	
0.116004	
0.0981411	
0.0912159	
0.0856498	
0.0771712	
0.0601492	
0.0332249	
-0.00243702	
-0.0494253	
-0.0995849	
-0.150068	
-0.199839	
-0.246957	
-0.288897	
-0.327471	
-0.361062	
-0.387663	
-0.411545	
-0.433551	
-0.452256	
-0.467789	
-0.474132	
-0.458145	
-0.389605	
-0.250064	
-0.0536969	
0.167135	
0.370945	
0.520776	
0.607633	
0.635399	
0.62006	
0.576955	
0.522006	
0.463044	
0.394439	
0.317031	
0.242407	
0.177037	
0.127201	
0.094452	
0.0759414	
0.0668156	
0.059049	
0.0456515	
0.0220279	
-0.0122101	
-0.0522083	
-0.0990671	
-0.152463	
-0.202881	
-0.252717	
-0.299123	
-0.340027	
-0.374719	
-0.404879	
-0.430768	
-0.453291	
-0.471154	
-0.48494	
-0.498079	
-0.507787	
-0.504939	
-0.470248	
-0.373618	
-0.210195	
-0.00217813	
0.210952	
0.389649	
0.510809	
0.570095	
0.577538	
0.546471	
0.495923	
0.438968	
0.379618	
0.314248	
0.243313	
0.175031	
0.118787	
0.0772359	
0.0525768	
0.0381437	
0.027594	
0.0183388	
0.00332324	
-0.0210123	
-0.0533086	
-0.0927244	
-0.139518	
-0.189743	
-0.241326	
-0.290127	
-0.332326	
-0.366758	
-0.395688	
-0.423001	
-0.448761	
-0.469019	
-0.483322	
-0.496331	
-0.507334	
-0.510247	
-0.488047	
-0.411675	
-0.266374	
-0.0716249	
0.14144	
0.33237	
0.469063	
0.541876	
0.559545	
0.539869	
0.497088	
0.444599	
0.386154	
0.321044	
0.248038	
0.178526	
0.121894	
0.0801484	
0.0539359	
0.0394382	
0.0323187	
0.0248757	
0.0135493	
-0.00424924	
-0.0347981	
-0.0736313	
-0.119002	
-0.167867	
-0.217767	
-0.26482	
-0.309543	
-0.347794	
-0.380673	
-0.409668	
-0.432256	
-0.448178	
-0.460928	
-0.47096	
-0.480474	
-0.487464	
-0.490247	
-0.475103	
-0.410898	
-0.278088	
-0.0889057	
0.12746	
0.330299	
0.485956	
0.578767	
0.610028	
0.59566	
0.554238	
0.499742	
0.441298	
0.378064	
0.309653	
0.238653	
0.176649	
0.129855	
0.0967172	
0.0761356	
0.0668156	
0.0604081	
0.0517354	
0.0347135	
0.00811268	
-0.0277434	
-0.0718838	
-0.122885	
-0.175828	
-0.226311	
-0.273752	
-0.317957	
-0.35582	
-0.388181	
-0.412775	
-0.434328	
-0.450638	
-0.461899	
-0.469083	
-0.476721	
-0.482416	
-0.489147	
-0.489341	
-0.456333	
-0.360803	
-0.198869	
0.0107663	
0.228686	
0.417351	
0.548283	
0.613135	
0.621355	
0.592683	
0.542782	
0.483432	
0.422269	
0.356188	
0.283958	
0.217036	
0.160274	
0.119176	
0.0932222	
0.0808603	
0.0770417	
0.0737409	
0.0633854	
0.0424154	
0.0119313	
-0.0299439	
-0.0791974	
-0.130587	
-0.180164	
-0.228576	
-0.27427	
-0.316533	
-0.351354	
-0.38132	
-0.409021	
-0.429409	
-0.444489	
-0.45698	
-0.470248	
-0.480086	
-0.486817	
-0.488565	
-0.473096	
-0.40805	
-0.267992	
-0.0701363	
0.152702	
0.35813	
0.511327	
0.602844	
0.631386	
0.608669	
0.559221	
0.498577	
0.438256	
0.372886	
0.302145	
0.230368	
0.167588	
0.119046	
0.0877856	
0.0704401	
0.0644209	
0.062997	
0.0564601	
0.0407326	
0.0163324	
-0.0171289	
-0.0613341	
-0.110458	
-0.162495	
-0.212396	
-0.257507	
-0.297505	
-0.332067	
-0.363781	
-0.392064	
-0.415105	
-0.43601	
-0.452644	
-0.464618	
-0.472708	
-0.470184	
-0.437952	
-0.344882	
-0.182688	
0.0227399	
0.233863	
0.415215	
0.541099	
0.601614	
0.606404	
0.572166	
0.515793	
0.452365	
0.38363	
0.309329	
0.232569	
0.162022	
0.108108	
0.0723817	
0.0525768	
0.0450043	
0.0439687	
0.0424154	
0.0350371	
0.0172385	
-0.0111098	
-0.0494253	
-0.0964135	
-0.150327	
-0.202299	
-0.251488	
-0.297311	
-0.336986	
-0.36857	
-0.395883	
-0.418147	
-0.440347	
-0.460993	
-0.477303	
-0.486882	
-0.480216	
-0.43038	
-0.310644	
-0.124632	
0.0961995	
0.312695	
0.487639	
0.600902	
0.647179	
0.637923	
0.593006	
0.530032	
0.463821	
0.395863	
0.325769	
0.254186	
0.190241	
0.140275	
0.107073	
0.090245	
0.0847436	
0.0864911	
0.0877209	
0.0790481	
0.0584665	
0.025264	
-0.0167406	
-0.0659941	
-0.116348	
-0.167608	
-0.215243	
-0.259707	
-0.297635	
-0.330384	
-0.360739	
-0.388569	
-0.413487	
-0.434716	
-0.449214	
-0.449084	
-0.408762	
-0.300159	
-0.120943	
0.0984	
0.318843	
0.502784	
0.624979	
0.682517	
0.683941	
0.645755	
0.588282	
0.524336	
0.458384	
0.384666	
0.306223	
0.233604	
0.17652	
0.138204	
0.115875	
0.105972	
0.104419	
0.101118	
0.0915395	
0.0706342	
0.040409	
2.24172E-05	
-0.0488428	
-0.102497	
-0.154728	
-0.205341	
-0.251488	
-0.294269	
-0.332196	
-0.364234	
-0.39407	
-0.418018	
-0.43957	
-0.453226	
-0.451932	
-0.413875	
-0.308896	
-0.132528	
0.0893389	
0.317096	
0.508026	
0.636629	
0.697468	
0.700574	
0.663036	
0.60485	
0.540905	
0.473076	
0.396445	
0.31606	
0.24273	
0.183057	
0.142476	
0.1206	
0.110762	
0.107137	
0.102024	
0.0904392	
0.0683042	
0.0344546	
-0.00774423	
-0.0558328	
-0.108322	
-0.160618	
-0.210389	
-0.254335	
-0.295369	
-0.332261	
-0.362421	
-0.388828	
-0.411416	
-0.431609	
-0.446625	
-0.452579	
-0.430703	
-0.349089	
-0.196603	
0.00998962	
0.237617	
0.442851	
0.591712	
0.671838	
0.693326	
0.672161	
0.623167	
0.562199	
0.495341	
0.420069	
0.339231	
0.258846	
0.190241	
0.140664	
0.11128	
0.0973645	
0.0927692	
0.0899214	
0.0774948	
0.0552951	
0.0235813	
-0.0186823	
-0.0693597	
-0.125409	
-0.181588	
-0.231359	
-0.2755	
-0.311938	
-0.34417	
-0.369217	
-0.390511	
-0.409798	
-0.427467	
-0.4397	
-0.450961	
-0.455233	
-0.443389	
-0.386369	
-0.260419	
-0.0664472	
0.165905	
0.388549	
0.561746	
0.668537	
0.711966	
0.705623	
0.664977	
0.605303	
0.539093	
0.46628	
0.383242	
0.300268	
0.228815	
0.17516	
0.142282	
0.124159	
0.116328	
0.109597	
0.0987883	
0.0769123	
0.0424154	
-0.00114258	
-0.05182	
-0.106445	
-0.162171	
-0.217703	
-0.269286	
-0.312779	
-0.348182	
-0.376854	
-0.400543	
-0.420607	
-0.435751	
-0.449214	
-0.460411	
-0.467142	
-0.469342	
-0.449214	
-0.376337	
-0.2311	
-0.0213359	
0.213282	
0.426541	
0.583363	
0.675915	
0.711448	
0.704458	
0.665495	
0.608151	
0.543106	
0.470358	
0.388226	
0.306158	
0.233216	
0.173348	
0.13322	
0.110632	
0.0962642	
0.0859734	
0.0698576	
0.047852	
0.0140671	
-0.0307853	
-0.0835985	
-0.138548	
-0.193756	
-0.249287	
-0.301518	
-0.343328	
-0.375754	
-0.40119	
-0.421772	
-0.436463	
-0.44766	
-0.457692	
-0.468436	
-0.477433	
-0.487141	
-0.492319	
-0.478209	
-0.414328	
-0.273687	
-0.0639877	
0.180532	
0.408742	
0.57825	
0.679604	
0.718632	
0.715331	
0.686983	
0.641224	
0.582586	
0.513981	
0.436249	
0.353017	
0.275803	
0.21244	
0.16817	
0.141311	
0.123642	
0.108885	
0.0907628	
0.0634501	
0.0260407	
-0.0194589	
-0.0735019	
-0.133046	
-0.193691	
-0.252717	
-0.309802	
-0.358473	
-0.398277	
-0.428179	
-0.450249	
-0.463906	
-0.470184	
-0.475361	
-0.480021	
-0.485264	
-0.493678	
-0.505457	
-0.518531	
-0.52934	
-0.529469	
-0.493419	
-0.388116	
-0.201004	
0.0433215	
0.292825	
0.501295	
0.642195	
0.712289	
0.729311	
0.708924	
0.668213	
0.614623	
0.552167	
0.477542	
0.395992	
0.315478	
0.245578	
0.191535	
0.154579	
0.130955	
0.112251	
0.0928986	
0.0665567	
0.0318657	
-0.0122748	
-0.061593	
-0.116672	
-0.175374	
-0.236084	
-0.294851	
-0.346111	
-0.393747	
-0.434522	
-0.466753	
-0.489924	
-0.504357	
-0.511217	
-0.512447	
-0.513677	
-0.517042	
-0.522479	
-0.530634	
-0.541054	
-0.548692	
-0.552381	
-0.530893	
-0.445783	
-0.276729	
-0.0429531	
0.21147	
0.437932	
0.599349	
0.686594	
0.713325	
0.699862	
0.660511	
0.605692	
0.539287	
0.464339	
0.382595	
0.299103	
0.224738	
0.166552	
0.125777	
0.103189	
0.0927045	
0.0817017	
0.0657153	
0.0383379	
0.000346028	
-0.0469658	
-0.102627	
-0.161589	
-0.221392	
-0.280677	
-0.33718	
-0.384945	
-0.425978	
-0.457498	
-0.478598	
-0.491995	
-0.498661	
-0.504098	
-0.509664	
-0.514	
-0.518596	
-0.526557	
-0.535941	
-0.538854	
-0.514518	
-0.429409	
-0.262361	
-0.03085	
0.219301	
0.442722	
0.60485	
0.692355	
0.715784	
0.693131	
0.643231	
0.578509	
0.505243	
0.425052	
0.339555	
0.257163	
0.185969	
0.133415	
0.099565	
0.0824136	
0.0775595	
0.0727053	
0.0620262	
0.0402148	
0.00532963	
-0.0400406	
-0.0939541	
-0.15201	
-0.212072	
-0.272587	
-0.326177	
-0.374783	
-0.413811	
-0.443453	
-0.464488	
-0.479568	
-0.491995	
-0.505069	
-0.514389	
-0.522414	
-0.529793	
-0.534647	
-0.523126	
-0.469407	
-0.33938	
-0.133758	
0.112574	
0.356835	
0.549319	
0.668408	
0.718826	
0.716496	
0.677598	
0.617148	
0.546018	
0.469258	
0.389391	
0.303181	
0.220207	
0.151472	
0.102542	
0.0719934	
0.0563954	
0.0501173	
0.0435157	
0.0275293	
0.00228769	
-0.0353806	
-0.0838574	
-0.139324	
-0.196603	
-0.256536	
-0.314592	
-0.368246	
-0.41504	
-0.451414	
-0.478144	
-0.496914	
-0.511217	
-0.520732	
-0.527851	
-0.536653	
-0.544743	
-0.551216	
-0.548433	
-0.512382	
-0.409215	
-0.223528	
0.0233224	
0.287389	
0.513139	
0.667048	
0.745492	
0.762125	
0.735201	
0.680834	
0.610805	
0.532491	
0.450359	
0.360783	
0.273473	
0.198396	
0.142411	
0.103707	
0.0833845	
0.0784656	
0.0764592	
0.0656506	
0.0444865	
0.0127727	
-0.0320797	
-0.087676	
-0.150068	
-0.214402	
-0.277247	
-0.334656	
-0.386174	
-0.428114	
-0.462158	
-0.487853	
-0.507464	
-0.52332	
-0.534647	
-0.542996	
-0.551733	
-0.558853	
-0.566231	
-0.56429	
-0.529145	
-0.424231	
-0.239773	
0.00241713	
0.261435	
0.485373	
0.640448	
0.721091	
0.736689	
0.704458	
0.639606	
0.559286	
0.478966	
0.397481	
0.313536	
0.230368	
0.161116	
0.112186	
0.082802	
0.068822	
0.0633854	
0.0624792	
0.0561365	
0.0389204	
0.00882462	
-0.0311089	
-0.079068	
-0.132852	
-0.192073	
-0.251876	
-0.305207	
-0.350512	
-0.390058	
-0.424425	
-0.450702	
-0.46986	
-0.485782	
-0.499179	
-0.511606	
-0.522091	
-0.52565	
-0.523385	
-0.493548	
-0.402096	
-0.234207	
-0.00962118	
0.234122	
0.453012	
0.609316	
0.694426	
0.713519	
0.679022	
0.612229	
0.532491	
0.454177	
0.373987	
0.290884	
0.207845	
0.140275	
0.0919925	
0.0624145	
0.0525768	
0.0559423	
0.064162	
0.0642915	
0.0521237	
0.0276588	
-0.00845618	
-0.0525966	
-0.104051	
-0.160165	
-0.21725	
-0.271422	
-0.31731	
-0.351742	
-0.38009	
-0.404814	
-0.425914	
-0.443518	
-0.457174	
-0.467724	
-0.476397	
-0.48028	
-0.464164	
-0.392064	
-0.244239	
-0.0332447	
0.212893	
0.446799	
0.628603	
0.736495	
0.771186	
0.749116	
0.68873	
0.609187	
0.524724	
0.440133	
0.354052	
0.271337	
0.201438	
0.147977	
0.111668	
0.0922514	
0.0879798	
0.0886917	
0.087462	
0.0776242	
0.0542595	
0.0193096	
-0.0261253	
-0.0793269	
-0.134923	
-0.193238	
-0.247475	
-0.292651	
-0.330966	
-0.363392	
-0.390446	
-0.414523	
-0.43601	
-0.455103	
-0.470831	
-0.483581	
-0.489018	
-0.473484	
-0.405915	
-0.258931	
-0.0402995	
0.214317	
0.45709	
0.643036	
0.751187	
0.792221	
0.778888	
0.725104	
0.64912	
0.569447	
0.489516	
0.404924	
0.31962	
0.242795	
0.184222	
0.144482	
0.119176	
0.107849	
0.105196	
0.103578	
0.0923809	
0.0658448	
0.0276588	
-0.0204945	
-0.075573	
-0.135247	
-0.195438	
-0.255177	
-0.306696	
-0.349477	
-0.385915	
-0.412516	
-0.430897	
-0.442418	
-0.450961	
-0.460281	
-0.467789	
-0.474649	
-0.481381	
-0.48261	
-0.462288	
-0.382356	
-0.21958	
0.0121254	
0.272373	
0.51191	
0.686077	
0.780636	
0.809178	
0.788273	
0.734165	
0.662194	
0.586987	
0.508479	
0.426412	
0.34305	
0.26849	
0.209916	
0.169983	
0.148236	
0.141375	
0.13568	
0.126489	
0.106231	
0.072317	
0.0291474	
-0.0236659	
-0.0841163	
-0.146185	
-0.208447	
-0.26605	
-0.316728	
-0.360221	
-0.396142	
-0.424555	
-0.444295	
-0.457951	
-0.466689	
-0.472061	
-0.478144	
-0.48617	
-0.498144	
-0.508111	
-0.506881	
-0.470637	
-0.364622	
-0.178028	
0.0653917	
0.320591	
0.538899	
0.685688	
0.757336	
0.768597	
0.736754	
0.677922	
0.606274	
0.529579	
0.446734	
0.360978	
0.277551	
0.205645	
0.152702	
0.119564	
0.104419	
0.0971703	
0.0889506	
0.0741939	
0.0496643	
0.0142613	
-0.0324034	
-0.087223	
-0.144437	
-0.201781	
-0.259384	
-0.314721	
-0.361321	
-0.400802	
-0.430444	
-0.45245	
-0.467595	
-0.478144	
-0.487529	
-0.494713	
-0.502156	
-0.510376	
-0.517042	
-0.510052	
-0.457951	
-0.331031	
-0.127286	
0.118723	
0.361042	
0.553396	
0.668796	
0.714749	
0.706982	
0.662453	
0.594171	
0.517476	
0.438191	
0.355476	
0.272632	
0.196972	
0.139887	
0.101895	
0.0840964	
0.0794364	
0.0815075	
0.0763945	
0.0579487	
0.0285649	
-0.0118864	
-0.0634052	
-0.123467	
-0.184371	
-0.243592	
-0.298346	
-0.346306	
-0.386174	
-0.418277	
-0.442547	
-0.459051	
-0.470896	
-0.481834	
-0.492577	
-0.503127	
-0.509729	
-0.506428	
-0.474455	
-0.377955	
-0.203399	
0.0320599	
0.284217	
0.50013	
0.647179	
0.718438	
0.728211	
0.696044	
0.639347	
0.570483	
0.497218	
0.417351	
0.329911	
0.243442	
0.168688	
0.113157	
0.0807309	
0.0683042	
0.0638384	
0.0644856	
0.0546479	
0.0328365	
-0.000365915	
-0.0445711	
-0.100879	
-0.162754	
-0.223981	
-0.280936	
-0.332261	
-0.377502	
-0.412969	
-0.441706	
-0.464747	
-0.481963	
-0.494843	
-0.505651	
-0.516201	
-0.524939	
-0.529922	
-0.525003	
-0.487917	
-0.38145	
-0.191749	
0.0585312	
0.321303	
0.542264	
0.687436	
0.756688	
0.765685	
0.736689	
0.688083	
0.626727	
0.558186	
0.482914	
0.396122	
0.306935	
0.229786	
0.170695	
0.131149	
0.111668	
0.10306	
0.096782	
0.0834492	
0.0600198	
0.0253288	
-0.0212712	
-0.0784855	
-0.140554	
-0.206506	
-0.268704	
-0.326695	
-0.377631	
-0.41873	
-0.449731	
-0.473096	
-0.489082	
-0.500085	
-0.510506	
-0.520732	
-0.531217	
-0.538207	
-0.538854	
-0.51756	
-0.443712	
-0.288379	
-0.0608811	
0.200855	
0.442786	
0.620578	
0.719538	
0.75054	
0.733842	
0.689183	
0.63184	
0.566859	
0.492881	
0.408484	
0.318779	
0.235158	
0.16584	
0.116716	
0.0866853	
0.0751001	
0.0717345	
0.0684984	
0.0556834	
0.0281765	
-0.0145401	
-0.0689066	
-0.131428	
-0.197251	
-0.263073	
-0.325141	
-0.378019	
-0.420865	
-0.456074	
-0.481769	
-0.501962	
-0.516136	
-0.528434	
-0.538724	
-0.546103	
-0.549468	
-0.546491	
-0.521508	
-0.4408	
-0.282878	
-0.055768	
0.201632	
0.43599	
0.602779	
0.694167	
0.717467	
0.695202	
0.644913	
0.579803	
0.505178	
0.421881	
0.334765	
0.247649	
0.171536	
0.11361	
0.0757473	
0.055554	
0.0479815	
0.0475284	
0.0440334	
0.0296651	
0.000475472	
-0.0406231	
-0.0915594	
-0.149615	
-0.212913	
-0.271228	
-0.326436	
-0.37666	
-0.415493	
-0.445783	
-0.472773	
-0.494454	
-0.509082	
-0.519631	
-0.53044	
-0.535488	
-0.534841	
-0.515877	
-0.446625	
-0.300418	
-0.0811391	
0.176584	
0.416833	
0.592359	
0.689895	
0.719603	
0.701804	
0.652874	
0.582974	
0.503237	
0.41638	
0.326934	
0.236582	
0.160015	
0.101636	
0.0622851	
0.0442923	
0.042739	
0.0435804	
0.0422212	
0.0309596	
0.00520019	
-0.0371928	
-0.0909769	
-0.152139	
-0.215696	
-0.277053	
-0.331808	
-0.379767	
-0.418147	
-0.450379	
-0.477109	
-0.498402	
-0.515748	
-0.530828	
-0.541766	
-0.547009	
-0.532899	
-0.468501	
-0.324753	
-0.108517	
0.146747	
0.390814	
0.578509	
0.688666	
0.729182	
0.718567	
0.67598	
0.612488	
0.540711	
0.46298	
0.380524	
0.29412	
0.215612	
0.151278	
0.105131	
0.0796306	
0.069987	
0.0661684	
0.0588548	
0.0416387	
0.011543	
-0.0321445	
-0.087223	
-0.147026	
-0.208836	
-0.268574	
-0.324041	
-0.372777	
-0.413358	
-0.444942	
-0.468889	
-0.487206	
-0.501833	
-0.512706	
-0.524485	
-0.533741	
-0.536459	
-0.526557	
-0.474908	
-0.3476	
-0.136023	
0.125389	
0.384536	
0.590159	
0.715784	
0.769245	
0.767562	
0.732418	
0.675592	
0.610158	
0.536957	
0.454695	
0.366673	
0.284476	
0.216065	
0.162798	
0.129208	
0.111797	
0.103707	
0.0961347	
0.0796306	
0.0505057	
0.00947184	
-0.0425	
-0.101332	
-0.163207	
-0.22424	
-0.284625	
-0.342163	
-0.389864	
-0.428438	
-0.457498	
-0.477562	
-0.491607	
-0.501574	
-0.508499	
-0.515813	
-0.52332	
-0.530375	
-0.528498	
-0.502804	
-0.416594	
-0.247799	
-0.00955645	
0.254186	
0.488868	
0.654428	
0.740184	
0.75986	
0.738178	
0.692678	
0.631322	
0.561098	
0.484597	
0.399099	
0.310883	
0.234187	
0.173089	
0.130373	
0.103901	
0.0912159	
0.0840317	
0.0737409	
0.0527062	
0.0182093	
-0.0289084	
-0.0862521	
-0.147479	
-0.208642	
-0.269869	
-0.325465	
-0.372647	
-0.410898	
-0.439764	
-0.463323	
-0.483128	
-0.500021	
-0.5118	
-0.519825	
-0.52578	
-0.52578	
-0.514195	
-0.462288	
-0.33938	
-0.140489	
0.106879	
0.351593	
0.544529	
0.659735	
0.704458	
0.695008	
0.65378	
0.590612	
0.516764	
0.434049	
0.342143	
0.248685	
0.16487	
0.0987236	
0.0578193	
0.0405385	
0.0410562	
0.0470107	
0.0455221	
0.0323835	
0.00914823	
-0.0279375	
-0.078356	
-0.137383	
-0.196539	
-0.253753	
-0.305854	
-0.348312	
-0.385398	
-0.414652	
-0.438729	
-0.458081	
-0.475103	
-0.489859	
-0.499826	
-0.505198	
-0.501833	
-0.469407	
-0.374071	
-0.196862	
0.0437746	
0.302016	
0.523689	
0.673585	
0.743809	
0.749893	
0.713713	
0.655463	
0.586793	
0.508868	
0.420134	
0.325963	
0.235093	
0.159174	
0.107202	
0.0768475	
0.066039	
0.0647445	
0.0655859	
0.0588548	
0.0381437	
0.00138158	
-0.0470305	
-0.103468	
-0.164954	
-0.228576	
-0.286308	
-0.336597	
-0.381709	
-0.418794	
-0.449861	
-0.477433	
-0.500021	
-0.516136	
-0.528175	
-0.535747	
-0.530246	
-0.493548	
-0.390705	
-0.206765	
0.0383379	
0.297744	
0.516052	
0.657923	
0.725104	
0.734295	
0.706917	
0.65514	
0.594301	
0.524854	
0.444987	
0.353858	
0.261306	
0.180338	
0.122347	
0.0881092	
0.0706342	
0.0674628	
0.067204	
0.0596315	
0.0397618	
0.00772435	
-0.0397817	
-0.096543	
-0.159518	
-0.225664	
-0.290191	
-0.348377	
-0.397565	
-0.438405	
-0.468048	
-0.49083	
-0.509017	
-0.522803	
-0.534	
-0.54429	
-0.552316	
-0.550892	
-0.524615	
-0.440153	
-0.271357	
-0.0305911	
0.236452	
0.4723	
0.635011	
0.719667	
0.738372	
0.712289	
0.664006	
0.605757	
0.538769	
0.461944	
0.372498	
0.279751	
0.193347	
0.124612	
0.078142	
0.0533534	
0.0439687	
0.0424154	
0.036461	
0.0173679	
-0.0163523	
-0.0620461	
-0.117901	
-0.178934	
-0.241585	
-0.302618	
-0.359574	
-0.410057	
-0.449473	
-0.479439	
-0.503839	
-0.524744	
-0.542737	
-0.557882	
-0.570179	
-0.576457	
-0.572703	
-0.542478	
-0.454586	
-0.286826	
-0.0544089	
0.200855	
0.424858	
0.581033	
0.658634	
0.671191	
0.636111	
0.574302	
0.497412	
0.415215	
0.328746	
0.237229	
0.148689	
0.0723817	
0.0169796	
-0.0159639	
-0.02852	
-0.0296203	
-0.0301381	
-0.036222	
-0.0531144	
-0.083016	
-0.12638	
-0.180034	
-0.239061	
-0.299317	
-0.355755	
-0.404426	
-0.446495	
-0.484164	
-0.516848	
-0.542219	
-0.561636	
-0.575163	
-0.58403	
-0.589531	
-0.583771	
-0.549209	
-0.451608	
-0.280095	
-0.0485839	
0.200531	
0.416509	
0.563493	
0.636176	
0.644913	
0.606727	
0.539481	
0.462009	
0.379812	
0.292178	
0.204933	
0.125066	
0.0622204	
0.018986	
-0.000560082	
-0.00301952	
0.00474713	
0.010831	
0.0109605	
-0.0017898	
-0.0300734	
-0.0710424	
-0.121655	
-0.175245	
-0.230129	
-0.281389	
-0.327795	
-0.36844	
-0.40339	
-0.432192	
-0.456786	
-0.474779	
-0.485782	
-0.488371	
-0.473161	
-0.407727	
-0.268833	
-0.0599102	
0.180273	
0.401558	
0.566988	
0.659605	
0.686724	
0.666401	
0.610481	
0.53618	
0.455537	
0.368291	
0.279234	
0.194059	
0.117817	
0.0589195	
0.0221574	
0.00409991	
0.000993249	
0.0043588	
0.00287019	
-0.0073559	
-0.0301381	
-0.0646997	
-0.108387	
-0.159453	
-0.211942	
-0.263785	
-0.310903	
-0.351613	
-0.386692	
-0.420736	
-0.451414	
-0.476203	
-0.495296	
-0.507464	
-0.501833	
-0.451997	
-0.330384	
-0.139777	
0.0925103	
0.319814	
0.498836	
0.607698	
0.647761	
0.631451	
0.576243	
0.502848	
0.425505	
0.345509	
0.260076	
0.174254	
0.0971056	
0.034584	
-0.00832673	
-0.0341509	
-0.0469011	
-0.0518847	
-0.0544089	
-0.0641172	
-0.0850871	
-0.115507	
-0.157058	
-0.204435	
-0.257701	
-0.311938	
-0.361127	
-0.403585	
-0.442288	
-0.477303	
-0.507852	
-0.534	
-0.55607	
-0.571927	
-0.584289	
-0.589984	
-0.571991	
-0.496396	
-0.353749	
-0.161265	
0.0432568	
0.22655	
0.359748	
0.430619	
0.446346	
0.421622	
0.373469	
0.314183	
0.253151	
0.186746	
0.113286	
0.0424801	
-0.0150578	
-0.0572566	
-0.0831455	
-0.0951838	
-0.099326	
-0.102886	
-0.109682	
-0.127221	
-0.154146	
-0.189743	
-0.230841	
-0.276794	
-0.323976	
-0.368829	
-0.409474	
-0.446172	
-0.476915	
-0.503062	
-0.522803	
-0.536847	
-0.546685	
-0.558723	
-0.571021	
-0.581053	
-0.587719	
-0.588172	
-0.557817	
-0.469019	
-0.320158	
-0.13693	
0.0462987	
0.196778	
0.295349	
0.341885	
0.344991	
0.319685	
0.279687	
0.232763	
0.178979	
0.120147	
0.0597609	
0.00882462	
-0.0278728	
-0.0505255	
-0.0612047	
-0.0631464	
-0.0613341	
-0.062305	
-0.0688419	
-0.083728	
-0.107999	
-0.141201	
-0.177381	
-0.214726	
-0.256601	
-0.299576	
-0.342811	
-0.382032	
-0.415882	
-0.445913	
-0.472708	
-0.493613	
-0.5118	
-0.525909	
-0.535553	
-0.529275	
-0.484681	
-0.388375	
-0.247475	
-0.0856696	
0.0692103	
0.197554	
0.283182	
0.323827	
0.329264	
0.308229	
0.27302	
0.229462	
0.17872	
0.123253	
0.0684337	
0.0250051	
-0.00217813	
-0.0129867	
-0.0111098	
-0.00528479	
0.00073436	
0.00215825	
-0.00243702	
-0.0151226	
-0.0371928	
-0.0652822	
-0.0979668	
-0.133823	
-0.168643	
-0.201393	
-0.229806	
-0.256665	
-0.279448	
-0.297699	
-0.313427	
-0.327471	
-0.33485	
-0.333879	
-0.305984	
-0.225469	
-0.0982905	
0.0580134	
0.215935	
0.353146	
0.450294	
0.50479	
0.522136	
0.512621	
0.485503	
0.449064	
0.405636	
0.352628	
0.296061	
0.245643	
0.205191	
0.18118	
0.170759	
0.169853	
0.174707	
0.178008	
0.175743	
0.162863	
0.138334	
0.105908	
0.069534	
0.0321246	
-0.00418452	
-0.0404289	
-0.0733077	
-0.103274	
-0.130781	
-0.156023	
-0.178352	
-0.197898	
-0.215243	
-0.227799	
-0.225405	
-0.185601	
-0.091171	
0.0493407	
0.212181	
0.369456	
0.503172	
0.598572	
0.651968	
0.669508	
0.658634	
0.630739	
0.595401	
0.550743	
0.498383	
0.441039	
0.391526	
0.354311	
0.329652	
0.316837	
0.314378	
0.316772	
0.314119	
0.30331	
0.282534	
0.250756	
0.211146	
0.168753	
0.125907	
0.0834492	
0.0431273	
0.00267602	
-0.03784	
-0.0769322	
-0.110847	
-0.138548	
-0.160553	
-0.173886	
-0.17408	
-0.141007	
-0.057645	
0.0727053	
0.227262	
0.380912	
0.510356	
0.599543	
0.644266	
0.655398	
0.644137	
0.622002	
0.586922	
0.537604	
0.477218	
0.414567	
0.359554	
0.314637	
0.284152	
0.267713	
0.25904	
0.252892	
0.244737	
0.228944	
0.202538	
0.162928	
0.119823	
0.0745823	
0.026429	
-0.0244425	
-0.0729841	
-0.118031	
-0.160941	
-0.198092	
-0.231812	
-0.260031	
-0.28249	
-0.294593	
-0.285014	
-0.233495	
-0.131363	
0.010378	
0.169853	
0.320203	
0.438579	
0.514693	
0.549254	
0.55372	
0.537798	
0.50958	
0.469517	
0.415797	
0.355088	
0.29276	
0.240012	
0.200661	
0.174513	
0.159433	
0.149207	
0.138916	
0.123512	
0.0998886	
0.0688867	
0.032254	
-0.0112392	
-0.0569978	
-0.10295	
-0.14502	
-0.185795	
-0.226117	
-0.264497	
-0.297376	
-0.324106	
-0.346047	
-0.363069	
-0.372777	
-0.374783	
-0.349477	
-0.278283	
-0.156346	
0.00358213	
0.173413	
0.327193	
0.440068	
0.506538	
0.533009	
0.53165	
0.513074	
0.485115	
0.444404	
0.393856	
0.338519	
0.28577	
0.243119	
0.212052	
0.191211	
0.178914	
0.168882	
0.154449	
0.132573	
0.104354	
0.0707637	
0.0338721	
-0.00683813	
-0.0516905	
-0.0955721	
-0.138095	
-0.176928	
-0.211166	
-0.242815	
-0.272717	
-0.301647	
-0.325918	
-0.344817	
-0.357632	
-0.361774	
-0.341904	
-0.274011	
-0.155375	
-0.00101314	
0.159562	
0.296579	
0.396316	
0.45353	
0.474112	
0.468352	
0.447835	
0.418645	
0.382142	
0.333988	
0.277033	
0.220401	
0.172636	
0.139952	
0.116716	
0.0984647	
0.0824136	
0.0650681	
0.0411857	
0.011543	
-0.0246367	
-0.066965	
-0.1113	
-0.156929	
-0.203076	
-0.243462	
-0.277506	
-0.307084	
-0.335821	
-0.362162	
-0.386563	
-0.407403	
-0.427596	
-0.446884	
-0.467983	
-0.4885	
-0.504616	
-0.5107	
-0.48384	
-0.405073	
-0.278412	
-0.12405	
0.0262349	
0.147459	
0.23231	
0.283311	
0.304993	
0.30454	
0.292825	
0.274444	
0.244478	
0.198719	
0.142799	
0.0906334	
0.0436451	
0.00655935	
-0.02153	
-0.0425647	
-0.0585511	
-0.0754436	
-0.0993907	
-0.127415	
-0.159065	
-0.193691	
-0.230841	
-0.269804	
-0.309996	
-0.351354	
-0.391482	
-0.427791	
-0.458663	
-0.485523	
-0.509082	
-0.526557	
-0.542349	
-0.556199	
-0.56772	
-0.578011	
-0.589725	
-0.604223	
-0.619821	
-0.633866	
-0.646681	
-0.655936	
-0.654706	
-0.617362	
-0.527333	
-0.39407	
-0.235372	
-0.0815274	
0.0464929	
0.139822	
0.195871	
0.224284	
0.235352	
0.235417	
0.226032	
0.20558	
0.173025	
0.133674	
0.0920572	
0.0577545	
0.031801	
0.0126432	
-0.000948414	
-0.0130514	
-0.0281317	
-0.0480014	
-0.0743433	
-0.107481	
-0.143143	
-0.180034	
-0.21725	
-0.250905	
-0.282101	
-0.31155	
-0.336662	
-0.358797	
-0.377178	
-0.393812	
-0.407403	
-0.418924	
-0.426367	
-0.43381	
-0.441123	
-0.447531	
-0.452773	
-0.46054	
-0.471543	
-0.480733	
-0.489018	
-0.495231	
-0.499373	
-0.496202	
-0.462999	
-0.382356	
-0.25919	
-0.11363	
0.029924	
0.152637	
0.24273	
0.302145	
0.333665	
0.345897	
0.346674	
0.33936	
0.322727	
0.296838	
0.262988	
0.22875	
0.200985	
0.181438	
0.171989	
0.167135	
0.160857	
0.151343	
0.135356	
0.116069	
0.0911511	
0.0606023	
0.0253935	
-0.0111745	
-0.0461244	
-0.077191	
-0.106122	
-0.130328	
-0.150715	
-0.169355	
-0.183853	
-0.194597	
-0.204111	
-0.212396	
-0.223204	
-0.236731	
-0.248963	
-0.258995	
-0.268121	
-0.269998	
-0.244886	
-0.178611	
-0.0766085	
0.0477226	
0.170824	
0.275674	
0.353858	
0.402206	
0.423564	
0.425441	
0.420716	
0.408289	
0.381624	
0.344215	
0.304475	
0.267389	
0.237811	
0.216906	
0.205256	
0.198784	
0.194448	
0.184675	
0.170242	
0.149207	
0.12047	
0.087915	
0.0525768	
0.0141966	
-0.0239895	
-0.0629522	
-0.0989377	
-0.131105	
-0.158417	
-0.181199	
-0.200098	
-0.215502	
-0.2289	
-0.24055	
-0.252847	
-0.264756	
-0.276988	
-0.288185	
-0.290062	
-0.263008	
-0.194273	
-0.084893	
0.0483698	
0.188234	
0.307452	
0.397546	
0.454177	
0.482008	
0.491198	
0.486021	
0.472947	
0.44887	
0.413273	
0.371463	
0.330105	
0.292631	
0.263377	
0.243766	
0.231663	
0.223508	
0.21147	
0.197101	
0.173995	
0.144547	
0.109403	
0.0707637	
0.0285649	
-0.0135692	
-0.0540853	
-0.0927891	
-0.128192	
-0.158158	
-0.183724	
-0.20903	
-0.229029	
-0.247863	
-0.263526	
-0.279577	
-0.294204	
-0.309155	
-0.321646	
-0.330772	
-0.318604	
-0.265338	
-0.163595	
-0.023407	
0.134515	
0.284411	
0.403759	
0.485697	
0.532038	
0.547895	
0.541811	
0.524724	
0.498188	
0.46395	
0.423823	
0.379618	
0.33606	
0.298132	
0.272761	
0.255804	
0.24396	
0.234316	
0.220919	
0.204415	
0.17995	
0.146747	
0.106296	
0.0631265	
0.0188565	
-0.0300086	
-0.0781619	
-0.121202	
-0.156799	
-0.189031	
-0.216538	
-0.240226	
-0.263332	
-0.283978	
-0.303136	
-0.319769	
-0.33019	
-0.332649	
-0.310838	
-0.246439	
-0.129487	
0.0249404	
0.189917	
0.338972	
0.451847	
0.521424	
0.553396	
0.553202	
0.532168	
0.499936	
0.462138	
0.414373	
0.360719	
0.306287	
0.258846	
0.221372	
0.19393	
0.174837	
0.164222	
0.155679	
0.142023	
0.121312	
0.0928986	
0.0559423	
0.0127079	
-0.0299439	
-0.0742138	
-0.118807	
-0.163077	
-0.203658	
-0.240744	
-0.272587	
-0.3021	
-0.327924	
-0.347535	
-0.364234	
-0.379702	
-0.387145	
-0.368829	
-0.298411	
-0.173109	
-0.00975062	
0.160339	
0.314378	
0.431395	
0.504013	
0.535921	
0.531844	
0.502913	
0.458967	
0.407319	
0.34635	
0.280787	
0.21956	
0.168688	
0.131279	
0.107655	
0.0971703	
0.0928339	
0.0886917	
0.0800189	
0.0624145	
0.0359432	
0.00254658	
-0.0363514	
-0.0786149	
-0.123273	
-0.16832	
-0.210454	
-0.250193	
-0.287991	
-0.320352	
-0.348959	
-0.374913	
-0.397048	
-0.412775	
-0.42106	
-0.398989	
-0.320999	
-0.180811	
-0.00172508	
0.185969	
0.351658	
0.47327	
0.544659	
0.570354	
0.560192	
0.525436	
0.478707	
0.426282	
0.365638	
0.29975	
0.235934	
0.183251	
0.142864	
0.116263	
0.101442	
0.0945167	
0.0901156	
0.0791128	
0.0618967	
0.0366551	
0.00409991	
-0.0349922	
-0.0758319	
-0.119778	
-0.16366	
-0.208642	
-0.251035	
-0.289997	
-0.326565	
-0.358538	
-0.387598	
-0.412193	
-0.43025	
-0.438988	
-0.414199	
-0.332455	
-0.185989	
0.00481185	
0.207327	
0.387255	
0.521747	
0.599414	
0.625108	
0.6154	
0.58278	
0.538187	
0.488933	
0.43023	
0.367514	
0.308423	
0.25671	
0.21367	
0.184675	
0.168882	
0.15775	
0.145194	
0.131473	
0.109403	
0.0773653	
0.0387262	
-0.00379619	
-0.0503961	
-0.0993907	
-0.146832	
-0.195374	
-0.242038	
-0.282425	
-0.320287	
-0.356208	
-0.388763	
-0.415688	
-0.434781	
-0.43381	
-0.385009	
-0.268963	
-0.0951191	
0.110568	
0.309329	
0.466345	
0.568477	
0.617536	
0.619413	
0.590612	
0.544982	
0.491069	
0.429583	
0.364731	
0.30208	
0.247131	
0.203379	
0.171989	
0.152055	
0.141893	
0.13788	
0.130179	
0.113933	
0.0897272	
0.054389	
0.0136141	
-0.0303322	
-0.0777735	
-0.125538	
-0.172268	
-0.215567	
-0.257636	
-0.297246	
-0.335109	
-0.369735	
-0.397889	
-0.419247	
-0.432062	
-0.418988	
-0.352713	
-0.214984	
-0.0220478	
0.189529	
0.378582	
0.520064	
0.602973	
0.631645	
0.616177	
0.574755	
0.522524	
0.462462	
0.398711	
0.331723	
0.267842	
0.214188	
0.17283	
0.147589	
0.133932	
0.128431	
0.124548	
0.114063	
0.093287	
0.0628676	
0.0257818	
-0.0159639	
-0.0588747	
-0.103533	
-0.151945	
-0.197315	
-0.239838	
-0.281842	
-0.317116	
-0.346888	
-0.371288	
-0.391417	
-0.404167	
-0.395365	
-0.337762	
-0.215308	
-0.0404289	
0.154902	
0.333988	
0.472041	
0.551972	
0.570936	
0.551131	
0.508026	
0.452559	
0.391979	
0.326545	
0.258976	
0.195354	
0.144482	
0.110244	
0.0910864	
0.0848084	
0.0850673	
0.0840317	
0.0767828	
0.0604729	
0.0310243	
-0.00722646	
-0.0510433	
-0.0975138	
-0.144049	
-0.190196	
-0.233819	
-0.276212	
-0.313944	
-0.345982	
-0.373424	
-0.3964	
-0.413099	
-0.407403	
-0.354137	
-0.24042	
-0.0683888	
0.131085	
0.321173	
0.468481	
0.553655	
0.580774	
0.56181	
0.516052	
0.462527	
0.406412	
0.340202	
0.270302	
0.202279	
0.144223	
0.100342	
0.0722523	
0.0581429	
0.0515412	
0.0459751	
0.0372376	
0.0174974	
-0.0149931	
-0.0574508	
-0.104115	
-0.155116	
-0.205794	
-0.255112	
-0.300094	
-0.339833	
-0.379184	
-0.413163	
-0.441576	
-0.466494	
-0.485005	
-0.496267	
-0.485134	
-0.427014	
-0.303589	
-0.120231	
0.0915395	
0.288424	
0.438062	
0.525566	
0.554044	
0.538381	
0.497153	
0.44421	
0.385896	
0.321821	
0.247908	
0.178073	
0.114775	
0.0665567	
0.0355548	
0.0193743	
0.0114782	
0.00714185	
-0.00405508	
-0.0226303	
-0.0513022	
-0.0892941	
-0.1357	
-0.187607	
-0.24055	
-0.29278	
-0.341128	
-0.381903	
-0.414523	
-0.442871	
-0.46753	
-0.489082	
-0.504939	
-0.518919	
-0.531799	
-0.541184	
-0.543384	
-0.515554	
-0.430962	
-0.277635	
-0.0746669	
0.137557	
0.316513	
0.436638	
0.492816	
0.496247	
0.466669	
0.422011	
0.371786	
0.317873	
0.257875	
0.194124	
0.130696	
0.0767828	
0.039244	
0.0161382	
0.00338797	
-0.00405508	
-0.0142164	
-0.0317561	
-0.0585511	
-0.0964135	
-0.140489	
-0.193238	
-0.245274	
-0.295046	
-0.342616	
-0.386304	
-0.422937	
-0.452191	
-0.474067	
-0.488694	
-0.499632	
-0.508434	
-0.517237	
-0.526945	
-0.536912	
-0.542543	
-0.538401	
-0.511217	
-0.434457	
-0.295758	
-0.11007	
0.0857792	
0.255545	
0.374181	
0.435667	
0.447705	
0.426994	
0.389585	
0.347451	
0.301757	
0.248167	
0.188105	
0.128302	
0.0769123	
0.0400854	
0.0140671	
0.000540194	
-0.00638507	
-0.0170642	
-0.032727	
-0.055768	
-0.0887116	
-0.130522	
-0.175763	
-0.223269	
-0.271487	
-0.313491	
-0.353425	
-0.386045	
-0.411545	
-0.432321	
-0.44889	
-0.460864	
-0.470507	
-0.478209	
-0.485458	
-0.492901	
-0.496526	
-0.487141	
-0.438858	
-0.328895	
-0.167414	
0.0191802	
0.195936	
0.333082	
0.415991	
0.445246	
0.435537	
0.408031	
0.369974	
0.324668	
0.273732	
0.214447	
0.154773	
0.103772	
0.0651328	
0.0416387	
0.0308949	
0.0268174	
0.0211218	
0.0112841	
-0.0091034	
-0.039717	
-0.0780972	
-0.12062	
-0.164372	
-0.209677	
-0.252976	
-0.290839	
-0.325594	
-0.354849	
-0.376531	
-0.392129	
-0.40339	
-0.412193	
-0.421901	
-0.43258	
-0.444877	
-0.457369	
-0.463517	
-0.450055	
-0.391287	
-0.269157	
-0.0913005	
0.108302	
0.291854	
0.431072	
0.512945	
0.542523	
0.534174	
0.502007	
0.459485	
0.413467	
0.360913	
0.303893	
0.24396	
0.189464	
0.145388	
0.114839	
0.0989825	
0.088627	
0.0779478	
0.062997	
0.0423507	
0.0122549	
-0.0272903	
-0.0727899	
-0.121202	
-0.169355	
-0.21712	
-0.263138	
-0.302618	
-0.335756	
-0.363198	
-0.386304	
-0.401708	
-0.413293	
-0.418794	
-0.42339	
-0.428567	
-0.433745	
-0.441706	
-0.450314	
-0.459828	
-0.468824	
-0.46397	
-0.421124	
-0.314656	
-0.144243	
0.0695987	
0.280463	
0.455537	
0.572878	
0.628086	
0.634817	
0.610093	
0.570418	
0.524466	
0.474694	
0.41625	
0.354311	
0.299297	
0.254445	
0.219236	
0.194836	
0.180079	
0.169918	
0.15542	
0.132897	
0.100342	
0.0585959	
0.0103132	
-0.0405583	
-0.0964782	
-0.149615	
-0.198545	
-0.244627	
-0.283655	
-0.314139	
-0.339121	
-0.358538	
-0.371677	
-0.381773	
-0.390834	
-0.401708	
-0.413875	
-0.42559	
-0.433939	
-0.430121	
-0.38721	
-0.283978	
-0.117772	
0.0818959	
0.279234	
0.437544	
0.540064	
0.582586	
0.578962	
0.543494	
0.495276	
0.443175	
0.38609	
0.326092	
0.264671	
0.207004	
0.158009	
0.125389	
0.105778	
0.0954228	
0.0883681	
0.0776889	
0.0611201	
0.0352312	
0.00118742	
-0.0418528	
-0.0892941	
-0.138289	
-0.188513	
-0.236019	
-0.280483	
-0.316145	
-0.346888	
-0.369476	
-0.384297	
-0.394782	
-0.406821	
-0.4175	
-0.428567	
-0.4397	
-0.450767	
-0.454456	
-0.437175	
-0.363716	
-0.220097	
-0.02386	
0.188687	
0.380394	
0.523042	
0.601226	
0.619672	
0.594236	
0.546795	
0.490875	
0.430748	
0.36855	
0.304864	
0.243054	
0.191665	
0.152508	
0.126295	
0.115422	
0.11115	
0.106102	
0.0960053	
0.0790481	
0.0505057	
0.0120607	
-0.0313678	
-0.0799094	
-0.131234	
-0.182041	
-0.230712	
-0.273364	
-0.309996	
-0.338086	
-0.363457	
-0.385333	
-0.402225	
-0.41737	
-0.430185	
-0.439505	
-0.441576	
-0.414911	
-0.330772	
-0.180164	
0.0207335	
0.231533	
0.415279	
0.544076	
0.607245	
0.613394	
0.577602	
0.518899	
0.453789	
0.389132	
0.320526	
0.25205	
0.190629	
0.141246	
0.105584	
0.0835139	
0.0760062	
0.0754884	
0.0731584	
0.0640326	
0.0443571	
0.016656	
-0.0176467	
-0.0590689	
-0.105928	
-0.155052	
-0.203917	
-0.248122	
-0.288897	
-0.3254	
-0.35582	
-0.380738	
-0.403779	
-0.422483	
-0.43601	
-0.447855	
-0.449731	
-0.420607	
-0.329672	
-0.166054	
0.0482404	
0.273214	
0.468416	
0.603944	
0.671126	
0.678051	
0.64226	
0.583557	
0.515793	
0.445893	
0.372951	
0.295997	
0.223378	
0.166747	
0.124418	
0.0990472	
0.0908275	
0.0899214	
0.0883681	
0.0831256	
0.0701812	
0.0466223	
0.0114782	
-0.0329211	
-0.0819158	
-0.133176	
-0.181199	
-0.225664	
-0.265662	
-0.303913	
-0.337892	
-0.36747	
-0.39064	
-0.411804	
-0.431998	
-0.444554	
-0.445071	
-0.406821	
-0.301518	
-0.12282	
0.101183	
0.332565	
0.528931	
0.660317	
0.719732	
0.716431	
0.672679	
0.608022	
0.532944	
0.455537	
0.378841	
0.301951	
0.230304	
0.173089	
0.130308	
0.106879	
0.100665	
0.104419	
0.10895	
0.105584	
0.0886917	
0.0585312	
0.019439	
-0.0292967	
-0.0835338	
-0.137577	
-0.190649	
-0.239967	
-0.284561	
-0.324235	
-0.360286	
-0.388828	
-0.414458	
-0.437823	
-0.454197	
-0.459699	
-0.429409	
-0.335109	
-0.167996	
0.0494701	
0.285188	
0.494046	
0.6398	
0.71326	
0.723162	
0.689054	
0.624202	
0.548024	
0.46874	
0.384989	
0.302275	
0.224867	
0.162281	
0.118334	
0.0898567	
0.0771064	
0.0765239	
0.0783362	
0.0747117	
0.0597609	
0.0319951	
-0.00696757	
-0.0549266	
-0.108905	
-0.165666	
-0.218285	
-0.26262	
-0.30333	
-0.340804	
-0.372518	
-0.400219	
-0.423648	
-0.444101	
-0.461446	
-0.469731	
-0.458145	
-0.395235	
-0.259319	
-0.0550561	
0.184416	
0.413144	
0.590223	
0.69229	
0.724716	
0.703357	
0.645302	
0.566729	
0.482914	
0.399164	
0.313277	
0.231404	
0.163381	
0.112121	
0.0804073	
0.066039	
0.0624145	
0.0615084	
0.0571073	
0.0437098	
0.0208629	
-0.0160287	
-0.0595219	
-0.106704	
-0.159194	
-0.211231	
-0.261067	
-0.307149	
-0.346823	
-0.380932	
-0.408698	
-0.433098	
-0.450832	
-0.465718	
-0.474196	
-0.473549	
-0.445525	
-0.359509	
-0.19861	
0.022481	
0.261435	
0.471329	
0.617342	
0.691902	
0.699539	
0.659735	
0.58977	
0.509062	
0.427512	
0.341108	
0.257163	
0.182992	
0.126101	
0.088627	
0.0695987	
0.0658448	
0.0703106	
0.0723817	
0.0650034	
0.0434509	
0.00740074	
-0.0384225	
-0.090718	
-0.146767	
-0.201716	
-0.253494	
-0.300288	
-0.338927	
-0.370706	
-0.400866	
-0.427467	
-0.449537	
-0.468113	
-0.477303	
-0.467983	
-0.417759	
-0.301259	
-0.114795	
0.115098	
0.345703	
0.533333	
0.649703	
0.697921	
0.689377	
0.641483	
0.566729	
0.486733	
0.404859	
0.319685	
0.233604	
0.153867	
0.0935459	
0.0558776	
0.0376907	
0.0319304	
0.0327071	
0.0290179	
0.0180799	
-0.00496118	
-0.0405583	
-0.0867699	
-0.140295	
-0.196992	
-0.251423	
-0.301324	
-0.346435	
-0.385333	
-0.418535	
-0.449278	
-0.475103	
-0.497691	
-0.514648	
-0.52345	
-0.513547	
-0.457369	
-0.327407	
-0.124827	
0.119305	
0.359813	
0.548413	
0.664459	
0.711642	
0.705429	
0.658052	
0.588087	
0.512168	
0.436508	
0.3558	
0.272761	
0.19749	
0.139822	
0.100406	
0.0774948	
0.0671392	
0.0613142	
0.0521884	
0.0346487	
0.00228769	
-0.0392639	
-0.087676	
-0.144373	
-0.202169	
-0.258801	
-0.31032	
-0.356661	
-0.396918	
-0.429732	
-0.45698	
-0.482999	
-0.504875	
-0.522673	
-0.533935	
-0.536459	
-0.522867	
-0.463064	
-0.331161	
-0.126639	
0.121571	
0.362013	
0.548283	
0.661482	
0.707953	
0.704717	
0.662	
0.594365	
0.517087	
0.436573	
0.351075	
0.26616	
0.18927	
0.128625	
0.088627	
0.0659095	
0.0569131	
0.0517354	
0.0431273	
0.0239696	
-0.00657924	
-0.0484544	
-0.0997791	
-0.1579	
-0.219385	
-0.279059	
-0.331031	
-0.378149	
-0.416853	
-0.447013	
-0.469601	
-0.489018	
-0.505069	
-0.521185	
-0.533029	
-0.539113	
-0.539825	
-0.519631	
-0.445719	
-0.291939	
-0.0672238	
0.18694	
0.415668	
0.578897	
0.666013	
0.689572	
0.665495	
0.606922	
0.53165	
0.453207	
0.370103	
0.284541	
0.201308	
0.129014	
0.0778184	
0.0468812	
0.0342604	
0.0321893	
0.0295357	
0.0191154	
-0.00198397	
-0.0364808	
-0.0819158	
-0.137124	
-0.196539	
-0.258542	
-0.318993	
-0.372647	
-0.416788	
-0.454327	
-0.482028	
-0.503321	
-0.521055	
-0.534776	
-0.545844	
-0.552898	
-0.5595	
-0.560018	
-0.539695	
-0.464359	
-0.314139	
-0.0995849	
0.143705	
0.364473	
0.522912	
0.608151	
0.625756	
0.5921	
0.524013	
0.444016	
0.362919	
0.280981	
0.198655	
0.12047	
0.0557481	
0.00694768	
-0.0212064	
-0.0325328	
-0.0353158	
-0.0382931	
-0.0498136	
-0.0721427	
-0.104568	
-0.147738	
-0.197833	
-0.252912	
-0.309802	
-0.366175	
-0.419442	
-0.466494	
-0.502221	
-0.528951	
-0.551216	
-0.568497	
-0.580988	
-0.591796	
-0.60034	
-0.607524	
-0.612831	
-0.608754	
-0.583447	
-0.499891	
-0.343328	
-0.127286	
0.109921	
0.323698	
0.475795	
0.556827	
0.575855	
0.549189	
0.493011	
0.4268	
0.358518	
0.286935	
0.213023	
0.140858	
0.0772359	
0.0270763	
-0.00431396	
-0.0191353	
-0.0240542	
-0.0275492	
-0.0367397	
-0.0555739	
-0.0854108	
-0.124762	
-0.169485	
-0.22055	
-0.270581	
-0.319575	
-0.368117	
-0.411351	
-0.447725	
-0.475167	
-0.497367	
-0.51413	
-0.524809	
-0.533223	
-0.539177	
-0.544032	
-0.546815	
-0.550568	
-0.555487	
-0.548109	
-0.497691	
-0.374136	
-0.180164	
0.052512	
0.282858	
0.465892	
0.584528	
0.636046	
0.633781	
0.597278	
0.541811	
0.479937	
0.413467	
0.342273	
0.269396	
0.200596	
0.148624	
0.112315	
0.0906981	
0.0812487	
0.0785303	
0.0749059	
0.0655212	
0.0442923	
0.0107663	
-0.0342156	
-0.0864463	
-0.138742	
-0.191814	
-0.241003	
-0.286373	
-0.326695	
-0.360803	
-0.389346	
-0.413617	
-0.433486	
-0.450185	
-0.462741	
-0.474714	
-0.482157	
-0.482675	
-0.461576	
-0.389281	
-0.246504	
-0.0443769	
0.182603	
0.394504	
0.551714	
0.641742	
0.668408	
0.646078	
0.596631	
0.532297	
0.463692	
0.389455	
0.311465	
0.233928	
0.167912	
0.117946	
0.0842906	
0.0680453	
0.0651976	
0.067657	
0.0654565	
0.0545831	
0.0319951	
8.71393E-05	
-0.0423058	
-0.0921419	
-0.144114	
-0.196603	
-0.246116	
-0.288897	
-0.325983	
-0.359444	
-0.385786	
-0.405785	
-0.42203	
-0.435687	
-0.448113	
-0.45944	
-0.465394	
-0.461252	
-0.42216	
-0.318993	
-0.14256	
0.0833198	
0.313342	
0.507444	
0.639088	
0.698568	
0.696562	
0.654557	
0.589382	
0.514628	
0.436249	
0.356382	
0.275091	
0.199755	
0.144223	
0.109597	
0.0938047	
0.0906334	
0.0938695	
0.0954875	
0.0922514	
0.0786598	
0.0533534	
0.0191154	
-0.0230187	
-0.0693597	
-0.116607	
-0.16586	
-0.213043	
-0.257895	
-0.299447	
-0.335756	
-0.366628	
-0.392064	
-0.411157	
-0.424813	
-0.432451	
-0.429603	
-0.39187	
-0.289803	
-0.113371	
0.113221	
0.347515	
0.545953	
0.678763	
0.739731	
0.735201	
0.687954	
0.619542	
0.542523	
0.458837	
0.372045	
0.286224	
0.208233	
0.146812	
0.108497	
0.0935459	
0.0927692	
0.0990472	
0.107655	
0.106167	
0.094452	
0.0680453	
0.0302476	
-0.0173231	
-0.0691008	
-0.119908	
-0.172009	
-0.220939	
-0.264432	
-0.303006	
-0.337633	
-0.367793	
-0.394782	
-0.418277	
-0.432839	
-0.430056	
-0.383068	
-0.258672	
-0.0579686	
0.18338	
0.418386	
0.606533	
0.724457	
0.768015	
0.753129	
0.699409	
0.627309	
0.547312	
0.466539	
0.380071	
0.293537	
0.2171	
0.158462	
0.121441	
0.103707	
0.100989	
0.104678	
0.108044	
0.104743	
0.0893389	
0.0597609	
0.0211218	
-0.0263195	
-0.0793269	
-0.13557	
-0.188707	
-0.239061	
-0.283525	
-0.323912	
-0.362227	
-0.394847	
-0.418924	
-0.436916	
-0.449278	
-0.43148	
-0.350707	
-0.190843	
0.0349724	
0.287647	
0.516246	
0.683876	
0.77384	
0.795845	
0.765879	
0.704264	
0.62828	
0.547442	
0.462721	
0.372174	
0.28467	
0.209916	
0.156456	
0.126036	
0.114904	
0.113804	
0.118205	
0.116004	
0.10429	
0.0767181	
0.0391146	
-0.00657924	
-0.0594572	
-0.113435	
-0.16709	
-0.218609	
-0.265338	
-0.308508	
-0.346629	
-0.378214	
-0.406303	
-0.430962	
-0.446884	
-0.439635	
-0.37776	
-0.239579	
-0.029685	
0.214641	
0.444469	
0.616953	
0.720897	
0.75753	
0.738113	
0.682258	
0.607763	
0.525954	
0.440586	
0.350946	
0.262924	
0.18914	
0.135292	
0.10073	
0.0826725	
0.0791775	
0.0835786	
0.0833845	
0.0702459	
0.0431921	
0.00461769	
-0.0432767	
-0.0979668	
-0.155505	
-0.209159	
-0.258801	
-0.305336	
-0.346435	
-0.38132	
-0.409992	
-0.433551	
-0.453226	
-0.465329	
-0.465459	
-0.441123	
-0.355755	
-0.191749	
0.0324482	
0.27658	
0.490486	
0.637406	
0.713907	
0.727693	
0.694167	
0.631581	
0.553655	
0.469646	
0.382789	
0.293214	
0.207521	
0.14021	
0.0961995	
0.074647	
0.0703106	
0.0743881	
0.0767181	
0.0679806	
0.045069	
0.00986018	
-0.03318	
-0.0854755	
-0.141525	
-0.196862	
-0.249675	
-0.298346	
-0.343005	
-0.380479	
-0.410445	
-0.43847	
-0.461381	
-0.474391	
-0.477497	
-0.459699	
-0.390317	
-0.247216	
-0.0370633	
0.205645	
0.4279	
0.586534	
0.673003	
0.696756	
0.678504	
0.631257	
0.566859	
0.491522	
0.40583	
0.313601	
0.225061	
0.150566	
0.097947	
0.0669451	
0.0554245	
0.0527062	
0.0500526	
0.0411857	
0.0209277	
-0.0131162	
-0.0591983	
-0.1135	
-0.172915	
-0.233624	
-0.288444	
-0.337568	
-0.379055	
-0.416853	
-0.448113	
-0.47329	
-0.495555	
-0.512512	
-0.520214	
-0.510117	
-0.454327	
-0.329607	
-0.132787	
0.104225	
0.333212	
0.507832	
0.611646	
0.653586	
0.648538	
0.60951	
0.550484	
0.480584	
0.402011	
0.318067	
0.230757	
0.149207	
0.0859086	
0.0433862	
0.0191802	
0.00772435	
0.00267602	
-0.00509063	
-0.022695	
-0.0527261	
-0.0937599	
-0.145279	
-0.206829	
-0.26961	
-0.33006	
-0.386951	
-0.43834	
-0.476721	
-0.503774	
-0.523774	
-0.537559	
-0.547009	
-0.553093	
-0.557235	
-0.563125	
-0.56882	
-0.575228	
-0.573933	
-0.544614	
-0.448502	
-0.272846	
-0.0360278	
0.218395	
0.436508	
0.586987	
0.664718	
0.683553	
0.661741	
0.614818	
0.556244	
0.494952	
0.423629	
0.340849	
0.257616	
0.185969	
0.130243	
0.0910864	
0.0667509	
0.0534181	
0.0404737	
0.0202804	
-0.00949173	
-0.0503961	
-0.100038	
-0.156281	
-0.215826	
-0.275564	
-0.329866	
-0.377631	
-0.420671	
-0.45588	
-0.485264	
-0.507334	
-0.524032	
-0.536135	
-0.543708	
-0.547073	
-0.548109	
-0.545908	
-0.54319	
-0.542155	
-0.544161	
-0.550568	
-0.561248	
-0.571733	
-0.583706	
-0.594321	
-0.601246	
-0.581829	
-0.491995	
-0.310255	
-0.0554444	
0.22655	
0.475859	
0.654622	
0.757595	
0.791897	
0.778953	
0.735719	
0.673326	
0.604268	
0.529838	
0.44887	
0.366285	
0.29289	
0.237164	
0.200014	
0.181503	
0.17173	
0.164222	
0.151278	
0.126748	
0.0892742	
0.040409	
-0.0144753	
-0.0731136	
-0.134535	
-0.192073	
-0.246957	
-0.297829	
-0.34061	
-0.373359	
-0.398148	
-0.413552	
-0.424166	
-0.431739	
-0.436852	
-0.441965	
-0.450832	
-0.461123	
-0.471349	
-0.479763	
-0.479051	
-0.442224	
-0.340222	
-0.167867	
0.0502468	
0.272956	
0.460455	
0.587893	
0.650868	
0.655657	
0.616047	
0.553591	
0.485503	
0.411849	
0.330493	
0.245966	
0.168429	
0.106879	
0.0657801	
0.0436451	
0.0393087	
0.0424801	
0.0442923	
0.0349724	
0.0121902	
-0.0228245	
-0.0672238	
