0
337.0
305.0
289.0
273.0
273.0
289.0
305.0
337.0
385.0
434.0
482.0
546.0
594.0
642.0
674.0
707.0
739.0
755.0
787.0
803.0
835.0
851.0
883.0
931.0
964.0
1012.0
1060.0
1108.0
1172.0
1253.0
1349.0
1445.0
1558.0
1670.0
1766.0
1879.0
1991.0
2104.0
2200.0
2296.0
2393.0
2505.0
2666.0
2810.0
2891.0
2955.0
3003.0
3019.0
3019.0
3019.0
3003.0
3003.0
2987.0
2971.0
2939.0
2923.0
2891.0
2858.0
2810.0
2778.0
2746.0
2698.0
2666.0
2634.0
2618.0
2602.0
2585.0
2569.0
2553.0
2537.0
2521.0
2505.0
2473.0
2457.0
2425.0
2409.0
2377.0
2361.0
2329.0
2312.0
2296.0
2264.0
2264.0
2248.0
2248.0
2232.0
2232.0
2216.0
2216.0
2200.0
2184.0
2168.0
2152.0
2120.0
2104.0
2072.0
2056.0
2023.0
2007.0
1991.0
1959.0
1943.0
1927.0
1911.0
1879.0
1847.0
1815.0
1783.0
1750.0
1718.0
1702.0
1670.0
1670.0
1654.0
1654.0
1670.0
1670.0
1670.0
1686.0
1686.0
1702.0
1734.0
1750.0
1783.0
1831.0
1863.0
1879.0
1911.0
1943.0
1959.0
1975.0
1991.0
2007.0
2007.0
2023.0
2039.0
2072.0
2088.0
2120.0
2136.0
2168.0
2200.0
2216.0
2248.0
2264.0
2280.0
2312.0
2329.0
2345.0
2361.0
2377.0
2393.0
2409.0
2425.0
2457.0
2489.0
2505.0
2537.0
2553.0
2569.0
2585.0
2585.0
2585.0
2585.0
2585.0
2585.0
2585.0
2569.0
2569.0
2569.0
2569.0
2569.0
2553.0
2537.0
2537.0
2521.0
2505.0
2505.0
2489.0
2473.0
2473.0
2457.0
2457.0
2457.0
2457.0
2473.0
2473.0
2473.0
2473.0
2473.0
2473.0
2457.0
2441.0
2409.0
2377.0
2329.0
2296.0
2248.0
2216.0
2168.0
2152.0
2136.0
2120.0
2104.0
2104.0
2104.0
2104.0
2104.0
2104.0
2104.0
2104.0
2104.0
2104.0
2104.0
2104.0
2088.0
2088.0
2104.0
2120.0
2136.0
2168.0
2216.0
2248.0
2296.0
2361.0
2393.0
2441.0
2489.0
2521.0
2569.0
2602.0
2650.0
2666.0
2698.0
2730.0
2746.0
2746.0
2762.0
2762.0
2762.0
2746.0
2762.0
2762.0
2778.0
2794.0
2810.0
2810.0
2826.0
2842.0
2842.0
2842.0
2842.0
2842.0
2842.0
2842.0
2858.0
2858.0
2875.0
2858.0
2858.0
2826.0
2794.0
2762.0
2730.0
2698.0
2666.0
2634.0
2618.0
2585.0
2553.0
2537.0
2505.0
2473.0
2425.0
2393.0
2361.0
2329.0
2296.0
2280.0
2264.0
2248.0
2232.0
2216.0
2216.0
2200.0
2184.0
2152.0
2136.0
2120.0
2104.0
2088.0
2072.0
2056.0
2039.0
2023.0
2023.0
2007.0
2007.0
1879.0
1718.0
1638.0
1606.0
1590.0
1590.0
1590.0
1590.0
1574.0
1574.0
1558.0
1574.0
1574.0
1606.0
1622.0
1654.0
1686.0
1718.0
1766.0
1799.0
1831.0
1863.0
1895.0
1943.0
1975.0
2039.0
2088.0
2152.0
2216.0
2280.0
2345.0
2409.0
2457.0
2489.0
2505.0
2521.0
2521.0
2505.0
2489.0
2489.0
2457.0
2441.0
2409.0
2377.0
2329.0
2264.0
2200.0
2120.0
2056.0
1975.0
1911.0
1847.0
1783.0
1734.0
1686.0
1622.0
1574.0
1526.0
1477.0
1445.0
1413.0
1397.0
1397.0
1397.0
1397.0
1397.0
1413.0
1413.0
1429.0
1445.0
1445.0
1461.0
1477.0
1493.0
1493.0
1510.0
1526.0
1542.0
1574.0
1590.0
1606.0
1622.0
1638.0
1638.0
1654.0
1654.0
1638.0
1638.0
1638.0
1638.0
1638.0
1654.0
1654.0
1670.0
1670.0
1686.0
1702.0
1718.0
1718.0
1734.0
1734.0
1734.0
1750.0
1750.0
1734.0
1734.0
1750.0
1750.0
1766.0
1783.0
1815.0
1863.0
1895.0
1943.0
1991.0
2039.0
2088.0
2152.0
2216.0
2312.0
2409.0
2505.0
2602.0
2698.0
2778.0
2858.0
2923.0
2955.0
2987.0
3019.0
3051.0
3067.0
3083.0
3083.0
3067.0
3067.0
3051.0
3035.0
3035.0
3019.0
3019.0
3035.0
3051.0
3083.0
3099.0
3148.0
3180.0
3212.0
3260.0
3308.0
3340.0
3388.0
3404.0
3421.0
3453.0
3485.0
3517.0
3549.0
3565.0
3581.0
3581.0
3581.0
3549.0
3533.0
3501.0
3469.0
3453.0
3437.0
3437.0
3453.0
3469.0
3501.0
3549.0
3597.0
3629.0
3677.0
3694.0
3694.0
3661.0
3597.0
3517.0
3404.0
3260.0
3131.0
2987.0
2842.0
2730.0
2618.0
2521.0
2425.0
2361.0
2280.0
2216.0
2136.0
2072.0
2007.0
1959.0
1911.0
1847.0
1799.0
1750.0
1718.0
1686.0
1670.0
1670.0
1702.0
1750.0
1815.0
1879.0
1975.0
2056.0
2120.0
2184.0
2216.0
2232.0
2248.0
2232.0
2232.0
2216.0
2200.0
2184.0
2168.0
2152.0
2136.0
2120.0
2120.0
2104.0
2088.0
2088.0
2088.0
2104.0
2104.0
2120.0
2136.0
2152.0
2184.0
2200.0
2232.0
2248.0
2264.0
2280.0
2296.0
2312.0
2329.0
2329.0
2329.0
2329.0
2312.0
2312.0
2296.0
2264.0
2248.0
2216.0
2200.0
2168.0
2152.0
2007.0
1831.0
1718.0
1654.0
1622.0
1606.0
1590.0
1574.0
1574.0
1574.0
1574.0
1558.0
1558.0
1558.0
1558.0
1558.0
1558.0
1558.0
1558.0
1558.0
1558.0
1542.0
1542.0
1542.0
1526.0
1510.0
1510.0
1493.0
1477.0
1461.0
1461.0
1445.0
1445.0
1429.0
1429.0
1445.0
1445.0
1461.0
1493.0
1510.0
1542.0
1590.0
1622.0
1670.0
1718.0
1766.0
1799.0
1847.0
1911.0
1959.0
2007.0
2056.0
2088.0
2136.0
2168.0
2200.0
2216.0
2232.0
2248.0
2248.0
2248.0
2248.0
2232.0
2232.0
2216.0
2200.0
2184.0
2168.0
2136.0
2120.0
2104.0
2072.0
2056.0
2023.0
2007.0
1991.0
1959.0
1943.0
1927.0
1895.0
1879.0
1863.0
1847.0
1831.0
1799.0
1783.0
1783.0
1766.0
1766.0
1766.0
1766.0
1766.0
1766.0
1766.0
1766.0
1766.0
1750.0
1734.0
1718.0
1702.0
1686.0
1654.0
1638.0
1638.0
1622.0
1606.0
1606.0
1606.0
1590.0
1590.0
1590.0
1590.0
1590.0
1590.0
1606.0
1606.0
1622.0
1638.0
1654.0
1670.0
1686.0
1702.0
1702.0
1718.0
1718.0
1718.0
1718.0
1718.0
1702.0
1702.0
1686.0
1670.0
1670.0
1654.0
1654.0
1638.0
1638.0
1622.0
1606.0
1590.0
1574.0
1558.0
1526.0
1510.0
1477.0
1461.0
1429.0
1413.0
1397.0
1381.0
1365.0
1365.0
1365.0
1365.0
1365.0
1365.0
1381.0
1397.0
1397.0
1413.0
1413.0
1429.0
1429.0
1429.0
1429.0
1413.0
1413.0
1397.0
1381.0
1365.0
1365.0
1349.0
1333.0
1333.0
1317.0
1301.0
1285.0
1253.0
1237.0
1220.0
1204.0
1188.0
1188.0
1188.0
1172.0
1172.0
1172.0
1172.0
1188.0
1188.0
1188.0
1204.0
1204.0
1220.0
1220.0
1237.0
1237.0
1237.0
1237.0
1237.0
1220.0
1220.0
1220.0
1204.0
1204.0
1188.0
1188.0
1172.0
1156.0
1156.0
1140.0
1140.0
1124.0
1108.0
1108.0
1092.0
1076.0
1060.0
1044.0
1028.0
1012.0
1012.0
1012.0
1012.0
1028.0
1044.0
1044.0
1060.0
1076.0
1076.0
1076.0
1076.0
1060.0
1060.0
1060.0
1044.0
1028.0
1012.0
1012.0
1012.0
1012.0
1012.0
1012.0
1028.0
1028.0
1028.0
1044.0
1044.0
1060.0
1076.0
1092.0
1108.0
1124.0
1124.0
1124.0
1124.0
1124.0
1124.0
1124.0
1092.0
1060.0
1012.0
947.0
883.0
835.0
787.0
755.0
723.0
723.0
739.0
771.0
787.0
835.0
867.0
899.0
931.0
964.0
996.0
1012.0
1028.0
1044.0
1044.0
1060.0
1060.0
1076.0
1076.0
1076.0
1076.0
1060.0
1060.0
1028.0
1012.0
980.0
931.0
899.0
851.0
819.0
787.0
755.0
707.0
658.0
626.0
578.0
530.0
466.0
401.0
337.0
273.0
209.0
128.0
64.0
32.0
16.0
0.0
0.0
0.0
0.0
0.0
0.0
0.0
0.0
0.0
0.0
0.0
0.0
0.0
0.0
0.0
0.0
0.0
0.0
0.0
0.0
0.0
0.0
0.0
0.0
0.0
0.0
0.0
0.0
0.0
0.0
0.0
0.0
0.0
0.0
0.0
0.0
0.0
0.0
0.0
0.0
0.0
0.0
0.0
0.0
0.0
0.0
0.0
0.0
16.0
64.0
145.0
225.0
305.0
385.0
466.0
514.0
562.0
594.0
626.0
658.0
674.0
707.0
723.0
755.0
787.0
835.0
867.0
915.0
964.0
996.0
1044.0
1092.0
1124.0
1156.0
1172.0
1188.0
1204.0
1204.0
1188.0
1188.0
1188.0
1188.0
1188.0
1188.0
1188.0
1172.0
1172.0
1156.0
1140.0
1124.0
1092.0
1076.0
1044.0
1028.0
1012.0
1012.0
996.0
996.0
996.0
1012.0
1044.0
1076.0
1124.0
1172.0
1220.0
1285.0
1333.0
1397.0
1445.0
1510.0
1558.0
1606.0
1670.0
1718.0
1750.0
1799.0
1831.0
1847.0
1863.0
1879.0
1879.0
1879.0
1879.0
1863.0
1847.0
1831.0
1799.0
1783.0
1750.0
1734.0
1718.0
1702.0
1702.0
1702.0
1718.0
1718.0
1718.0
1718.0
1702.0
1686.0
1670.0
1654.0
1638.0
1622.0
1606.0
1590.0
1574.0
1558.0
1526.0
1510.0
1477.0
1461.0
1445.0
1429.0
1413.0
1397.0
1381.0
1381.0
1381.0
1397.0
1413.0
1429.0
1445.0
1477.0
1510.0
1526.0
1558.0
1590.0
1606.0
1622.0
1638.0
1654.0
1654.0
1638.0
1638.0
1622.0
1606.0
1574.0
1558.0
1526.0
1510.0
1493.0
1461.0
1445.0
1429.0
1397.0
1365.0
1349.0
1317.0
1285.0
1269.0
1253.0
1237.0
1237.0
1220.0
1220.0
1204.0
1188.0
1172.0
1542.0
2088.0
2361.0
2489.0
2553.0
2585.0
2602.0
2602.0
2602.0
2602.0
2602.0
2602.0
2585.0
2585.0
2585.0
2569.0
2569.0
2569.0
2553.0
2553.0
2553.0
2553.0
2553.0
2537.0
2537.0
2521.0
2521.0
2505.0
2505.0
2505.0
2505.0
2505.0
2521.0
2521.0
2537.0
2537.0
2537.0
2537.0
2521.0
2521.0
2505.0
2505.0
2505.0
2489.0
2489.0
2489.0
2505.0
2505.0
2505.0
2505.0
2505.0
2521.0
2521.0
2521.0
2521.0
2521.0
2521.0
2521.0
2521.0
2505.0
2505.0
2505.0
2489.0
2489.0
2489.0
2505.0
2505.0
2521.0
2521.0
2537.0
2553.0
2569.0
2602.0
2618.0
2650.0
2698.0
2730.0
2778.0
2826.0
2891.0
2939.0
3003.0
3051.0
3099.0
3148.0
3196.0
3244.0
3292.0
3340.0
3388.0
3421.0
3453.0
3485.0
3517.0
3533.0
3533.0
3549.0
3549.0
3549.0
3549.0
3533.0
3533.0
3517.0
3501.0
3501.0
3485.0
3485.0
3469.0
3453.0
3453.0
3437.0
3437.0
3421.0
3404.0
3388.0
3388.0
3372.0
3340.0
3324.0
3308.0
3292.0
3276.0
3260.0
3228.0
3212.0
3196.0
3180.0
3164.0
3164.0
3148.0
3131.0
3115.0
3099.0
3083.0
3067.0
3051.0
3035.0
3019.0
2987.0
2971.0
2955.0
2939.0
2907.0
2891.0
2875.0
2875.0
2858.0
2842.0
2826.0
2810.0
2794.0
2778.0
2778.0
2762.0
2746.0
2746.0
2730.0
2730.0
2714.0
2714.0
2698.0
2682.0
2682.0
2682.0
2682.0
2682.0
2698.0
2714.0
2730.0
2762.0
2778.0
2810.0
2842.0
2891.0
2923.0
2971.0
3019.0
3051.0
3099.0
3148.0
3196.0
3244.0
3276.0
3308.0
3340.0
3372.0
3404.0
3437.0
3453.0
3469.0
3485.0
3485.0
3485.0
3469.0
3469.0
3453.0
3453.0
3437.0
3421.0
3421.0
3404.0
3388.0
3372.0
3356.0
3356.0
3340.0
3324.0
3308.0
3292.0
3260.0
3244.0
3228.0
3212.0
3180.0
3164.0
3148.0
3115.0
3099.0
3083.0
3067.0
3051.0
3035.0
3019.0
3003.0
3003.0
2987.0
2971.0
2971.0
2955.0
2939.0
2923.0
2907.0
2891.0
2891.0
2875.0
2858.0
2842.0
2842.0
2842.0
2842.0
2858.0
2891.0
2907.0
2939.0
2971.0
2987.0
3003.0
3019.0
3035.0
3035.0
3019.0
3019.0
3003.0
2971.0
2955.0
2923.0
2618.0
2184.0
1943.0
1799.0
1718.0
1638.0
1590.0
1558.0
1526.0
1493.0
1477.0
1461.0
1445.0
1445.0
1461.0
1477.0
1493.0
1510.0
1558.0
1590.0
1654.0
1718.0
1799.0
1879.0
1959.0
2056.0
2136.0
2216.0
2312.0
2393.0
2489.0
2569.0
2666.0
2746.0
2810.0
2875.0
2923.0
2971.0
3003.0
3019.0
3035.0
3035.0
3035.0
3035.0
3019.0
2987.0
2955.0
2923.0
2891.0
2858.0
2810.0
2778.0
2762.0
2714.0
2682.0
2650.0
2618.0
2569.0
2537.0
2489.0
2457.0
2425.0
2409.0
2377.0
2361.0
2329.0
2312.0
2280.0
2248.0
2216.0
2184.0
2136.0
2104.0
2072.0
2039.0
2007.0
1991.0
1991.0
1975.0
1991.0
2007.0
2023.0
2056.0
2088.0
2120.0
2152.0
2200.0
2248.0
2280.0
2329.0
2377.0
2409.0
2457.0
2505.0
2553.0
2585.0
2634.0
2650.0
2666.0
2682.0
2682.0
2682.0
2682.0
2666.0
2650.0
2634.0
2602.0
2585.0
2553.0
2537.0
2505.0
2473.0
2441.0
2409.0
2377.0
2345.0
2312.0
2280.0
2248.0
2216.0
2184.0
2152.0
2120.0
2104.0
2072.0
2056.0
2023.0
2007.0
1991.0
1959.0
1943.0
1927.0
1895.0
1879.0
1847.0
1831.0
1815.0
1783.0
1766.0
1750.0
1734.0
1718.0
1718.0
1718.0
1718.0
1734.0
1750.0
1799.0
1831.0
1895.0
1943.0
1975.0
2023.0
2072.0
2104.0
2152.0
2184.0
2232.0
2264.0
2296.0
2312.0
2329.0
2329.0
2329.0
2312.0
2296.0
2280.0
2264.0
2264.0
2248.0
2248.0
2248.0
2232.0
2232.0
2216.0
2200.0
2184.0
2168.0
2136.0
2120.0
2088.0
2072.0
2056.0
2039.0
2039.0
2023.0
2023.0
2023.0
2023.0
2023.0
2023.0
2023.0
2007.0
1991.0
1975.0
1959.0
1943.0
1911.0
1879.0
1863.0
1847.0
1831.0
1815.0
1799.0
1783.0
1766.0
1750.0
1734.0
1718.0
1702.0
1686.0
1670.0
1654.0
1638.0
1622.0
1606.0
1590.0
1574.0
1558.0
1558.0
1542.0
1526.0
1510.0
1510.0
1493.0
1493.0
1477.0
1477.0
1461.0
1445.0
1445.0
1429.0
1413.0
1413.0
1397.0
1381.0
1365.0
1349.0
1349.0
1333.0
1333.0
1317.0
1317.0
1301.0
1301.0
1285.0
1285.0
1285.0
1285.0
1301.0
1333.0
1381.0
1429.0
1510.0
1606.0
1718.0
1815.0
1895.0
2007.0
2152.0
2312.0
2457.0
2602.0
2730.0
2842.0
2955.0
3083.0
3196.0
3308.0
3421.0
3517.0
3613.0
3694.0
3758.0
3822.0
3838.0
3854.0
3870.0
3870.0
3854.0
3838.0
3822.0
3790.0
3758.0
3710.0
3677.0
3629.0
3581.0
3533.0
3469.0
3421.0
3372.0
3308.0
3244.0
3196.0
3131.0
3083.0
3019.0
2971.0
2923.0
2875.0
2826.0
2778.0
2730.0
2666.0
2618.0
2569.0
2521.0
2473.0
2425.0
2377.0
2312.0
2264.0
2216.0
2168.0
2120.0
2072.0
2039.0
1991.0
1959.0
1943.0
1927.0
1943.0
1959.0
1975.0
1991.0
2007.0
2023.0
2023.0
2007.0
1991.0
1943.0
1911.0
1863.0
1815.0
1766.0
1718.0
1654.0
1622.0
1590.0
1542.0
1493.0
1461.0
1429.0
1413.0
1397.0
1397.0
1429.0
1461.0
1510.0
1574.0
1638.0
1718.0
1799.0
1895.0
1991.0
2088.0
2184.0
2264.0
2361.0
2441.0
2505.0
2569.0
2634.0
2666.0
2714.0
2746.0
2778.0
2810.0
2810.0
2826.0
2810.0
2794.0
2778.0
2762.0
2730.0
2698.0
2666.0
2634.0
2602.0
2569.0
2537.0
2489.0
2457.0
2409.0
2361.0
2329.0
2280.0
2232.0
2200.0
2168.0
2120.0
2072.0
2023.0
1991.0
1943.0
1895.0
1863.0
1815.0
1783.0
1750.0
1718.0
1686.0
1654.0
1622.0
1590.0
1574.0
1542.0
1510.0
1493.0
1477.0
1445.0
1429.0
1429.0
1413.0
1381.0
1365.0
1349.0
1333.0
1317.0
1301.0
1285.0
1269.0
1253.0
1237.0
1220.0
1204.0
1188.0
1172.0
1156.0
1140.0
1124.0
1108.0
1092.0
1076.0
1060.0
1044.0
1044.0
1028.0
1028.0
1028.0
1012.0
1012.0
996.0
996.0
996.0
980.0
980.0
964.0
947.0
947.0
947.0
947.0
931.0
931.0
915.0
915.0
899.0
899.0
883.0
883.0
883.0
883.0
883.0
883.0
883.0
867.0
867.0
867.0
851.0
851.0
851.0
851.0
851.0
851.0
851.0
851.0
851.0
851.0
835.0
835.0
835.0
835.0
835.0
835.0
835.0
835.0
835.0
851.0
851.0
867.0
867.0
899.0
931.0
980.0
1060.0
1156.0
1269.0
1397.0
1542.0
1670.0
1799.0
1943.0
2104.0
2280.0
2457.0
2650.0
2810.0
2987.0
3148.0
3292.0
3421.0
3340.0
3131.0
3067.0
3051.0
3067.0
3083.0
3083.0
3099.0
3099.0
3083.0
3067.0
3051.0
3035.0
3019.0
3003.0
2987.0
2971.0
2955.0
2923.0
2907.0
2891.0
2858.0
2842.0
2810.0
2778.0
2746.0
2714.0
2682.0
2650.0
2618.0
2585.0
2553.0
2521.0
2489.0
2457.0
2425.0
2393.0
2361.0
2329.0
2312.0
2280.0
2248.0
2216.0
2200.0
2168.0
2136.0
2104.0
2072.0
2039.0
2023.0
1991.0
1959.0
1943.0
1911.0
1895.0
1863.0
1847.0
1831.0
1815.0
1799.0
1783.0
1766.0
1750.0
1734.0
1734.0
1718.0
1702.0
1686.0
1670.0
1654.0
1638.0
1606.0
1590.0
1574.0
1542.0
1526.0
1510.0
1493.0
1477.0
1461.0
1445.0
1429.0
1413.0
1397.0
1397.0
1381.0
1365.0
1365.0
1349.0
1349.0
1333.0
1333.0
1317.0
1317.0
1301.0
1285.0
1285.0
1269.0
1253.0
1237.0
1237.0
1220.0
1220.0
1204.0
1204.0
1188.0
1188.0
1188.0
1172.0
1172.0
1172.0
1156.0
1156.0
1156.0
1156.0
1140.0
1140.0
1140.0
1140.0
1140.0
1156.0
1172.0
1188.0
1237.0
1269.0
1317.0
1381.0
1445.0
1510.0
1590.0
1670.0
1766.0
1847.0
1943.0
2023.0
2104.0
2184.0
2248.0
2296.0
2361.0
2425.0
2489.0
2553.0
2602.0
2650.0
2682.0
2698.0
2714.0
2714.0
2714.0
2714.0
2698.0
2666.0
2650.0
2634.0
2602.0
2585.0
2569.0
2537.0
2521.0
2489.0
2473.0
2441.0
2425.0
2393.0
2377.0
2345.0
2329.0
2296.0
2280.0
2248.0
2232.0
2200.0
2184.0
2168.0
2136.0
2120.0
2104.0
2088.0
2056.0
2039.0
2023.0
1991.0
1975.0
1959.0
1943.0
1943.0
1927.0
1927.0
1943.0
1959.0
1991.0
2023.0
2056.0
2088.0
2120.0
2152.0
2184.0
2216.0
2232.0
2248.0
2264.0
2264.0
2280.0
2264.0
2264.0
2248.0
2232.0
2216.0
2200.0
2184.0
2152.0
2136.0
2120.0
2088.0
2072.0
2056.0
2023.0
2007.0
1975.0
1959.0
1927.0
1911.0
1879.0
1863.0
1847.0
1831.0
1799.0
1783.0
1750.0
1734.0
1718.0
1702.0
1686.0
1670.0
1654.0
1638.0
1638.0
1622.0
1606.0
1590.0
1590.0
1574.0
1558.0
1542.0
1526.0
1526.0
1510.0
1493.0
1477.0
1477.0
1461.0
1445.0
1445.0
1429.0
1413.0
1381.0
1333.0
1301.0
1269.0
1253.0
1237.0
1237.0
1220.0
1220.0
1204.0
1188.0
1188.0
1172.0
1156.0
1156.0
1140.0
1124.0
1108.0
1108.0
1092.0
1092.0
1076.0
1076.0
1060.0
1044.0
1044.0
1028.0
1012.0
1012.0
1012.0
996.0
996.0
996.0
996.0
996.0
996.0
996.0
996.0
996.0
996.0
1012.0
1028.0
1060.0
1108.0
1156.0
1204.0
1285.0
1381.0
1477.0
1590.0
1718.0
1831.0
1959.0
2072.0
2200.0
2312.0
2409.0
2489.0
2569.0
2666.0
2746.0
2826.0
2907.0
2971.0
3019.0
3067.0
3099.0
3115.0
3131.0
3131.0
3131.0
3115.0
3099.0
3083.0
3051.0
3019.0
3003.0
2971.0
2939.0
2907.0
2875.0
2842.0
2810.0
2778.0
2746.0
2714.0
2682.0
2634.0
2602.0
2569.0
2521.0
2489.0
2457.0
2425.0
2393.0
2361.0
2345.0
2312.0
2280.0
2248.0
2232.0
2200.0
2168.0
2136.0
2104.0
2072.0
2056.0
2023.0
1991.0
1959.0
1943.0
1911.0
1879.0
1863.0
1831.0
1815.0
1783.0
1766.0
1750.0
1734.0
1702.0
1686.0
1670.0
1638.0
1606.0
1590.0
1558.0
1542.0
1526.0
1526.0
1526.0
1542.0
1558.0
1590.0
1622.0
1670.0
1734.0
1799.0
1863.0
1927.0
1991.0
2056.0
2104.0
2152.0
2200.0
2232.0
2280.0
2312.0
2329.0
2361.0
2377.0
2377.0
2377.0
2361.0
2345.0
2329.0
2312.0
2280.0
2264.0
2232.0
2216.0
2184.0
2152.0
2136.0
2104.0
2088.0
2056.0
2039.0
2007.0
1991.0
1959.0
1943.0
1911.0
1879.0
1863.0
1831.0
1799.0
1783.0
1750.0
1734.0
1702.0
1686.0
1670.0
1654.0
1638.0
1622.0
1606.0
1590.0
1590.0
1590.0
1590.0
1606.0
1638.0
1670.0
1702.0
1734.0
1783.0
1831.0
1879.0
1927.0
1959.0
2007.0
2023.0
2056.0
2056.0
2072.0
2072.0
2072.0
2056.0
2039.0
2039.0
2007.0
1991.0
1975.0
1959.0
1943.0
1927.0
1911.0
1895.0
1879.0
1863.0
1847.0
1831.0
1815.0
1783.0
1766.0
1750.0
1734.0
1718.0
1686.0
1670.0
1654.0
1654.0
1622.0
1606.0
1590.0
1574.0
1558.0
1542.0
1526.0
1510.0
1493.0
1477.0
1477.0
1461.0
1445.0
1429.0
1413.0
1397.0
1381.0
1365.0
1349.0
1333.0
1317.0
1317.0
1301.0
1301.0
1301.0
1285.0
1285.0
1269.0
1269.0
1253.0
1253.0
1237.0
1237.0
1237.0
1237.0
1220.0
1220.0
1220.0
1220.0
1220.0
1220.0
1220.0
1220.0
1220.0
1220.0
1220.0
1220.0
1220.0
1220.0
1220.0
1237.0
1269.0
1301.0
1349.0
1413.0
1477.0
1574.0
1670.0
1766.0
1879.0
1975.0
2072.0
2184.0
2296.0
2409.0
2505.0
2618.0
2714.0
2810.0
2907.0
3003.0
3067.0
3148.0
3196.0
3228.0
3260.0
3276.0
3292.0
3308.0
3292.0
3292.0
3276.0
3244.0
3228.0
3196.0
3180.0
3148.0
3115.0
3099.0
3067.0
3051.0
3019.0
2987.0
2955.0
2923.0
2891.0
2842.0
2810.0
2778.0
2730.0
2698.0
2650.0
2618.0
2569.0
2537.0
2489.0
2457.0
2409.0
2377.0
2345.0
2312.0
2264.0
2232.0
2200.0
2168.0
2136.0
2088.0
2056.0
2039.0
2007.0
1975.0
1943.0
1927.0
1895.0
1879.0
1847.0
1831.0
1799.0
1766.0
1734.0
1718.0
1686.0
1654.0
1622.0
1606.0
1590.0
1574.0
1542.0
1526.0
1510.0
1493.0
1493.0
1477.0
1461.0
1445.0
1445.0
1429.0
1429.0
1429.0
1429.0
1413.0
1413.0
1413.0
1413.0
1413.0
1413.0
1445.0
1477.0
1510.0
1558.0
1622.0
1670.0
1734.0
1815.0
1895.0
1975.0
2072.0
2152.0
2248.0
2329.0
2409.0
2489.0
2553.0
2602.0
2650.0
2698.0
2746.0
2778.0
2810.0
2826.0
2826.0
2826.0
2810.0
2794.0
2778.0
2746.0
2730.0
2698.0
2666.0
2650.0
2618.0
2585.0
2553.0
2537.0
2505.0
2473.0
2441.0
2409.0
2377.0
2361.0
2329.0
2296.0
2280.0
2248.0
2232.0
2200.0
2168.0
2152.0
2120.0
2088.0
2056.0
2023.0
1991.0
1975.0
1943.0
1911.0
1879.0
1863.0
1831.0
1799.0
1766.0
1750.0
1718.0
1702.0
1670.0
1638.0
1622.0
1590.0
1558.0
1542.0
1510.0
1493.0
1461.0
1445.0
1413.0
1397.0
1381.0
1365.0
1349.0
1317.0
1301.0
1285.0
1253.0
1237.0
1220.0
1204.0
1188.0
1172.0
1156.0
1156.0
1140.0
1124.0
1124.0
1108.0
1092.0
1076.0
1060.0
1044.0
1044.0
1028.0
1012.0
1012.0
1012.0
996.0
996.0
980.0
980.0
980.0
964.0
964.0
964.0
947.0
947.0
947.0
964.0
964.0
980.0
1012.0
1044.0
1108.0
1188.0
1269.0
1349.0
1445.0
1526.0
1606.0
1686.0
1766.0
1863.0
1943.0
2023.0
2104.0
2184.0
2264.0
2329.0
2393.0
2457.0
2505.0
2553.0
2585.0
2634.0
2666.0
2682.0
2698.0
2714.0
2698.0
2698.0
2682.0
2666.0
2650.0
2618.0
2602.0
2585.0
2569.0
2553.0
2521.0
2505.0
2489.0
2457.0
2457.0
2441.0
2425.0
2425.0
2409.0
2377.0
2361.0
2329.0
2296.0
2248.0
2216.0
2184.0
2136.0
2088.0
2039.0
1991.0
1943.0
1879.0
1815.0
1734.0
1670.0
1590.0
1526.0
1477.0
1429.0
1397.0
1381.0
1365.0
1365.0
1365.0
1381.0
1397.0
1397.0
1413.0
1429.0
1445.0
1445.0
1461.0
1461.0
1461.0
1461.0
1477.0
1477.0
1461.0
1461.0
1461.0
1445.0
1429.0
1413.0
1397.0
1381.0
1365.0
1349.0
1333.0
1333.0
1317.0
1301.0
1301.0
1285.0
1269.0
1269.0
1253.0
1253.0
1237.0
1237.0
1237.0
1220.0
1220.0
1204.0
1204.0
1188.0
1172.0
1156.0
1140.0
1124.0
1108.0
1092.0
1076.0
1060.0
1060.0
1044.0
1028.0
1012.0
996.0
996.0
980.0
964.0
964.0
964.0
947.0
964.0
964.0
964.0
964.0
980.0
980.0
996.0
996.0
1012.0
1012.0
1012.0
996.0
996.0
996.0
980.0
980.0
964.0
964.0
947.0
947.0
947.0
947.0
931.0
931.0
931.0
931.0
931.0
915.0
915.0
915.0
899.0
899.0
899.0
883.0
883.0
883.0
867.0
867.0
867.0
867.0
867.0
867.0
851.0
851.0
867.0
883.0
899.0
931.0
980.0
1044.0
1108.0
1172.0
1253.0
1333.0
1429.0
1510.0
1606.0
1702.0
1799.0
1895.0
1991.0
2088.0
2168.0
2248.0
2296.0
2361.0
2425.0
2489.0
2537.0
2585.0
2634.0
2666.0
2698.0
2714.0
2746.0
2762.0
2778.0
2794.0
2810.0
2826.0
2842.0
2842.0
2826.0
2794.0
2762.0
2698.0
2634.0
2569.0
2505.0
2425.0
2361.0
2280.0
2216.0
2152.0
2104.0
2072.0
2039.0
2023.0
2007.0
1975.0
1959.0
1943.0
1911.0
1863.0
1831.0
1799.0
1766.0
1750.0
1734.0
1718.0
1702.0
1702.0
1686.0
1686.0
1670.0
1670.0
1654.0
1638.0
1606.0
1590.0
1574.0
1542.0
1526.0
1510.0
1477.0
1461.0
1493.0
1558.0
1574.0
1574.0
1558.0
1558.0
1542.0
1526.0
1510.0
1510.0
1493.0
1493.0
1510.0
1510.0
1526.0
1558.0
1606.0
1638.0
1702.0
1750.0
1815.0
1879.0
1943.0
1991.0
2056.0
2088.0
2136.0
2184.0
2232.0
2280.0
2312.0
2345.0
2377.0
2393.0
2409.0
2409.0
2409.0
2393.0
2377.0
2361.0
2345.0
2329.0
2296.0
2280.0
2248.0
2232.0
2200.0
2184.0
2152.0
2136.0
2104.0
2088.0
2056.0
2039.0
2007.0
1991.0
1959.0
1943.0
1911.0
1895.0
1879.0
1847.0
1831.0
1815.0
1799.0
1783.0
1766.0
1750.0
1718.0
1702.0
1686.0
1686.0
1670.0
1670.0
1686.0
1686.0
1702.0
1718.0
1734.0
1766.0
1783.0
1799.0
1799.0
1815.0
1815.0
1815.0
1799.0
1799.0
1783.0
1766.0
1750.0
1734.0
1718.0
1702.0
1686.0
1654.0
1638.0
1622.0
1606.0
1590.0
1574.0
1558.0
1542.0
1526.0
1510.0
1493.0
1477.0
1461.0
1445.0
1429.0
1413.0
1397.0
1397.0
1381.0
1365.0
1349.0
1333.0
1317.0
1301.0
1285.0
1269.0
1253.0
1253.0
1237.0
1220.0
1220.0
1204.0
1204.0
1188.0
1172.0
1172.0
1156.0
1156.0
1140.0
1140.0
1124.0
1124.0
1108.0
1108.0
1108.0
1108.0
1108.0
1124.0
1140.0
1188.0
1237.0
1285.0
1349.0
1413.0
1477.0
1542.0
1606.0
1670.0
1734.0
1783.0
1831.0
1879.0
1911.0
1943.0
1959.0
1959.0
1959.0
1959.0
1943.0
1927.0
1911.0
1895.0
1863.0
1847.0
1831.0
1815.0
1783.0
1766.0
1750.0
1734.0
1718.0
1718.0
1702.0
1686.0
1670.0
1654.0
1654.0
1638.0
1622.0
1606.0
1590.0
1574.0
1574.0
1558.0
1542.0
1542.0
1526.0
1510.0
1493.0
1477.0
1477.0
1461.0
1445.0
1445.0
1429.0
1429.0
1413.0
1413.0
1397.0
1381.0
1365.0
1365.0
1349.0
1349.0
1333.0
1333.0
1333.0
1317.0
1317.0
1301.0
1301.0
1285.0
1269.0
1269.0
1253.0
1253.0
1237.0
1237.0
1220.0
1220.0
1220.0
1220.0
1220.0
1220.0
1220.0
1220.0
1220.0
1220.0
1237.0
1237.0
1237.0
1253.0
1253.0
1269.0
1285.0
1285.0
1301.0
1333.0
1365.0
1413.0
1461.0
1526.0
1606.0
1670.0
1750.0
1815.0
1911.0
1991.0
2056.0
2136.0
2200.0
2425.0
2714.0
2907.0
3051.0
3148.0
3228.0
3276.0
3324.0
3372.0
3404.0
3437.0
3437.0
3437.0
3437.0
3404.0
3372.0
3340.0
3308.0
3260.0
3228.0
3180.0
3148.0
3099.0
3067.0
3019.0
2987.0
2939.0
2907.0
2858.0
2810.0
2778.0
2746.0
2714.0
2682.0
2650.0
2618.0
2585.0
2553.0
2521.0
2473.0
2441.0
2393.0
2361.0
2329.0
2296.0
2248.0
2216.0
2168.0
2136.0
2104.0
2072.0
2023.0
1991.0
1959.0
1927.0
1895.0
1863.0
1831.0
1799.0
1766.0
1734.0
1702.0
1670.0
1638.0
1606.0
1574.0
1542.0
1526.0
1510.0
1493.0
1477.0
1445.0
1429.0
1397.0
1381.0
1349.0
1333.0
1317.0
1285.0
1269.0
1253.0
1237.0
1237.0
1220.0
1237.0
1253.0
1285.0
1333.0
1413.0
1493.0
1590.0
1702.0
1799.0
1895.0
1991.0
2104.0
2216.0
2312.0
2393.0
2473.0
2553.0
2634.0
2682.0
2730.0
2778.0
2810.0
2810.0
2826.0
2826.0
2826.0
2810.0
2794.0
2762.0
2730.0
2698.0
2666.0
2634.0
2618.0
2585.0
2569.0
2537.0
2505.0
2489.0
2457.0
2441.0
2409.0
2393.0
2361.0
2345.0
2312.0
2296.0
2280.0
2248.0
2232.0
2216.0
2184.0
2168.0
2136.0
2120.0
2088.0
2056.0
2039.0
2007.0
1991.0
1959.0
1943.0
1927.0
1895.0
1879.0
1863.0
1831.0
1815.0
1799.0
1783.0
1766.0
1750.0
1750.0
1750.0
1766.0
1799.0
1831.0
1879.0
1927.0
1991.0
2056.0
2120.0
2184.0
2232.0
2280.0
2329.0
2361.0
2409.0
2441.0
2473.0
2489.0
2489.0
2489.0
2489.0
2473.0
2457.0
2441.0
2409.0
2393.0
2361.0
2329.0
2296.0
2264.0
2216.0
2184.0
2152.0
2120.0
2088.0
2056.0
2023.0
1991.0
1959.0
1927.0
1895.0
1863.0
1847.0
1815.0
1783.0
1750.0
1734.0
1718.0
1702.0
1670.0
1654.0
1622.0
1606.0
1574.0
1542.0
1526.0
1493.0
1461.0
1445.0
1413.0
1397.0
1381.0
1365.0
1349.0
1317.0
1301.0
1285.0
1269.0
1253.0
1237.0
1237.0
1220.0
1220.0
1220.0
1204.0
1204.0
1188.0
1172.0
1172.0
1156.0
1140.0
1124.0
1108.0
1092.0
1092.0
1092.0
1092.0
1108.0
1124.0
1172.0
1237.0
1317.0
1429.0
1542.0
1686.0
1831.0
1975.0
2104.0
2216.0
2280.0
2296.0
2361.0
2441.0
2521.0
2602.0
2682.0
2746.0
2810.0
2875.0
2923.0
2939.0
2971.0
2971.0
2987.0
2987.0
2971.0
2955.0
2939.0
2923.0
2891.0
2875.0
2858.0
2826.0
2810.0
2778.0
2746.0
2730.0
2698.0
2666.0
2634.0
2602.0
2569.0
2537.0
2505.0
2473.0
2441.0
2409.0
2377.0
2361.0
2329.0
2296.0
2264.0
2232.0
2200.0
2168.0
2136.0
2104.0
2072.0
2056.0
2023.0
1991.0
1959.0
1943.0
1911.0
1879.0
1863.0
1831.0
1815.0
1799.0
1783.0
1766.0
1750.0
1734.0
1718.0
1702.0
1686.0
1670.0
1654.0
1638.0
1622.0
1622.0
1622.0
1638.0
1670.0
1702.0
1750.0
1815.0
1879.0
1959.0
2039.0
2104.0
2184.0
2264.0
2329.0
2393.0
2441.0
2473.0
2521.0
2553.0
2585.0
2602.0
2618.0
2618.0
2618.0
2602.0
2585.0
2553.0
2537.0
2505.0
2473.0
2441.0
2409.0
2377.0
2345.0
2312.0
2296.0
2264.0
2232.0
2200.0
2168.0
2136.0
2120.0
2088.0
2056.0
2023.0
1991.0
1959.0
1927.0
1895.0
1879.0
1847.0
1831.0
1799.0
1783.0
1783.0
1766.0
1750.0
1734.0
1718.0
1702.0
1686.0
1670.0
1654.0
1638.0
1622.0
1606.0
1590.0
1574.0
1558.0
1542.0
1526.0
1510.0
1493.0
1477.0
1461.0
1445.0
1429.0
1413.0
1413.0
1413.0
1397.0
1397.0
1381.0
1381.0
1381.0
1381.0
1381.0
1381.0
1381.0
1381.0
1381.0
1381.0
1397.0
1397.0
1429.0
1461.0
1510.0
1574.0
1654.0
1750.0
1847.0
1959.0
2056.0
2152.0
2248.0
2361.0
2457.0
2569.0
2666.0
2762.0
2842.0
2939.0
3003.0
3083.0
3131.0
3164.0
3196.0
3228.0
3260.0
3260.0
3260.0
3244.0
3228.0
3196.0
3164.0
3131.0
3083.0
3051.0
3019.0
2987.0
2955.0
2923.0
2891.0
2858.0
2842.0
2810.0
2762.0
2730.0
2698.0
2666.0
2634.0
2602.0
2553.0
2521.0
2489.0
2441.0
2409.0
2361.0
2329.0
2280.0
2248.0
2216.0
2184.0
2152.0
2120.0
2088.0
2072.0
2039.0
2007.0
1975.0
1959.0
1927.0
1895.0
1879.0
1847.0
1831.0
1815.0
1783.0
1750.0
1734.0
1702.0
1686.0
1654.0
1638.0
1606.0
1590.0
1574.0
1574.0
1574.0
1574.0
1574.0
1606.0
1622.0
1670.0
1718.0
1702.0
1654.0
1670.0
1718.0
1783.0
1847.0
1911.0
1991.0
2056.0
2136.0
2200.0
2264.0
2329.0
2393.0
2457.0
2505.0
2537.0
2569.0
2585.0
2602.0
2602.0
2585.0
2569.0
2537.0
2505.0
2473.0
2425.0
2377.0
2345.0
2296.0
2264.0
2232.0
2200.0
2168.0
2136.0
2104.0
2072.0
2056.0
2023.0
2007.0
1975.0
1959.0
1927.0
1911.0
1879.0
1863.0
1831.0
1799.0
1783.0
1750.0
1734.0
1702.0
1686.0
1670.0
1654.0
1638.0
1622.0
1622.0
1622.0
1638.0
1654.0
1670.0
1686.0
1718.0
1750.0
1766.0
1799.0
1799.0
1815.0
1815.0
1815.0
1815.0
1799.0
1783.0
1766.0
1750.0
1718.0
1702.0
1686.0
1670.0
1654.0
1638.0
1622.0
1590.0
1574.0
1558.0
1542.0
1510.0
1493.0
1477.0
1445.0
1429.0
1413.0
1397.0
1397.0
1381.0
1365.0
1349.0
1333.0
1317.0
1301.0
1285.0
1253.0
1237.0
1220.0
1204.0
1188.0
1172.0
1140.0
1108.0
1092.0
1060.0
1044.0
1012.0
996.0
964.0
947.0
931.0
915.0
899.0
883.0
851.0
835.0
803.0
787.0
771.0
755.0
739.0
755.0
771.0
803.0
867.0
931.0
1028.0
1140.0
1269.0
1413.0
1558.0
1686.0
1831.0
1975.0
2120.0
2232.0
2329.0
2441.0
2553.0
2650.0
2746.0
2842.0
2939.0
3003.0
3067.0
3131.0
3164.0
3180.0
3196.0
3196.0
3196.0
3180.0
3164.0
3164.0
3148.0
3131.0
3131.0
3115.0
3115.0
3099.0
3083.0
3067.0
3035.0
3019.0
3003.0
2987.0
2955.0
2923.0
2907.0
2858.0
2826.0
2778.0
2746.0
2698.0
2650.0
2618.0
2569.0
2521.0
2473.0
2425.0
2361.0
2312.0
2248.0
2184.0
2136.0
2088.0
2039.0
1991.0
1959.0
1911.0
1879.0
1847.0
1815.0
1766.0
1734.0
1686.0
1638.0
1606.0
1574.0
1542.0
1510.0
1477.0
1445.0
1429.0
1397.0
1381.0
1349.0
1333.0
1301.0
1285.0
1269.0
1253.0
1220.0
1204.0
1188.0
1188.0
1172.0
1172.0
1188.0
1204.0
1237.0
1285.0
1349.0
1413.0
1510.0
1606.0
1718.0
1831.0
1959.0
2088.0
2216.0
2329.0
2457.0
2569.0
2666.0
2746.0
2842.0
2923.0
3003.0
3083.0
3148.0
3212.0
3260.0
3276.0
3292.0
3308.0
3292.0
3276.0
3244.0
3164.0
3035.0
2971.0
2907.0
2858.0
2826.0
2778.0
2746.0
2714.0
2666.0
2634.0
2602.0
2553.0
2521.0
2473.0
2441.0
2393.0
2345.0
2312.0
2264.0
2232.0
2184.0
2152.0
2120.0
2088.0
2056.0
2023.0
1991.0
1959.0
1927.0
1895.0
1847.0
1815.0
1783.0
1750.0
1718.0
1686.0
1654.0
1622.0
1590.0
1558.0
1542.0
1510.0
1493.0
1461.0
1445.0
1429.0
1429.0
1413.0
1429.0
1429.0
1429.0
1429.0
1429.0
1429.0
1429.0
1413.0
1397.0
1381.0
1349.0
1333.0
1317.0
1285.0
1237.0
1204.0
1156.0
1124.0
1076.0
1044.0
1028.0
1012.0
1012.0
1012.0
1028.0
1060.0
1108.0
1156.0
1237.0
1301.0
1381.0
1477.0
1558.0
1654.0
1734.0
1831.0
1911.0
1975.0
2072.0
2168.0
2248.0
2345.0
2425.0
2505.0
2585.0
2634.0
2682.0
2714.0
2714.0
2698.0
2682.0
2634.0
2585.0
2537.0
2489.0
2425.0
2377.0
2312.0
2264.0
2216.0
2168.0
2120.0
2088.0
2056.0
2007.0
1975.0
1943.0
1911.0
1879.0
1863.0
1831.0
1799.0
1783.0
1750.0
1734.0
1718.0
1702.0
1686.0
1654.0
1638.0
1622.0
1622.0
1606.0
1590.0
1590.0
1574.0
1574.0
1590.0
1590.0
1606.0
1606.0
1622.0
1654.0
1670.0
1702.0
1734.0
1766.0
1799.0
1847.0
1863.0
1895.0
1927.0
1943.0
1959.0
1975.0
1975.0
1959.0
1943.0
1927.0
1895.0
1879.0
1863.0
1847.0
1831.0
1847.0
1863.0
1879.0
1911.0
1959.0
1991.0
2023.0
2072.0
2104.0
2136.0
2168.0
2200.0
2248.0
2312.0
2393.0
2473.0
2569.0
2666.0
2762.0
2875.0
2987.0
3083.0
3164.0
3228.0
3292.0
3356.0
3404.0
3437.0
3469.0
3485.0
3485.0
3485.0
3469.0
3453.0
3437.0
3404.0
3372.0
3356.0
3340.0
3324.0
3308.0
3308.0
3292.0
3292.0
3276.0
3260.0
3244.0
3212.0
3180.0
3131.0
3099.0
3051.0
3019.0
2971.0
2923.0
2875.0
2826.0
2794.0
2746.0
2714.0
2666.0
2634.0
2602.0
2553.0
2521.0
2489.0
2457.0
2425.0
2393.0
2345.0
2296.0
2248.0
2200.0
2168.0
2104.0
2056.0
2007.0
1959.0
1911.0
1879.0
1831.0
1799.0
1766.0
1734.0
1702.0
1670.0
1638.0
1606.0
1574.0
1542.0
1493.0
1461.0
1429.0
1381.0
1333.0
1301.0
1285.0
1269.0
1253.0
1253.0
1237.0
1237.0
1220.0
1220.0
1220.0
1237.0
1237.0
1237.0
1237.0
1237.0
1237.0
1237.0
1237.0
1237.0
1220.0
1220.0
1220.0
1204.0
1204.0
1204.0
1204.0
1204.0
1204.0
1220.0
1237.0
1269.0
1301.0
1365.0
1429.0
1510.0
1606.0
1686.0
1783.0
1879.0
1959.0
2023.0
2088.0
2152.0
2216.0
2264.0
2329.0
2377.0
2409.0
2457.0
2489.0
2537.0
2569.0
2585.0
2618.0
2634.0
2650.0
2650.0
2666.0
2650.0
2634.0
2618.0
2585.0
2553.0
2521.0
2489.0
2457.0
2409.0
2377.0
2329.0
2280.0
2216.0
2168.0
2104.0
2039.0
1975.0
1927.0
1863.0
1815.0
1783.0
1734.0
1702.0
1670.0
1654.0
1638.0
1638.0
1638.0
1654.0
1670.0
1686.0
1686.0
1702.0
1718.0
1734.0
1750.0
1766.0
1766.0
1783.0
1783.0
1783.0
1783.0
1783.0
1783.0
1783.0
1783.0
1766.0
1750.0
1750.0
1750.0
1750.0
1766.0
1783.0
1815.0
1847.0
1895.0
1927.0
1975.0
2039.0
2104.0
2168.0
2248.0
2329.0
2393.0
2441.0
2489.0
2505.0
2521.0
2521.0
2505.0
2489.0
2457.0
2425.0
2377.0
2329.0
2280.0
2216.0
2184.0
2136.0
2104.0
2072.0
2039.0
2023.0
2007.0
2007.0
1991.0
1991.0
1991.0
1991.0
1991.0
1991.0
1991.0
1991.0
1991.0
1975.0
1975.0
1975.0
1959.0
1959.0
1943.0
1927.0
1927.0
1895.0
1879.0
1863.0
1831.0
1799.0
1766.0
1734.0
1702.0
1670.0
1638.0
1606.0
1574.0
1558.0
1526.0
1510.0
1493.0
1493.0
1477.0
1461.0
1461.0
1445.0
1429.0
1413.0
1397.0
1381.0
1365.0
1349.0
1333.0
1301.0
1285.0
1269.0
1253.0
1220.0
1204.0
1188.0
1156.0
1140.0
1124.0
1124.0
1108.0
1108.0
1108.0
1124.0
1140.0
1156.0
1172.0
1204.0
1220.0
1237.0
1253.0
1269.0
1269.0
1269.0
1285.0
1285.0
1285.0
1285.0
1301.0
1301.0
1317.0
1333.0
1349.0
1365.0
1397.0
1429.0
1461.0
1493.0
1526.0
1574.0
1638.0
1702.0
1783.0
1863.0
1943.0
2023.0
2088.0
2152.0
2200.0
2248.0
2280.0
2296.0
2329.0
2361.0
2393.0
2425.0
2441.0
2457.0
2473.0
2473.0
2473.0
2473.0
2457.0
2441.0
2425.0
2489.0
2569.0
2585.0
2569.0
2537.0
2489.0
2425.0
2361.0
2312.0
2264.0
2216.0
2184.0
2152.0
2136.0
2120.0
2104.0
2088.0
2072.0
2056.0
2039.0
2023.0
1991.0
1975.0
1959.0
1927.0
1895.0
1863.0
1815.0
1783.0
1750.0
1702.0
1670.0
1622.0
1590.0
1542.0
1510.0
1477.0
1445.0
1397.0
1365.0
1333.0
1301.0
1269.0
1237.0
1220.0
1204.0
1204.0
1220.0
1220.0
1237.0
1237.0
1220.0
1220.0
1204.0
1204.0
1188.0
1188.0
1188.0
1188.0
1188.0
1188.0
1188.0
1172.0
1140.0
1108.0
1076.0
1044.0
1012.0
964.0
931.0
915.0
899.0
899.0
915.0
931.0
980.0
1028.0
1108.0
1188.0
1285.0
1365.0
1461.0
1542.0
1622.0
1686.0
1734.0
1783.0
1847.0
1895.0
1943.0
1991.0
2023.0
2072.0
2104.0
2152.0
2184.0
2200.0
2232.0
2248.0
2248.0
2248.0
2248.0
2232.0
2216.0
2200.0
2184.0
2152.0
2136.0
2104.0
2088.0
2056.0
2039.0
2023.0
2007.0
1975.0
1959.0
1927.0
1911.0
1879.0
1847.0
1831.0
1799.0
1783.0
1750.0
1734.0
1702.0
1686.0
1670.0
1638.0
1622.0
1606.0
1590.0
1558.0
1542.0
1542.0
1526.0
1510.0
1493.0
1477.0
1445.0
1429.0
1413.0
1381.0
1365.0
1349.0
1333.0
1317.0
1317.0
1301.0
1301.0
1285.0
1285.0
1269.0
1269.0
1269.0
1269.0
1269.0
1269.0
1269.0
1285.0
1285.0
1269.0
1269.0
1269.0
1253.0
1237.0
1237.0
1220.0
1204.0
1188.0
1156.0
1140.0
1108.0
1092.0
1076.0
1044.0
1012.0
996.0
964.0
964.0
947.0
947.0
947.0
947.0
964.0
996.0
1028.0
1076.0
1140.0
1204.0
1285.0
1381.0
1477.0
1574.0
1670.0
1750.0
1847.0
1927.0
1991.0
2056.0
2136.0
2200.0
2264.0
2329.0
2377.0
2425.0
2457.0
2489.0
2505.0
2521.0
2521.0
2521.0
2505.0
2489.0
2473.0
2441.0
2425.0
2409.0
2377.0
2345.0
2312.0
2296.0
2264.0
2232.0
2216.0
2184.0
2152.0
2136.0
2120.0
2088.0
2072.0
2056.0
2023.0
2007.0
2007.0
1991.0
1975.0
1959.0
1943.0
1927.0
1911.0
1895.0
1879.0
1879.0
1863.0
1847.0
1831.0
1815.0
1815.0
1799.0
1783.0
1783.0
1783.0
1783.0
1783.0
1799.0
1879.0
2007.0
2104.0
2168.0
2216.0
2264.0
2312.0
2345.0
2393.0
2425.0
2457.0
2473.0
2489.0
2489.0
2489.0
2489.0
2473.0
2457.0
2441.0
2409.0
2393.0
2361.0
2329.0
2296.0
2280.0
2248.0
2232.0
2216.0
2200.0
2184.0
2168.0
2152.0
2136.0
2120.0
2104.0
2088.0
2072.0
2056.0
2039.0
2039.0
2023.0
2007.0
2007.0
1991.0
1975.0
1975.0
1959.0
1943.0
1927.0
1911.0
1895.0
1895.0
1879.0
1863.0
1847.0
1831.0
1815.0
1799.0
1783.0
1783.0
1766.0
1766.0
1766.0
1766.0
1750.0
1750.0
1734.0
1734.0
1718.0
1702.0
1686.0
1670.0
1670.0
1654.0
1638.0
1622.0
1606.0
1606.0
1590.0
1590.0
1574.0
1574.0
1558.0
1542.0
1542.0
1526.0
1510.0
1477.0
1477.0
1461.0
1445.0
1445.0
1429.0
1413.0
1413.0
1397.0
1381.0
1365.0
1365.0
1365.0
1349.0
1349.0
1349.0
1365.0
1365.0
1365.0
1365.0
1365.0
1365.0
1365.0
1381.0
1397.0
1429.0
1461.0
1526.0
1606.0
1670.0
1766.0
1879.0
1991.0
2120.0
2232.0
2345.0
2457.0
2569.0
2682.0
2778.0
2891.0
2971.0
3035.0
3115.0
3180.0
3260.0
3308.0
3372.0
3421.0
3453.0
3469.0
3469.0
3469.0
3453.0
3437.0
3404.0
3372.0
3340.0
3308.0
3276.0
3228.0
3180.0
3148.0
3115.0
3083.0
3051.0
3019.0
2971.0
2939.0
2907.0
2858.0
2826.0
2794.0
2762.0
2730.0
2682.0
2666.0
2634.0
2602.0
2569.0
2553.0
2521.0
2505.0
2473.0
2457.0
2425.0
2393.0
2377.0
2361.0
2345.0
2312.0
2296.0
2280.0
2264.0
2248.0
2232.0
2216.0
2200.0
2168.0
2152.0
2152.0
2136.0
2120.0
2104.0
2088.0
2088.0
2072.0
2039.0
2023.0
2007.0
1991.0
1975.0
1959.0
1943.0
1943.0
1943.0
1943.0
1959.0
1975.0
1991.0
2023.0
2056.0
2104.0
2184.0
2264.0
2361.0
2441.0
2521.0
2602.0
2666.0
2746.0
2810.0
2891.0
2955.0
3003.0
3051.0
3083.0
3148.0
3180.0
3212.0
3212.0
3212.0
3212.0
3196.0
3180.0
3148.0
3115.0
3083.0
3051.0
3019.0
2987.0
2971.0
2939.0
2907.0
2875.0
2842.0
2810.0
2762.0
2714.0
2666.0
2602.0
2537.0
2489.0
2441.0
2393.0
2345.0
2312.0
2296.0
2168.0
2023.0
1927.0
1879.0
1847.0
1831.0
1815.0
1799.0
1783.0
1783.0
1766.0
1766.0
1750.0
1734.0
1734.0
1718.0
1702.0
1686.0
1670.0
1638.0
1622.0
1590.0
1574.0
1558.0
1526.0
1510.0
1477.0
1461.0
1445.0
1429.0
1413.0
1397.0
1381.0
1365.0
1349.0
1333.0
1317.0
1317.0
1301.0
1285.0
1269.0
1253.0
1237.0
1220.0
1204.0
1172.0
1156.0
1140.0
1108.0
1092.0
1060.0
1028.0
996.0
980.0
947.0
931.0
915.0
915.0
931.0
947.0
980.0
1028.0
1092.0
1172.0
1269.0
1349.0
1445.0
1542.0
1638.0
1734.0
1815.0
1879.0
1943.0
2007.0
2088.0
2152.0
2216.0
2280.0
2329.0
2377.0
2425.0
2441.0
2473.0
2473.0
2473.0
2473.0
2457.0
2441.0
2409.0
2393.0
2361.0
2345.0
2312.0
2296.0
2280.0
2248.0
2232.0
2216.0
2200.0
2168.0
2152.0
2136.0
2120.0
2104.0
2088.0
2072.0
2056.0
2039.0
2039.0
2023.0
2007.0
1991.0
1975.0
1943.0
1927.0
1911.0
1895.0
1879.0
1863.0
1847.0
1831.0
1815.0
1799.0
1799.0
1783.0
1766.0
1766.0
1750.0
1750.0
1734.0
1718.0
1718.0
1718.0
1718.0
1718.0
1718.0
1718.0
1702.0
1702.0
1702.0
1702.0
1686.0
1686.0
1686.0
1670.0
1670.0
1654.0
1654.0
1638.0
1638.0
1638.0
1638.0
1654.0
1670.0
1702.0
1750.0
1799.0
1879.0
1943.0
2007.0
2072.0
2152.0
2216.0
2296.0
2361.0
2425.0
2489.0
2537.0
2585.0
2634.0
2682.0
2698.0
2714.0
2730.0
2746.0
2746.0
2746.0
2746.0
2730.0
2698.0
2682.0
2650.0
2618.0
2569.0
2537.0
2505.0
2473.0
2441.0
2425.0
2393.0
2361.0
2329.0
2312.0
2280.0
2264.0
2232.0
2200.0
2184.0
2152.0
2136.0
2104.0
2088.0
2056.0
2039.0
2007.0
1991.0
1975.0
1975.0
1959.0
1943.0
1927.0
1927.0
1911.0
1895.0
1879.0
1863.0
1847.0
1847.0
1831.0
1815.0
1815.0
1799.0
1783.0
1783.0
1766.0
1750.0
1734.0
1734.0
1718.0
1718.0
1702.0
1702.0
1686.0
1686.0
1686.0
1670.0
1670.0
1654.0
1638.0
1638.0
1622.0
1622.0
1606.0
1606.0
1590.0
1590.0
1574.0
1574.0
1558.0
1558.0
1542.0
1542.0
1526.0
1526.0
1510.0
1510.0
1542.0
1606.0
1638.0
1654.0
1670.0
1702.0
1734.0
1783.0
1847.0
1927.0
2023.0
2120.0
2232.0
2329.0
2441.0
2537.0
2618.0
2714.0
2794.0
2891.0
2971.0
3051.0
3115.0
3180.0
3228.0
3276.0
3308.0
3324.0
3340.0
3340.0
3340.0
3340.0
3340.0
3324.0
3292.0
3276.0
3244.0
3212.0
3180.0
3148.0
3115.0
3067.0
3035.0
3003.0
2971.0
2939.0
2907.0
2875.0
2842.0
2794.0
2762.0
2730.0
2698.0
2666.0
2634.0
2602.0
2569.0
2537.0
2521.0
2505.0
2473.0
2457.0
2425.0
2409.0
2377.0
2361.0
2345.0
2329.0
2296.0
2280.0
2264.0
2248.0
2216.0
2200.0
2184.0
2168.0
2152.0
2136.0
2120.0
2104.0
2088.0
2088.0
2072.0
2072.0
2072.0
2088.0
2120.0
2152.0
2200.0
2248.0
2296.0
2345.0
2409.0
2473.0
2521.0
2585.0
2634.0
2682.0
2730.0
2778.0
2810.0
2842.0
2858.0
2875.0
2875.0
2875.0
2875.0
2875.0
2842.0
2826.0
2794.0
2778.0
2746.0
2730.0
2714.0
2698.0
2698.0
2698.0
2698.0
2698.0
2698.0
2698.0
2698.0
2682.0
2650.0
2634.0
2602.0
2569.0
2537.0
2505.0
2473.0
2441.0
2425.0
2393.0
2361.0
2329.0
2312.0
2280.0
2248.0
2232.0
2200.0
2184.0
2168.0
2136.0
2120.0
2104.0
2088.0
2072.0
2056.0
2039.0
2023.0
2007.0
1991.0
1975.0
1959.0
1943.0
1927.0
1911.0
1895.0
1879.0
1863.0
1847.0
1831.0
1815.0
1799.0
1783.0
1783.0
1766.0
1750.0
1734.0
1718.0
1702.0
1686.0
1670.0
1654.0
1638.0
1622.0
1606.0
1606.0
1590.0
1606.0
1622.0
1654.0
1718.0
1783.0
1863.0
1959.0
2056.0
2152.0
2232.0
2312.0
2377.0
2457.0
2521.0
2602.0
2666.0
2730.0
2778.0
2826.0
2858.0
2875.0
2891.0
2907.0
2891.0
2875.0
2858.0
2842.0
2810.0
2762.0
2714.0
2666.0
2618.0
2585.0
2537.0
2489.0
2457.0
2425.0
2377.0
2345.0
2312.0
2280.0
2248.0
2216.0
2184.0
2152.0
2120.0
2104.0
2072.0
2056.0
2039.0
2023.0
1991.0
1975.0
1959.0
1943.0
1927.0
1911.0
1879.0
1863.0
1847.0
1831.0
1815.0
1799.0
1783.0
1750.0
1734.0
1702.0
1686.0
1670.0
1654.0
1638.0
1622.0
1622.0
1606.0
1622.0
1622.0
1510.0
1333.0
1269.0
1285.0
1333.0
1397.0
1461.0
1542.0
1606.0
1654.0
1718.0
1766.0
1815.0
1847.0
1879.0
1895.0
1911.0
1911.0
1895.0
1879.0
1847.0
1815.0
1783.0
1750.0
1702.0
1670.0
1622.0
1590.0
1558.0
1526.0
1493.0
1477.0
1445.0
1429.0
1413.0
1397.0
1381.0
1349.0
1333.0
1317.0
1301.0
1285.0
1269.0
1237.0
1220.0
1204.0
1188.0
1172.0
1156.0
1156.0
1140.0
1140.0
1124.0
1124.0
1108.0
1108.0
1108.0
1092.0
1092.0
1092.0
1092.0
1092.0
1092.0
1108.0
1108.0
1108.0
1124.0
1124.0
1140.0
1140.0
1140.0
1156.0
1156.0
1172.0
1204.0
1253.0
1301.0
1381.0
1477.0
1590.0
1718.0
1863.0
1991.0
2120.0
2216.0
2329.0
2457.0
2569.0
2666.0
2762.0
2826.0
2891.0
2939.0
2971.0
2987.0
3003.0
3003.0
2987.0
2987.0
2971.0
2971.0
2939.0
2907.0
2875.0
2842.0
2810.0
2794.0
2794.0
2810.0
2826.0
2891.0
2955.0
3051.0
3164.0
3276.0
3388.0
3517.0
3629.0
3726.0
3822.0
3918.0
3967.0
3999.0
4031.0
4047.0
4079.0
4095.0
4095.0
4095.0
4095.0
4095.0
4095.0
4095.0
4095.0
4095.0
4095.0
4095.0
4095.0
4095.0
4095.0
4095.0
4095.0
4095.0
4095.0
4095.0
4095.0
4095.0
4095.0
4095.0
4095.0
4063.0
4015.0
3934.0
3838.0
3710.0
3549.0
3356.0
3164.0
2955.0
2762.0
2521.0
2280.0
2039.0
1799.0
1558.0
1333.0
1124.0
931.0
755.0
578.0
434.0
321.0
209.0
112.0
48.0
16.0
0.0
0.0
0.0
0.0
0.0
0.0
16.0
80.0
161.0
241.0
353.0
450.0
546.0
626.0
723.0
787.0
867.0
931.0
996.0
1044.0
1092.0
1124.0
1156.0
1172.0
1188.0
1188.0
1172.0
1156.0
1124.0
1076.0
1044.0
996.0
947.0
915.0
867.0
851.0
835.0
835.0
851.0
899.0
947.0
1012.0
1092.0
1156.0
1220.0
1269.0
1317.0
1349.0
1397.0
1429.0
1461.0
1493.0
1526.0
1574.0
1622.0
1686.0
1750.0
1815.0
1863.0
1927.0
1975.0
2023.0
2056.0
2072.0
2072.0
2056.0
2023.0
1991.0
1943.0
1895.0
1831.0
1766.0
1686.0
1606.0
1526.0
1445.0
1349.0
1253.0
1172.0
1076.0
1156.0
1317.0
1381.0
1397.0
1397.0
1381.0
1349.0
1317.0
1269.0
1237.0
1204.0
1172.0
1140.0
1124.0
1108.0
1092.0
1076.0
1060.0
1044.0
1028.0
1012.0
996.0
980.0
980.0
964.0
947.0
947.0
947.0
964.0
980.0
996.0
1044.0
1076.0
1140.0
1188.0
1253.0
1317.0
1381.0
1445.0
1493.0
1542.0
1590.0
1638.0
1686.0
1734.0
1766.0
1799.0
1831.0
1847.0
1863.0
1879.0
1895.0
1895.0
1911.0
1911.0
1911.0
1911.0
1911.0
1911.0
1911.0
1911.0
1911.0
1911.0
1911.0
1911.0
1911.0
1911.0
1911.0
1911.0
1911.0
1895.0
1895.0
1895.0
1879.0
1879.0
1863.0
1847.0
1847.0
1831.0
1831.0
1831.0
1815.0
1815.0
1799.0
1799.0
1799.0
1783.0
1783.0
1783.0
1766.0
1766.0
1750.0
1750.0
1734.0
1734.0
1718.0
1702.0
1686.0
1654.0
1638.0
1622.0
1606.0
1590.0
1574.0
1542.0
1526.0
1510.0
1493.0
1477.0
1461.0
1445.0
1429.0
1429.0
1413.0
1397.0
1397.0
1381.0
1365.0
1365.0
1349.0
1333.0
1317.0
1301.0
1285.0
1285.0
1269.0
1253.0
1253.0
1237.0
1237.0
1220.0
1220.0
1220.0
1204.0
1204.0
1220.0
1220.0
1237.0
1253.0
1285.0
1317.0
1349.0
1397.0
1445.0
1510.0
1558.0
1606.0
1654.0
1702.0
1750.0
1783.0
1815.0
1847.0
1879.0
1911.0
1927.0
1959.0
1975.0
1991.0
2007.0
2007.0
2023.0
2007.0
2007.0
1991.0
1991.0
1975.0
1959.0
1943.0
1927.0
1911.0
1895.0
1895.0
1879.0
1863.0
1863.0
1847.0
1847.0
1831.0
1831.0
1815.0
1799.0
1799.0
1783.0
1783.0
1766.0
1750.0
1750.0
1750.0
1734.0
1734.0
1734.0
1718.0
1718.0
1718.0
1702.0
1702.0
1702.0
1702.0
1702.0
1702.0
1702.0
1702.0
1702.0
1718.0
1718.0
1734.0
1734.0
1750.0
1766.0
1766.0
1783.0
1783.0
1783.0
1783.0
1766.0
1766.0
1750.0
1734.0
1734.0
1718.0
1702.0
1686.0
1686.0
1670.0
1670.0
1654.0
1654.0
1670.0
1670.0
1686.0
1702.0
1734.0
1750.0
1783.0
1815.0
1847.0
1879.0
1927.0
1959.0
1991.0
2023.0
2072.0
2104.0
2136.0
2168.0
2184.0
2184.0
2184.0
2184.0
2152.0
2120.0
2088.0
2039.0
1991.0
1943.0
2039.0
2200.0
2232.0
2232.0
2200.0
2152.0
2136.0
2104.0
2088.0
2088.0
2072.0
2056.0
2039.0
2023.0
2007.0
1991.0
1975.0
1943.0
1927.0
1911.0
1895.0
1879.0
1863.0
1847.0
1831.0
1815.0
1799.0
1783.0
1750.0
1734.0
1718.0
1702.0
1670.0
1654.0
1638.0
1622.0
1590.0
1574.0
1542.0
1510.0
1493.0
1461.0
1445.0
1429.0
1397.0
1381.0
1381.0
1349.0
1333.0
1317.0
1285.0
1253.0
1220.0
1204.0
1172.0
1156.0
1140.0
1124.0
1140.0
1140.0
1156.0
1188.0
1220.0
1253.0
1301.0
1349.0
1397.0
1461.0
1510.0
1558.0
1606.0
1654.0
1686.0
1718.0
1734.0
1766.0
1766.0
1783.0
1783.0
1766.0
1766.0
1750.0
1734.0
1718.0
1686.0
1670.0
1622.0
1574.0
1526.0
1477.0
1429.0
1381.0
1333.0
1285.0
1237.0
1204.0
1172.0
1124.0
1092.0
1044.0
980.0
931.0
867.0
819.0
755.0
707.0
674.0
642.0
626.0
626.0
610.0
594.0
594.0
578.0
562.0
546.0
530.0
514.0
482.0
466.0
466.0
450.0
434.0
418.0
385.0
353.0
337.0
289.0
257.0
225.0
193.0
145.0
128.0
112.0
80.0
64.0
32.0
16.0
0.0
0.0
0.0
0.0
0.0
0.0
0.0
0.0
0.0
0.0
0.0
0.0
0.0
0.0
0.0
0.0
0.0
0.0
0.0
0.0
0.0
0.0
0.0
0.0
0.0
0.0
0.0
0.0
0.0
0.0
0.0
0.0
0.0
0.0
0.0
0.0
0.0
0.0
0.0
0.0
0.0
0.0
0.0
0.0
0.0
0.0
0.0
0.0
0.0
0.0
0.0
0.0
0.0
0.0
0.0
0.0
0.0
0.0
0.0
0.0
0.0
0.0
0.0
0.0
0.0
0.0
0.0
64.0
145.0
241.0
353.0
466.0
578.0
691.0
819.0
931.0
1028.0
1140.0
1237.0
1333.0
1413.0
1510.0
1574.0
1638.0
1702.0
1766.0
1815.0
1863.0
1895.0
1911.0
1911.0
1911.0
1911.0
1895.0
1879.0
1879.0
1863.0
1847.0
1831.0
1831.0
1815.0
1799.0
1766.0
1750.0
1734.0
1718.0
1702.0
1686.0
1670.0
1654.0
1638.0
1622.0
1606.0
1590.0
1574.0
1558.0
1542.0
1526.0
1750.0
2104.0
2280.0
2361.0
2393.0
2409.0
2393.0
2393.0
2393.0
2377.0
2361.0
2361.0
2345.0
2345.0
2329.0
2329.0
2329.0
2312.0
2312.0
2296.0
2296.0
2280.0
2264.0
2248.0
2232.0
2232.0
2216.0
2216.0
2216.0
2200.0
2200.0
2184.0
2184.0
2168.0
2168.0
2168.0
2152.0
2152.0
2136.0
2136.0
2136.0
2136.0
2120.0
2120.0
2120.0
2120.0
2104.0
2104.0
2104.0
2104.0
2104.0
2104.0
2120.0
2120.0
2120.0
2136.0
2152.0
2168.0
2200.0
2232.0
2280.0
2329.0
2393.0
2441.0
2505.0
2553.0
2618.0
2682.0
2746.0
2794.0
2858.0
2907.0
2955.0
2987.0
3035.0
3067.0
3083.0
3115.0
3131.0
3148.0
3164.0
3164.0
3148.0
3148.0
3131.0
3115.0
3099.0
3067.0
3051.0
3035.0
3019.0
3003.0
2987.0
2971.0
2955.0
2939.0
2907.0
2891.0
2875.0
2858.0
2842.0
2826.0
2810.0
2810.0
2794.0
2778.0
2762.0
2762.0
2746.0
2730.0
2730.0
2714.0
2714.0
2698.0
2698.0
2698.0
2682.0
2682.0
2682.0
2698.0
2714.0
2730.0
2746.0
2778.0
2810.0
2842.0
2858.0
2891.0
2923.0
2939.0
2955.0
2971.0
2987.0
2987.0
3003.0
2987.0
2987.0
2971.0
2955.0
2955.0
2939.0
2907.0
2891.0
2875.0
2858.0
2842.0
2826.0
2810.0
2794.0
2778.0
2762.0
2730.0
2714.0
2698.0
2682.0
2666.0
2650.0
2634.0
2634.0
2618.0
2618.0
2602.0
2602.0
2602.0
2585.0
2585.0
2569.0
2569.0
2553.0
2553.0
2537.0
2537.0
2521.0
2521.0
2521.0
2521.0
2505.0
2505.0
2505.0
2489.0
2489.0
2489.0
2489.0
2489.0
2489.0
2505.0
2505.0
2505.0
2505.0
2489.0
2489.0
2489.0
2489.0
2473.0
2473.0
2473.0
2457.0
2457.0
2457.0
2457.0
2457.0
2457.0
2441.0
2441.0
2441.0
2441.0
2441.0
2441.0
2425.0
2425.0
2425.0
2425.0
2425.0
2425.0
2425.0
2409.0
2409.0
2409.0
2409.0
2425.0
2425.0
2425.0
2425.0
2441.0
2457.0
2473.0
2505.0
2553.0
2602.0
2650.0
2714.0
2778.0
2842.0
2907.0
2971.0
3019.0
3067.0
3131.0
3196.0
3260.0
3324.0
3372.0
3437.0
3501.0
3549.0
3597.0
3645.0
3677.0
3710.0
3726.0
3742.0
3758.0
3581.0
3324.0
3180.0
3099.0
3051.0
3003.0
2971.0
2939.0
2907.0
2891.0
2858.0
2842.0
2826.0
2794.0
2778.0
2762.0
2730.0
2714.0
2698.0
2666.0
2650.0
2618.0
2602.0
2569.0
2553.0
2537.0
2505.0
2489.0
2473.0
2441.0
2425.0
2409.0
2393.0
2377.0
2345.0
2329.0
2312.0
2280.0
2264.0
2232.0
2216.0
2184.0
2168.0
2136.0
2104.0
2088.0
2072.0
2039.0
2023.0
1991.0
1975.0
1959.0
1927.0
1911.0
1911.0
1911.0
1911.0
1927.0
1943.0
1959.0
1991.0
2039.0
2072.0
2120.0
2168.0
2216.0
2264.0
2312.0
2361.0
2393.0
2441.0
2473.0
2521.0
2553.0
2585.0
2618.0
2634.0
2634.0
2634.0
2602.0
2569.0
2521.0
2473.0
2425.0
2377.0
2329.0
2280.0
2232.0
2184.0
2136.0
2088.0
2056.0
2023.0
1975.0
1959.0
1927.0
1911.0
1879.0
1847.0
1831.0
1815.0
1783.0
1766.0
1750.0
1734.0
1718.0
1702.0
1686.0
1670.0
1654.0
1638.0
1622.0
1606.0
1590.0
1590.0
1574.0
1574.0
1558.0
1558.0
1542.0
1542.0
1542.0
1526.0
1510.0
1493.0
1493.0
1477.0
1461.0
1445.0
1429.0
1429.0
1413.0
1413.0
1429.0
1445.0
1461.0
1493.0
1542.0
1590.0
1654.0
1718.0
1799.0
1879.0
1959.0
2039.0
2120.0
2184.0
2264.0
2329.0
2409.0
2473.0
2521.0
2569.0
2618.0
2634.0
2650.0
2650.0
2634.0
2618.0
2585.0
2537.0
2489.0
2441.0
2393.0
2345.0
2296.0
2264.0
2232.0
2200.0
2168.0
2152.0
2136.0
2120.0
2104.0
2088.0
2088.0
2072.0
2056.0
2039.0
2039.0
2023.0
2007.0
1991.0
1975.0
1959.0
1959.0
1943.0
1927.0
1927.0
1911.0
1911.0
1911.0
1895.0
1895.0
1895.0
1895.0
1895.0
1895.0
1895.0
1879.0
1863.0
1831.0
1815.0
1783.0
1766.0
1750.0
1734.0
1734.0
1734.0
1750.0
1750.0
1734.0
1734.0
1702.0
1686.0
1654.0
1622.0
1590.0
1574.0
1574.0
1574.0
1574.0
1606.0
1638.0
1686.0
1734.0
1783.0
1847.0
1911.0
1975.0
2056.0
2120.0
2184.0
2232.0
2296.0
2361.0
2409.0
2457.0
2505.0
2521.0
2537.0
2521.0
2505.0
2489.0
2457.0
2441.0
2409.0
2377.0
2345.0
2329.0
2296.0
2264.0
2232.0
2216.0
2184.0
2152.0
2072.0
1959.0
1895.0
1831.0
1799.0
1766.0
1718.0
1686.0
1654.0
1606.0
1574.0
1558.0
1542.0
1542.0
1542.0
1542.0
1542.0
1542.0
1526.0
1493.0
1461.0
1429.0
1381.0
1349.0
1317.0
1269.0
1253.0
1237.0
1220.0
1204.0
1188.0
1188.0
1188.0
1172.0
1172.0
1156.0
1156.0
1140.0
1140.0
1140.0
1124.0
1108.0
1092.0
1092.0
1076.0
1060.0
1044.0
1044.0
1028.0
1028.0
1028.0
1028.0
1028.0
1028.0
1028.0
1012.0
1012.0
1012.0
996.0
996.0
996.0
996.0
980.0
980.0
980.0
980.0
996.0
1012.0
1044.0
1076.0
1140.0
1220.0
1317.0
1413.0
1526.0
1638.0
1734.0
1847.0
1975.0
2104.0
2216.0
2345.0
2457.0
2569.0
2682.0
2794.0
2875.0
2971.0
3035.0
3083.0
3131.0
3180.0
3212.0
3244.0
3260.0
3276.0
3276.0
3276.0
3260.0
3244.0
3228.0
3196.0
3180.0
3148.0
3115.0
3083.0
3051.0
3019.0
2971.0
2939.0
2891.0
2842.0
2810.0
2762.0
2730.0
2698.0
2650.0
2618.0
2569.0
2537.0
2489.0
2457.0
2409.0
2377.0
2345.0
2296.0
2264.0
2232.0
2184.0
2152.0
2104.0
2072.0
2023.0
1991.0
1943.0
1911.0
1879.0
1847.0
1815.0
1783.0
1750.0
1734.0
1702.0
1670.0
1638.0
1606.0
1590.0
1558.0
1542.0
1510.0
1493.0
1477.0
1461.0
1445.0
1429.0
1413.0
1397.0
1381.0
1381.0
1365.0
1365.0
1365.0
1397.0
1429.0
1461.0
1510.0
1590.0
1670.0
1766.0
1847.0
1943.0
2039.0
2136.0
2216.0
2296.0
2361.0
2409.0
2457.0
2505.0
2553.0
2585.0
2602.0
2618.0
2618.0
2602.0
2602.0
2585.0
2569.0
2553.0
2553.0
2553.0
2553.0
2553.0
2553.0
2537.0
2505.0
2473.0
2409.0
2361.0
2312.0
2264.0
2216.0
2184.0
2152.0
2120.0
2104.0
2088.0
2072.0
2072.0
2056.0
2039.0
2023.0
2007.0
1991.0
1975.0
1943.0
1911.0
1895.0
1863.0
1847.0
1815.0
1799.0
1783.0
1750.0
1734.0
1718.0
1702.0
1702.0
1686.0
1670.0
1670.0
1654.0
1654.0
1638.0
1638.0
1622.0
1606.0
1590.0
1590.0
1574.0
1558.0
1558.0
1542.0
1526.0
1526.0
1526.0
1526.0
1542.0
1574.0
1622.0
1670.0
1718.0
1783.0
1863.0
1959.0
2056.0
2120.0
2184.0
2248.0
2312.0
2393.0
2473.0
2521.0
2569.0
2634.0
2682.0
2730.0
2762.0
2794.0
2826.0
2826.0
2826.0
2810.0
2794.0
2778.0
2746.0
2714.0
2682.0
2650.0
2618.0
2569.0
2537.0
2505.0
2473.0
2441.0
2393.0
2361.0
2329.0
2296.0
2264.0
2216.0
2184.0
2152.0
2120.0
2088.0
2056.0
2023.0
1991.0
1975.0
1943.0
1911.0
1895.0
1863.0
1847.0
1815.0
1783.0
1766.0
1734.0
1702.0
1686.0
1654.0
1622.0
1590.0
1574.0
1558.0
1526.0
1510.0
1477.0
1445.0
1429.0
1397.0
1381.0
1349.0
1333.0
1301.0
1285.0
1269.0
1253.0
1237.0
1220.0
1204.0
1188.0
1172.0
1156.0
1156.0
1140.0
1124.0
1124.0
1124.0
1124.0
1108.0
1108.0
1092.0
1092.0
1076.0
1076.0
1076.0
1092.0
1108.0
1140.0
1188.0
1237.0
1301.0
1397.0
1493.0
1590.0
1686.0
1799.0
1911.0
2007.0
2120.0
2216.0
2296.0
2361.0
2441.0
2537.0
2618.0
2682.0
2746.0
2810.0
2842.0
2858.0
2875.0
2858.0
2842.0
2810.0
2778.0
2746.0
2698.0
2650.0
2618.0
2569.0
2521.0
2489.0
2441.0
2409.0
2377.0
2345.0
2312.0
2296.0
2264.0
2248.0
2232.0
2216.0
2216.0
2200.0
2168.0
2152.0
2136.0
2104.0
2072.0
2056.0
2023.0
2007.0
1975.0
1959.0
1927.0
1911.0
1895.0
1879.0
1863.0
1847.0
1831.0
1831.0
1815.0
1831.0
1831.0
1863.0
1879.0
1927.0
1959.0
2007.0
2072.0
2120.0
2184.0
2232.0
2264.0
2312.0
2361.0
2409.0
2441.0
2473.0
2505.0
2521.0
2537.0
2521.0
2505.0
2489.0
2473.0
2441.0
2409.0
2361.0
2329.0
2296.0
2248.0
2216.0
2184.0
2136.0
2104.0
2072.0
2039.0
2007.0
1975.0
1943.0
1895.0
1863.0
1831.0
1799.0
1766.0
1750.0
1718.0
1686.0
1670.0
1654.0
1622.0
1606.0
1574.0
1542.0
1526.0
1493.0
1461.0
1445.0
1413.0
1381.0
1365.0
1349.0
1333.0
1301.0
1285.0
1269.0
1253.0
1237.0
1220.0
1204.0
1188.0
1172.0
1156.0
1140.0
1140.0
1124.0
1108.0
1092.0
1076.0
1060.0
1060.0
1044.0
1044.0
1028.0
1012.0
1012.0
996.0
996.0
980.0
980.0
964.0
947.0
931.0
931.0
915.0
915.0
915.0
899.0
931.0
996.0
1012.0
1028.0
1044.0
1044.0
1060.0
1060.0
1076.0
1108.0
1156.0
1237.0
1301.0
1381.0
1477.0
1590.0
1718.0
1831.0
1959.0
2088.0
2216.0
2329.0
2441.0
2553.0
2666.0
2762.0
2826.0
2907.0
2987.0
3067.0
3131.0
3180.0
3212.0
3244.0
3260.0
3276.0
3276.0
3260.0
3244.0
3212.0
3180.0
3148.0
3115.0
3083.0
3051.0
3019.0
2971.0
2939.0
2907.0
2858.0
2826.0
2778.0
2746.0
2698.0
2666.0
2618.0
2585.0
2553.0
2505.0
2473.0
2441.0
2409.0
2377.0
2345.0
2312.0
2280.0
2248.0
2216.0
2184.0
2152.0
2120.0
2088.0
2056.0
2007.0
1975.0
1943.0
1911.0
1879.0
1863.0
1831.0
1799.0
1783.0
1766.0
1750.0
1718.0
1702.0
1686.0
1670.0
1670.0
1654.0
1638.0
1606.0
1590.0
1574.0
1558.0
1542.0
1526.0
1510.0
1510.0
1493.0
1493.0
1477.0
1477.0
1461.0
1445.0
1445.0
1429.0
1429.0
1445.0
1461.0
1493.0
1542.0
1590.0
1654.0
1718.0
1783.0
1863.0
1943.0
2023.0
2104.0
2184.0
2264.0
2329.0
2393.0
2457.0
2505.0
2553.0
2602.0
2634.0
2682.0
2698.0
2714.0
2730.0
2730.0
2714.0
2698.0
2682.0
2650.0
2618.0
2585.0
2553.0
2521.0
2489.0
2457.0
2425.0
2393.0
2361.0
2329.0
2296.0
2264.0
2232.0
2200.0
2168.0
2152.0
2120.0
2088.0
2072.0
2039.0
2023.0
1991.0
1975.0
1959.0
1927.0
1911.0
1879.0
1863.0
1831.0
1815.0
1783.0
1766.0
1734.0
1718.0
1686.0
1670.0
1638.0
1622.0
1622.0
1606.0
1590.0
1574.0
1574.0
1558.0
1542.0
1542.0
1526.0
1526.0
1510.0
1510.0
1493.0
1493.0
1477.0
1477.0
1477.0
1493.0
1510.0
1542.0
1574.0
1638.0
1702.0
1766.0
1847.0
1911.0
1975.0
2056.0
2136.0
2216.0
2296.0
2377.0
2441.0
2505.0
2569.0
2618.0
2666.0
2682.0
2714.0
2730.0
2746.0
2746.0
2746.0
2730.0
2730.0
2714.0
2682.0
2666.0
2650.0
2618.0
2602.0
2585.0
2569.0
2553.0
2521.0
2505.0
2457.0
2425.0
2377.0
2312.0
2248.0
2200.0
2152.0
2088.0
2039.0
1991.0
1943.0
1895.0
1863.0
1831.0
1799.0
1766.0
1750.0
1718.0
1702.0
1686.0
1670.0
1654.0
1638.0
1622.0
1574.0
1526.0
1493.0
1461.0
1429.0
1413.0
1397.0
1381.0
1365.0
1333.0
1317.0
1301.0
1285.0
1269.0
1253.0
1253.0
1237.0
1237.0
1237.0
1237.0
1237.0
1237.0
1220.0
1220.0
1220.0
1204.0
1188.0
1188.0
1172.0
1172.0
1172.0
1172.0
1172.0
1188.0
1204.0
1220.0
1269.0
1317.0
1381.0
1445.0
1526.0
1606.0
1686.0
1766.0
1831.0
1911.0
1975.0
2056.0
2136.0
2200.0
2264.0
2329.0
2393.0
2441.0
2489.0
2537.0
2553.0
2569.0
2585.0
2602.0
2602.0
2602.0
2585.0
2553.0
2521.0
2489.0
2457.0
2425.0
2377.0
2361.0
2329.0
2296.0
2264.0
2216.0
2184.0
2152.0
2120.0
2088.0
2056.0
2023.0
1991.0
1959.0
1927.0
1895.0
1879.0
1847.0
1815.0
1783.0
1766.0
1734.0
1702.0
1670.0
1654.0
1622.0
1606.0
1590.0
1558.0
1542.0
1526.0
1493.0
1477.0
1461.0
1445.0
1429.0
1397.0
1381.0
1381.0
1365.0
1365.0
1349.0
1333.0
1317.0
1301.0
1301.0
1285.0
1285.0
1269.0
1269.0
1269.0
1269.0
1253.0
1253.0
1253.0
1237.0
1253.0
1253.0
1269.0
1301.0
1349.0
1397.0
1461.0
1526.0
1590.0
1654.0
1734.0
1815.0
1879.0
1959.0
2023.0
2104.0
2168.0
2216.0
2264.0
2312.0
2345.0
2377.0
2409.0
2425.0
2441.0
2457.0
2457.0
2441.0
2441.0
2441.0
2425.0
2409.0
2393.0
2393.0
2377.0
2361.0
2345.0
2329.0
2312.0
2296.0
2280.0
2264.0
2248.0
2232.0
2216.0
2200.0
2184.0
2168.0
2152.0
2136.0
2120.0
2104.0
2088.0
2072.0
2056.0
2056.0
2039.0
2023.0
1991.0
1975.0
1943.0
1927.0
1895.0
1879.0
1863.0
1847.0
1815.0
1799.0
1783.0
1766.0
1734.0
1718.0
1702.0
1670.0
1654.0
1638.0
1606.0
1590.0
1590.0
1574.0
1574.0
1558.0
1558.0
1558.0
1542.0
1526.0
1526.0
1510.0
1493.0
1477.0
1461.0
1445.0
1445.0
1445.0
1445.0
1445.0
1445.0
1461.0
1461.0
1493.0
1526.0
1574.0
1622.0
1686.0
1766.0
1847.0
1927.0
1991.0
2072.0
2152.0
2232.0
2312.0
2377.0
2441.0
2489.0
2537.0
2585.0
2618.0
2666.0
2698.0
2730.0
2762.0
2810.0
2842.0
2875.0
2907.0
2907.0
2907.0
2907.0
2891.0
2875.0
2842.0
2842.0
2858.0
2842.0
2810.0
2778.0
2746.0
2714.0
2682.0
2650.0
2618.0
2585.0
2537.0
2521.0
2489.0
2457.0
2409.0
2377.0
2345.0
2312.0
2280.0
2248.0
2216.0
2184.0
2152.0
2120.0
2088.0
2056.0
2039.0
2007.0
1975.0
1959.0
1927.0
1895.0
1863.0
1831.0
1799.0
1783.0
1750.0
1718.0
1702.0
1670.0
1638.0
1606.0
1574.0
1542.0
1510.0
1493.0
1493.0
1493.0
1510.0
1526.0
1558.0
1590.0
1622.0
1670.0
1718.0
1766.0
1815.0
1863.0
1911.0
1943.0
1991.0
2023.0
2039.0
2072.0
2088.0
2088.0
2088.0
2072.0
2056.0
2039.0
2007.0
1975.0
1943.0
1911.0
1879.0
1847.0
1815.0
1766.0
1734.0
1686.0
1654.0
1606.0
1574.0
1542.0
1493.0
1461.0
1445.0
1413.0
1397.0
1365.0
1349.0
1317.0
1301.0
1285.0
1269.0
1253.0
1237.0
1220.0
1204.0
1204.0
1188.0
1172.0
1156.0
1140.0
1124.0
1108.0
1092.0
1076.0
1076.0
1060.0
1044.0
1044.0
1028.0
1012.0
996.0
980.0
964.0
947.0
931.0
915.0
915.0
899.0
883.0
883.0
883.0
867.0
867.0
851.0
851.0
835.0
835.0
835.0
835.0
819.0
819.0
819.0
835.0
835.0
835.0
819.0
803.0
787.0
771.0
755.0
739.0
707.0
691.0
674.0
658.0
658.0
658.0
642.0
642.0
642.0
626.0
626.0
610.0
610.0
610.0
626.0
658.0
707.0
755.0
835.0
931.0
1044.0
1156.0
1301.0
1429.0
1558.0
1702.0
1831.0
1959.0
2056.0
2152.0
2248.0
2345.0
2441.0
2521.0
2618.0
2682.0
2746.0
2810.0
2842.0
2875.0
2891.0
2891.0
2891.0
2875.0
2858.0
2842.0
2810.0
2778.0
2730.0
2698.0
2650.0
2602.0
2553.0
2521.0
2473.0
2441.0
2393.0
2361.0
2312.0
2264.0
2232.0
2184.0
2136.0
2104.0
2056.0
2007.0
1975.0
1927.0
1879.0
1847.0
1799.0
1750.0
1718.0
1686.0
1654.0
1622.0
1590.0
1574.0
1542.0
1526.0
1510.0
1477.0
1445.0
1413.0
1397.0
1365.0
1333.0
1317.0
1301.0
1285.0
1285.0
1285.0
1301.0
1317.0
1349.0
1397.0
1445.0
1510.0
1574.0
1638.0
1702.0
1766.0
1831.0
1879.0
1911.0
1943.0
1991.0
2007.0
2023.0
2039.0
2104.0
2184.0
2216.0
2216.0
2200.0
2184.0
2152.0
2120.0
2088.0
2056.0
2023.0
1991.0
1975.0
1943.0
1927.0
1895.0
1879.0
1847.0
1831.0
1815.0
1799.0
1783.0
1750.0
1734.0
1718.0
1702.0
1686.0
1670.0
1670.0
1654.0
1654.0
1638.0
1638.0
1638.0
1638.0
1638.0
1638.0
1654.0
1654.0
1686.0
1702.0
1734.0
1783.0
1815.0
1847.0
1863.0
1895.0
1927.0
1943.0
1959.0
1959.0
1959.0
1943.0
1927.0
1911.0
1895.0
1879.0
1847.0
1831.0
1815.0
1799.0
1799.0
1783.0
1783.0
1783.0
1783.0
1766.0
1766.0
1750.0
1750.0
1734.0
1718.0
1702.0
1686.0
1670.0
1654.0
1654.0
1638.0
1622.0
1606.0
1606.0
1590.0
1590.0
1590.0
1574.0
1574.0
1558.0
1558.0
1542.0
1542.0
1526.0
1526.0
1510.0
1510.0
1510.0
1493.0
1493.0
1477.0
1477.0
1461.0
1461.0
1445.0
1445.0
1429.0
1413.0
1413.0
1397.0
1397.0
1397.0
1381.0
1381.0
1365.0
1349.0
1349.0
1333.0
1317.0
1317.0
1301.0
1301.0
1301.0
1285.0
1269.0
1269.0
1253.0
1237.0
1237.0
1220.0
1204.0
1188.0
1172.0
1172.0
1172.0
1156.0
1140.0
1140.0
1124.0
1108.0
1108.0
1092.0
1092.0
1076.0
1076.0
1076.0
1076.0
1076.0
1060.0
1060.0
1044.0
1028.0
1028.0
1012.0
1012.0
1028.0
1060.0
1108.0
1156.0
1220.0
1317.0
1429.0
1542.0
1670.0
1799.0
1927.0
2056.0
2168.0
2280.0
2393.0
2473.0
2553.0
2634.0
2714.0
2778.0
2842.0
2907.0
2955.0
2987.0
3019.0
3035.0
3035.0
3035.0
3035.0
3019.0
3003.0
2987.0
2955.0
2939.0
2907.0
2875.0
2842.0
2810.0
2778.0
2746.0
2714.0
2682.0
2650.0
2618.0
2585.0
2569.0
2537.0
2505.0
2489.0
2457.0
2441.0
2409.0
2393.0
2361.0
2345.0
2312.0
2280.0
2248.0
2232.0
2200.0
2168.0
2152.0
2120.0
2104.0
2072.0
2056.0
2039.0
2023.0
2007.0
1991.0
1975.0
1959.0
1959.0
1943.0
1927.0
1911.0
1895.0
1879.0
1863.0
1847.0
1831.0
1831.0
1815.0
1815.0
1815.0
1815.0
1831.0
1847.0
1879.0
1911.0
1959.0
2007.0
2056.0
2120.0
2168.0
2232.0
2296.0
2361.0
2409.0
2473.0
2521.0
2553.0
2602.0
2618.0
2634.0
2666.0
2666.0
2666.0
2650.0
2634.0
2602.0
2569.0
2537.0
2505.0
2489.0
2457.0
2441.0
2425.0
2393.0
2377.0
2345.0
2329.0
2296.0
2248.0
2216.0
2168.0
2136.0
2104.0
2072.0
2039.0
2023.0
1991.0
1959.0
1943.0
1927.0
1895.0
1879.0
1863.0
1831.0
1815.0
1783.0
1766.0
1750.0
1734.0
1702.0
1686.0
1670.0
1638.0
1622.0
1606.0
1606.0
1590.0
1590.0
1590.0
1606.0
1606.0
1622.0
1622.0
1622.0
1622.0
1622.0
1606.0
1606.0
1590.0
1574.0
1558.0
1542.0
1526.0
1510.0
1493.0
1477.0
1477.0
1477.0
1461.0
1461.0
1461.0
1461.0
1461.0
1461.0
1445.0
1445.0
1429.0
1429.0
1413.0
1397.0
1397.0
1413.0
1445.0
1477.0
1542.0
1606.0
1686.0
1766.0
1863.0
1975.0
2072.0
2184.0
2280.0
2377.0
2457.0
2553.0
2634.0
2698.0
2746.0
2810.0
2875.0
2939.0
2987.0
3051.0
3083.0
3115.0
3148.0
3164.0
3164.0
3164.0
3148.0
3131.0
3099.0
3067.0
3035.0
3003.0
2971.0
2939.0
2907.0
2875.0
2842.0
2810.0
2778.0
2746.0
2714.0
2682.0
2650.0
2618.0
2569.0
2537.0
2505.0
2489.0
2457.0
2425.0
2393.0
2377.0
2345.0
2312.0
2296.0
2264.0
2232.0
2200.0
2168.0
2152.0
2120.0
2088.0
2056.0
2039.0
2023.0
1991.0
1959.0
1943.0
1911.0
1895.0
1863.0
1831.0
1799.0
1783.0
1750.0
1734.0
1718.0
1702.0
1686.0
1654.0
1638.0
1622.0
1606.0
1590.0
1574.0
1558.0
1558.0
1542.0
1526.0
1526.0
1510.0
1493.0
1477.0
1477.0
1461.0
1445.0
1429.0
1413.0
1397.0
1381.0
1365.0
1349.0
1349.0
1333.0
1349.0
1349.0
1381.0
1429.0
1477.0
1558.0
1638.0
1718.0
1815.0
1895.0
1975.0
2056.0
2152.0
2232.0
2329.0
2409.0
2489.0
2553.0
2634.0
2698.0
2762.0
2810.0
2858.0
2875.0
2907.0
2923.0
2923.0
2923.0
2923.0
2891.0
2875.0
2842.0
2826.0
2810.0
2778.0
2762.0
2746.0
2730.0
2714.0
2698.0
2682.0
2666.0
2650.0
2618.0
2602.0
2569.0
2553.0
2521.0
2505.0
2473.0
2457.0
2425.0
2409.0
2377.0
2361.0
2345.0
2312.0
2296.0
2296.0
2280.0
2264.0
2264.0
2248.0
2232.0
2216.0
2200.0
2184.0
2120.0
2007.0
1943.0
1911.0
1879.0
1863.0
1847.0
1831.0
1815.0
1799.0
1783.0
1766.0
1750.0
1750.0
1750.0
1750.0
1750.0
1750.0
1766.0
1766.0
1766.0
1750.0
1734.0
1734.0
1718.0
1718.0
1718.0
1750.0
1783.0
1831.0
1895.0
1943.0
2023.0
2088.0
2168.0
2248.0
2312.0
2393.0
2457.0
2521.0
2569.0
2634.0
2666.0
2698.0
2730.0
2762.0
2778.0
2794.0
2778.0
2762.0
2746.0
2714.0
2666.0
2618.0
2569.0
2537.0
2489.0
2457.0
2425.0
2393.0
2361.0
2329.0
2296.0
2264.0
2216.0
2184.0
2152.0
2104.0
2072.0
2039.0
1991.0
1943.0
1911.0
1879.0
1847.0
1815.0
1799.0
1766.0
1750.0
1718.0
1702.0
1686.0
1670.0
1654.0
1638.0
1622.0
1622.0
1622.0
1622.0
1622.0
1622.0
1606.0
1606.0
1590.0
1590.0
1574.0
1558.0
1526.0
1510.0
1493.0
1477.0
1461.0
1445.0
1445.0
1429.0
1429.0
1429.0
1429.0
1429.0
1429.0
1429.0
1429.0
1429.0
1429.0
1429.0
1429.0
1429.0
1413.0
1413.0
1429.0
1429.0
1429.0
1445.0
1477.0
1526.0
1574.0
1654.0
1734.0
1815.0
1911.0
1975.0
2072.0
2168.0
2264.0
2361.0
2457.0
2537.0
2634.0
2714.0
2778.0
2842.0
2907.0
2939.0
2955.0
2971.0
2987.0
2987.0
2987.0
2971.0
2955.0
2923.0
2891.0
2858.0
2810.0
2778.0
2730.0
2698.0
2650.0
2602.0
2569.0
2521.0
2473.0
2425.0
2393.0
2345.0
2312.0
2264.0
2232.0
2216.0
2184.0
2152.0
2120.0
2088.0
2039.0
2007.0
1975.0
1943.0
1911.0
1879.0
1847.0
1831.0
1799.0
1766.0
1750.0
1718.0
1702.0
1670.0
1654.0
1638.0
1622.0
1606.0
1590.0
1574.0
1574.0
1558.0
1542.0
1526.0
1493.0
1477.0
1445.0
1413.0
1397.0
1365.0
1349.0
1317.0
1317.0
1285.0
1269.0
1253.0
1237.0
1220.0
1204.0
1188.0
1172.0
1172.0
1172.0
1172.0
1172.0
1172.0
1172.0
1156.0
1156.0
1124.0
1108.0
1092.0
1060.0
1044.0
1028.0
1012.0
1012.0
1028.0
1060.0
1108.0
1172.0
1253.0
1349.0
1461.0
1574.0
1686.0
1799.0
1911.0
2023.0
2104.0
2184.0
2264.0
2345.0
2425.0
2489.0
2553.0
2602.0
2650.0
2682.0
2714.0
2730.0
2746.0
2746.0
2746.0
2762.0
2762.0
2746.0
2730.0
2714.0
2698.0
2682.0
2650.0
2634.0
2618.0
2602.0
2585.0
2553.0
2537.0
2505.0
2489.0
2457.0
2425.0
2393.0
2361.0
2329.0
2296.0
2280.0
2248.0
2216.0
2184.0
2168.0
2136.0
2104.0
2072.0
2056.0
2039.0
2007.0
1991.0
1975.0
1959.0
1959.0
1943.0
1927.0
1911.0
1895.0
1879.0
1863.0
1847.0
1815.0
1799.0
1783.0
1766.0
1734.0
1718.0
1702.0
1686.0
1670.0
1654.0
1638.0
1622.0
1606.0
1574.0
1558.0
1542.0
1526.0
1493.0
1461.0
1445.0
1413.0
1381.0
1365.0
1333.0
1317.0
1301.0
1285.0
1269.0
1253.0
1237.0
1220.0
1220.0
1204.0
1188.0
1188.0
1172.0
1172.0
1172.0
1172.0
1172.0
1172.0
1172.0
1188.0
1188.0
1188.0
1188.0
1188.0
1188.0
1188.0
1188.0
1204.0
1204.0
1204.0
1204.0
1204.0
1188.0
1188.0
1156.0
1140.0
1124.0
1108.0
1108.0
1108.0
1124.0
1124.0
1156.0
1172.0
1188.0
1204.0
1220.0
1237.0
1269.0
1285.0
1285.0
1301.0
1333.0
1349.0
1397.0
1429.0
1493.0
1558.0
1654.0
1766.0
1879.0
1991.0
2120.0
2232.0
2345.0
2457.0
2553.0
2650.0
2714.0
2794.0
2875.0
2971.0
3051.0
3115.0
3196.0
3260.0
3324.0
3372.0
3404.0
3437.0
3453.0
3437.0
3437.0
3421.0
3404.0
3372.0
3340.0
3308.0
3276.0
3244.0
3212.0
3164.0
3131.0
3099.0
3051.0
3019.0
2971.0
2939.0
2907.0
2858.0
2826.0
2794.0
2762.0
2714.0
2682.0
2650.0
2618.0
2585.0
2553.0
2521.0
2489.0
2457.0
2425.0
2393.0
2345.0
2312.0
2280.0
2248.0
2216.0
2168.0
2136.0
2104.0
2072.0
2056.0
2023.0
2007.0
1975.0
1959.0
1927.0
1911.0
1895.0
1863.0
1847.0
1831.0
1815.0
1783.0
1766.0
1734.0
1718.0
1686.0
1654.0
1638.0
1606.0
1590.0
1574.0
1542.0
1526.0
1493.0
1477.0
1445.0
1429.0
1413.0
1397.0
1381.0
1365.0
1349.0
1333.0
1317.0
1301.0
1285.0
1269.0
1253.0
1237.0
1220.0
1220.0
1204.0
1204.0
1204.0
1204.0
1204.0
1204.0
1204.0
1220.0
1253.0
1285.0
1349.0
1413.0
1493.0
1574.0
1654.0
1734.0
1815.0
1895.0
1975.0
2072.0
2152.0
2248.0
2329.0
2345.0
2312.0
2345.0
2377.0
2409.0
2425.0
2457.0
2489.0
2505.0
2521.0
2521.0
2505.0
2505.0
2489.0
2457.0
2441.0
2425.0
2393.0
2377.0
2361.0
2345.0
2329.0
2312.0
2296.0
2280.0
2264.0
2248.0
2232.0
2200.0
2184.0
2168.0
2136.0
2104.0
2088.0
2056.0
2039.0
2023.0
1991.0
1975.0
1959.0
1927.0
1911.0
1895.0
1879.0
1863.0
1831.0
1815.0
1799.0
1783.0
1766.0
1734.0
1718.0
1686.0
1670.0
1654.0
1622.0
1606.0
1590.0
1558.0
1542.0
1526.0
1510.0
1493.0
1477.0
1477.0
1461.0
1461.0
1445.0
1445.0
1445.0
1429.0
1429.0
1413.0
1413.0
1397.0
1365.0
1349.0
1333.0
1317.0
1301.0
1301.0
1285.0
1301.0
1301.0
1333.0
1365.0
1413.0
1477.0
1542.0
1622.0
1702.0
1766.0
1831.0
1895.0
1959.0
2023.0
2088.0
2152.0
2200.0
2264.0
2296.0
2345.0
2377.0
2409.0
2425.0
2441.0
2441.0
2441.0
2441.0
2441.0
2425.0
2409.0
2393.0
2377.0
2361.0
2345.0
2329.0
2312.0
2296.0
2280.0
2264.0
2248.0
2216.0
2200.0
2184.0
2152.0
2136.0
2104.0
2072.0
2039.0
2023.0
1991.0
1959.0
1943.0
1911.0
1879.0
1863.0
1831.0
1799.0
1783.0
1750.0
1718.0
1702.0
1670.0
1654.0
1622.0
1590.0
1558.0
1526.0
1493.0
1477.0
1445.0
1429.0
1397.0
1381.0
1381.0
1365.0
1349.0
1333.0
1333.0
1317.0
1301.0
1301.0
1285.0
1285.0
1269.0
1269.0
1253.0
1253.0
1237.0
1237.0
1220.0
1220.0
1204.0
1204.0
1204.0
1204.0
1220.0
1237.0
1253.0
1285.0
1333.0
1397.0
1461.0
1542.0
1622.0
1702.0
1799.0
1879.0
1959.0
2023.0
2088.0
2152.0
2216.0
2264.0
2329.0
2393.0
2441.0
2473.0
2521.0
2537.0
2553.0
2569.0
2569.0
2569.0
2553.0
2537.0
2521.0
2505.0
2489.0
2457.0
2441.0
2409.0
2393.0
2361.0
2329.0
2296.0
2264.0
2248.0
2216.0
2184.0
2152.0
2120.0
2088.0
2056.0
2023.0
2007.0
1975.0
1943.0
1927.0
1911.0
1879.0
1863.0
1831.0
1815.0
1783.0
1766.0
1734.0
1718.0
1686.0
1670.0
1638.0
1622.0
1590.0
1574.0
1542.0
1526.0
1510.0
1493.0
1477.0
1461.0
1461.0
1445.0
1429.0
1429.0
1429.0
1397.0
1381.0
1365.0
1365.0
1365.0
1349.0
1349.0
1349.0
1333.0
1333.0
1317.0
1333.0
1333.0
1365.0
1413.0
1477.0
1558.0
1638.0
1734.0
1815.0
1895.0
1975.0
2039.0
2088.0
2136.0
2200.0
2264.0
2312.0
2377.0
2425.0
2473.0
2521.0
2537.0
2553.0
2553.0
2553.0
2537.0
2521.0
2505.0
2489.0
2473.0
2457.0
2457.0
2441.0
2441.0
2457.0
2457.0
2457.0
2473.0
2473.0
2489.0
2521.0
2537.0
2553.0
2585.0
2602.0
2618.0
2618.0
2618.0
2602.0
2569.0
2521.0
2473.0
2409.0
2345.0
2280.0
2200.0
2136.0
2072.0
2007.0
1943.0
1895.0
1847.0
1815.0
1783.0
1734.0
1702.0
1654.0
1606.0
1542.0
1477.0
1397.0
1333.0
1253.0
1172.0
1108.0
1060.0
1028.0
996.0
996.0
1028.0
1076.0
1156.0
1253.0
1365.0
1493.0
1638.0
1766.0
1879.0
1991.0
2120.0
2248.0
2361.0
2473.0
2569.0
2666.0
2746.0
2810.0
2875.0
2923.0
2955.0
2971.0
2971.0
2971.0
2971.0
2955.0
2939.0
2907.0
2891.0
2858.0
2810.0
2778.0
2730.0
2682.0
2634.0
2569.0
2505.0
2441.0
2361.0
2296.0
2216.0
2136.0
2072.0
2007.0
1943.0
1911.0
1879.0
1847.0
1831.0
1815.0
1783.0
1766.0
1734.0
1702.0
1654.0
1606.0
1558.0
1526.0
1493.0
1461.0
1429.0
1397.0
1381.0
1365.0
1349.0
1333.0
1333.0
1333.0
1317.0
1301.0
1285.0
1269.0
1237.0
1188.0
1140.0
1092.0
1028.0
980.0
947.0
899.0
867.0
835.0
803.0
803.0
787.0
771.0
755.0
739.0
739.0
723.0
723.0
723.0
707.0
691.0
674.0
674.0
674.0
658.0
658.0
642.0
626.0
610.0
594.0
578.0
562.0
562.0
546.0
546.0
546.0
562.0
562.0
562.0
562.0
562.0
546.0
546.0
546.0
546.0
546.0
562.0
578.0
578.0
594.0
594.0
610.0
626.0
658.0
707.0
787.0
899.0
1012.0
1156.0
1285.0
1429.0
1574.0
1734.0
1895.0
2072.0
2216.0
2377.0
2537.0
2682.0
2826.0
2955.0
3083.0
3164.0
3276.0
3372.0
3469.0
3549.0
3597.0
3645.0
3661.0
3677.0
3661.0
3645.0
3597.0
3565.0
3501.0
3453.0
3388.0
3324.0
3276.0
3228.0
3180.0
3131.0
2987.0
2810.0
2714.0
2650.0
2602.0
2553.0
2521.0
2489.0
2457.0
2409.0
2377.0
2345.0
2312.0
2280.0
2248.0
2216.0
2200.0
2168.0
2152.0
2120.0
2088.0
2056.0
2023.0
1991.0
1943.0
1911.0
1879.0
1847.0
1815.0
1783.0
1750.0
1718.0
1686.0
1654.0
1622.0
1590.0
1558.0
1526.0
1510.0
1477.0
1445.0
1429.0
1413.0
1397.0
1381.0
1365.0
1333.0
1317.0
1285.0
1269.0
1253.0
1220.0
1204.0
1188.0
1172.0
1156.0
1140.0
1124.0
1108.0
1108.0
1092.0
1076.0
1060.0
1060.0
1060.0
1076.0
1076.0
1108.0
1140.0
1172.0
1237.0
1285.0
1349.0
1413.0
1493.0
1558.0
1622.0
1702.0
1750.0
1799.0
1847.0
1911.0
1959.0
2007.0
2039.0
2088.0
2120.0
2136.0
2168.0
2168.0
2168.0
2168.0
2152.0
2136.0
2104.0
2088.0
2056.0
2023.0
2007.0
1991.0
1991.0
1975.0
1975.0
1991.0
1991.0
1991.0
2007.0
2007.0
2007.0
1991.0
1991.0
1975.0
1959.0
1959.0
1943.0
1943.0
1927.0
1927.0
1927.0
1927.0
1911.0
1911.0
1911.0
1911.0
1927.0
1927.0
1943.0
1975.0
1991.0
2023.0
2039.0
2088.0
2120.0
2152.0
2184.0
2216.0
2248.0
2264.0
2280.0
2280.0
2280.0
2280.0
2264.0
2232.0
2216.0
2184.0
2136.0
2104.0
2072.0
2023.0
1991.0
1959.0
1911.0
1895.0
1863.0
1831.0
1799.0
1783.0
1750.0
1718.0
1686.0
1654.0
1638.0
1606.0
1574.0
1542.0
1510.0
1493.0
1477.0
1445.0
1429.0
1397.0
1381.0
1349.0
1333.0
1317.0
1301.0
1285.0
1285.0
1269.0
1269.0
1269.0
1269.0
1285.0
1285.0
1301.0
1317.0
1333.0
1333.0
1349.0
1365.0
1381.0
1381.0
1381.0
1397.0
1397.0
1397.0
1381.0
1381.0
1365.0
1365.0
1349.0
1333.0
1333.0
1317.0
1317.0
1317.0
1301.0
1301.0
1285.0
1285.0
1285.0
1285.0
1269.0
1269.0
1269.0
1269.0
1269.0
1253.0
1253.0
1253.0
1237.0
1237.0
1220.0
1220.0
1204.0
1188.0
1188.0
1172.0
1172.0
1156.0
1156.0
1140.0
1124.0
1108.0
1092.0
1092.0
1076.0
1076.0
1060.0
1060.0
1044.0
1044.0
1028.0
1028.0
1012.0
996.0
996.0
980.0
980.0
964.0
947.0
947.0
947.0
964.0
980.0
1028.0
1108.0
1188.0
1285.0
1397.0
1526.0
1654.0
1799.0
1943.0
2072.0
2184.0
2312.0
2441.0
2569.0
2698.0
2810.0
2923.0
3035.0
3131.0
3228.0
3308.0
3372.0
3421.0
3453.0
3485.0
3517.0
3533.0
3533.0
3533.0
3517.0
3501.0
3469.0
3437.0
3404.0
3372.0
3324.0
3292.0
3260.0
3212.0
3180.0
3131.0
3099.0
3051.0
3003.0
2971.0
2923.0
2875.0
2826.0
2794.0
2746.0
2714.0
2666.0
2634.0
2602.0
2569.0
2537.0
2505.0
2473.0
2441.0
2409.0
2377.0
2345.0
2329.0
2296.0
2264.0
2232.0
2200.0
2168.0
2136.0
2104.0
2072.0
2039.0
2023.0
1991.0
1975.0
1943.0
1927.0
1895.0
1879.0
1847.0
1831.0
1815.0
1783.0
1766.0
1750.0
1734.0
1718.0
1702.0
1686.0
1670.0
1654.0
1638.0
1622.0
1606.0
1590.0
1574.0
1558.0
1542.0
1526.0
1526.0
1510.0
1493.0
1477.0
1477.0
1461.0
1445.0
1445.0
1429.0
1413.0
1429.0
1429.0
1445.0
1477.0
1526.0
1590.0
1654.0
1734.0
1831.0
1927.0
2023.0
2120.0
2216.0
2296.0
2361.0
2441.0
2537.0
2618.0
2682.0
2762.0
2826.0
2875.0
2923.0
2971.0
3003.0
3019.0
3019.0
3019.0
3003.0
2987.0
2971.0
2939.0
2907.0
2875.0
2842.0
2810.0
2778.0
2746.0
2714.0
2682.0
2650.0
2618.0
2585.0
2553.0
2521.0
2489.0
2457.0
2425.0
2393.0
2361.0
2329.0
2312.0
2280.0
2248.0
2216.0
2184.0
2168.0
2136.0
2104.0
2072.0
2056.0
2023.0
1991.0
1975.0
1943.0
1927.0
1895.0
1863.0
1847.0
1815.0
1783.0
1766.0
1734.0
1718.0
1686.0
1670.0
1654.0
1638.0
1622.0
1590.0
1574.0
1542.0
1526.0
1510.0
1493.0
1461.0
1445.0
1445.0
1429.0
1413.0
1397.0
1381.0
1365.0
1365.0
1365.0
1365.0
1381.0
1413.0
1461.0
1526.0
1590.0
1654.0
1734.0
1831.0
1927.0
2039.0
2136.0
2232.0
2312.0
2409.0
2489.0
2569.0
2634.0
2682.0
2730.0
2778.0
2826.0
2858.0
2891.0
2907.0
2907.0
2907.0
2891.0
2858.0
2826.0
2794.0
2762.0
2714.0
2682.0
2650.0
2618.0
2585.0
2569.0
2569.0
2553.0
2553.0
2553.0
2569.0
2569.0
2569.0
2569.0
2569.0
2569.0
2569.0
2553.0
2537.0
2521.0
2425.0
2296.0
2216.0
2168.0
2136.0
2120.0
2088.0
2072.0
2056.0
2023.0
2007.0
1991.0
1975.0
1959.0
1943.0
1943.0
1943.0
1943.0
1959.0
1991.0
2023.0
2056.0
2104.0
2136.0
2184.0
2232.0
2264.0
2312.0
2329.0
2361.0
2377.0
2393.0
2409.0
2409.0
2409.0
2409.0
2393.0
2377.0
2345.0
2329.0
2296.0
2264.0
2232.0
2200.0
2168.0
2136.0
2104.0
2072.0
2039.0
1991.0
1959.0
1927.0
1911.0
1879.0
1863.0
1831.0
1815.0
1799.0
1766.0
1750.0
1734.0
1718.0
1702.0
1670.0
1654.0
1638.0
1622.0
1606.0
1574.0
1558.0
1542.0
1510.0
1493.0
1477.0
1461.0
1445.0
1429.0
1413.0
1397.0
1381.0
1365.0
1349.0
1333.0
1317.0
1301.0
1285.0
1269.0
1253.0
1237.0
1220.0
1204.0
1204.0
1188.0
1172.0
1156.0
1140.0
1124.0
1108.0
1108.0
1092.0
1076.0
1060.0
1060.0
1060.0
1060.0
1044.0
1044.0
1028.0
1028.0
1012.0
1012.0
1012.0
996.0
996.0
996.0
996.0
996.0
996.0
996.0
996.0
996.0
996.0
996.0
1012.0
1012.0
1012.0
1028.0
1044.0
1060.0
1092.0
1140.0
1204.0
1269.0
1365.0
1477.0
1590.0
1718.0
1847.0
1975.0
2120.0
2232.0
2329.0
2441.0
2569.0
2682.0
2794.0
2891.0
3003.0
3115.0
3212.0
3276.0
3356.0
3404.0
3437.0
3469.0
3501.0
3517.0
3533.0
3533.0
3517.0
3517.0
3485.0
3453.0
3421.0
3404.0
3356.0
3308.0
3276.0
3228.0
3196.0
3131.0
3083.0
3035.0
3003.0
2939.0
2891.0
2858.0
2810.0
2778.0
2714.0
2666.0
2634.0
2585.0
2537.0
2489.0
2457.0
2425.0
2361.0
2312.0
2264.0
2232.0
2184.0
2136.0
2104.0
2056.0
2007.0
1959.0
1927.0
1895.0
1863.0
1831.0
1799.0
1766.0
1750.0
1718.0
1702.0
1670.0
1670.0
1654.0
1654.0
1654.0
1654.0
1654.0
1654.0
1654.0
1638.0
1638.0
1622.0
1622.0
1606.0
1590.0
1574.0
1558.0
1542.0
1526.0
1526.0
1526.0
1542.0
1558.0
1590.0
1638.0
1702.0
1766.0
1847.0
1927.0
2007.0
2072.0
2152.0
2232.0
2280.0
2329.0
2393.0
2441.0
2505.0
2553.0
2602.0
2634.0
2666.0
2682.0
2698.0
2698.0
2698.0
2682.0
2666.0
2634.0
2537.0
2393.0
2312.0
2248.0
2200.0
2168.0
2120.0
2088.0
2056.0
2023.0
1991.0
1959.0
1927.0
1895.0
1863.0
1815.0
1783.0
1750.0
1718.0
1686.0
1654.0
1638.0
1622.0
1590.0
1574.0
1542.0
1526.0
1493.0
1461.0
1445.0
1413.0
1397.0
1365.0
1349.0
1333.0
1317.0
1301.0
1285.0
1253.0
1237.0
1220.0
1204.0
1188.0
1172.0
1156.0
1140.0
1124.0
1124.0
1108.0
1092.0
1092.0
1076.0
1060.0
1044.0
1028.0
1012.0
1012.0
1012.0
1012.0
1028.0
1028.0
1044.0
1060.0
1076.0
1108.0
1124.0
1140.0
1156.0
1156.0
1172.0
1172.0
1172.0
1172.0
1188.0
1188.0
1188.0
1188.0
1188.0
1204.0
1204.0
1220.0
1237.0
1269.0
1301.0
1349.0
1397.0
1461.0
1542.0
1622.0
1702.0
1783.0
1863.0
1959.0
2039.0
2104.0
2184.0
2248.0
2296.0
2345.0
2409.0
2457.0
2521.0
2569.0
2602.0
2650.0
2682.0
2714.0
2730.0
2746.0
2730.0
2730.0
2730.0
2714.0
2698.0
2666.0
2650.0
2618.0
2602.0
2569.0
2537.0
2505.0
2473.0
2441.0
2409.0
2377.0
2361.0
2329.0
2296.0
2264.0
2232.0
2216.0
2184.0
2168.0
2136.0
2120.0
2104.0
2088.0
2056.0
2039.0
2023.0
2007.0
1991.0
1991.0
1975.0
1975.0
1975.0
1975.0
1991.0
2023.0
2056.0
2088.0
2136.0
2184.0
2232.0
2280.0
2329.0
2361.0
2393.0
2409.0
2425.0
2425.0
2425.0
2425.0
2409.0
2377.0
2345.0
2312.0
2280.0
2232.0
2184.0
2136.0
2088.0
2039.0
1991.0
1943.0
1895.0
1863.0
1815.0
1766.0
1718.0
1686.0
1638.0
1590.0
1558.0
1526.0
1493.0
1461.0
1429.0
1397.0
1365.0
1333.0
1301.0
1285.0
1253.0
1237.0
1220.0
1188.0
1188.0
1172.0
1140.0
1124.0
1108.0
1092.0
1076.0
1076.0
1060.0
1044.0
1044.0
1044.0
1044.0
1044.0
1044.0
1044.0
1044.0
1044.0
1044.0
1044.0
1044.0
1044.0
1060.0
1060.0
1060.0
1060.0
1076.0
1076.0
1092.0
1108.0
1140.0
1188.0
1237.0
1301.0
1365.0
1445.0
1526.0
1590.0
1670.0
1750.0
1831.0
1911.0
1975.0
2056.0
2136.0
2200.0
2264.0
2329.0
2377.0
2409.0
2441.0
2457.0
2473.0
2489.0
2489.0
2489.0
2489.0
2457.0
2441.0
2489.0
2553.0
2585.0
2569.0
2553.0
2537.0
2505.0
2473.0
2441.0
2393.0
2361.0
2312.0
2264.0
2232.0
2184.0
2152.0
2120.0
2088.0
2056.0
2023.0
2007.0
1975.0
1943.0
1911.0
1895.0
1863.0
1831.0
1799.0
1783.0
1750.0
1718.0
1686.0
1654.0
1622.0
1606.0
1574.0
1574.0
1558.0
1558.0
1542.0
1542.0
1542.0
1526.0
1510.0
1493.0
1493.0
1477.0
1461.0
1461.0
1445.0
1445.0
1429.0
1429.0
1429.0
1429.0
1429.0
1429.0
1429.0
1429.0
1413.0
1413.0
1413.0
1413.0
1429.0
1429.0
1461.0
1477.0
1526.0
1574.0
1638.0
1718.0
1799.0
1895.0
1975.0
2088.0
2184.0
2296.0
2377.0
2457.0
2537.0
2634.0
2714.0
2794.0
2858.0
2923.0
2971.0
3019.0
3051.0
3083.0
3099.0
3099.0
3099.0
3083.0
3067.0
3051.0
3003.0
2971.0
2923.0
2891.0
2842.0
2794.0
2762.0
2714.0
2682.0
2634.0
2602.0
2553.0
2505.0
2473.0
2425.0
2377.0
2329.0
2296.0
2248.0
2200.0
2168.0
2136.0
2088.0
2056.0
2023.0
1991.0
1959.0
1927.0
1895.0
1863.0
1831.0
1815.0
1783.0
1766.0
1750.0
1734.0
1718.0
1686.0
1670.0
1638.0
1622.0
1590.0
1558.0
1542.0
1510.0
1493.0
1461.0
1445.0
1413.0
1381.0
1365.0
1349.0
1317.0
1301.0
1301.0
1285.0
1285.0
1285.0
1285.0
1285.0
1269.0
1269.0
1269.0
1269.0
1253.0
1253.0
1237.0
1220.0
1204.0
1204.0
1188.0
1172.0
1172.0
1172.0
1172.0
1188.0
1204.0
1253.0
1301.0
1365.0
1445.0
1542.0
1622.0
1686.0
1783.0
1863.0
1959.0
2039.0
2120.0
2200.0
2264.0
2345.0
2409.0
2457.0
2505.0
2537.0
2585.0
2602.0
2634.0
2650.0
2650.0
2650.0
2634.0
2602.0
2585.0
2537.0
2505.0
2473.0
2425.0
2393.0
2345.0
2312.0
2264.0
2232.0
2200.0
2168.0
2136.0
2104.0
2072.0
2039.0
2023.0
1991.0
1975.0
1959.0
1927.0
1911.0
1895.0
1879.0
1847.0
1831.0
1815.0
1783.0
1766.0
1750.0
1734.0
1718.0
1702.0
1686.0
1670.0
1654.0
1638.0
1622.0
1606.0
1574.0
1574.0
1558.0
1542.0
1526.0
1526.0
1510.0
1510.0
1510.0
1510.0
1493.0
1493.0
1493.0
1493.0
1493.0
1493.0
1493.0
1493.0
1461.0
1397.0
1381.0
1349.0
1349.0
1333.0
1333.0
1317.0
1317.0
1317.0
1301.0
1301.0
1301.0
1285.0
1285.0
1269.0
1269.0
1253.0
1253.0
1253.0
1253.0
1269.0
1301.0
1333.0
1381.0
1461.0
1526.0
1622.0
1718.0
1815.0
1911.0
2007.0
2104.0
2184.0
2264.0
2345.0
2425.0
2505.0
2585.0
2650.0
2714.0
2762.0
2810.0
2842.0
2875.0
2891.0
2891.0
2875.0
2875.0
2842.0
2810.0
2778.0
2730.0
2698.0
2650.0
2602.0
2553.0
2521.0
2473.0
2441.0
2393.0
2361.0
2312.0
2264.0
2216.0
2168.0
2120.0
2072.0
2039.0
1991.0
1943.0
1911.0
1879.0
1831.0
1799.0
1750.0
1718.0
1670.0
1638.0
1606.0
1574.0
1526.0
1493.0
1461.0
1445.0
1413.0
1365.0
1333.0
1301.0
1269.0
1253.0
1220.0
1188.0
1156.0
1124.0
1108.0
1092.0
1076.0
1060.0
1044.0
1028.0
996.0
980.0
964.0
947.0
931.0
915.0
899.0
883.0
883.0
867.0
867.0
851.0
835.0
819.0
819.0
803.0
787.0
787.0
771.0
771.0
771.0
755.0
755.0
755.0
739.0
755.0
771.0
787.0
819.0
883.0
947.0
1028.0
1108.0
1172.0
1269.0
1365.0
1477.0
1574.0
1670.0
1766.0
1863.0
1959.0
2039.0
2120.0
2184.0
2232.0
2296.0
2345.0
2393.0
2425.0
2457.0
2473.0
2489.0
2505.0
2505.0
2505.0
2505.0
2505.0
2505.0
2505.0
2505.0
2505.0
2521.0
2521.0
2521.0
2521.0
2505.0
2505.0
2489.0
2473.0
2457.0
2441.0
2425.0
2425.0
2409.0
2393.0
2377.0
2361.0
2345.0
2345.0
2329.0
2312.0
2296.0
2280.0
2248.0
2232.0
2232.0
2216.0
2200.0
2168.0
2152.0
2152.0
2136.0
2120.0
2104.0
2088.0
2072.0
2056.0
2039.0
2023.0
2007.0
1991.0
1975.0
1959.0
1943.0
1927.0
1895.0
1879.0
1863.0
1847.0
1831.0
1799.0
1783.0
1766.0
1734.0
1718.0
1702.0
1686.0
1686.0
1702.0
1718.0
1734.0
1783.0
1831.0
1879.0
1943.0
2007.0
2072.0
2136.0
2200.0
2264.0
2329.0
2377.0
2425.0
2473.0
2521.0
2569.0
2602.0
2634.0
2666.0
2682.0
2682.0
2682.0
2666.0
2650.0
2618.0
2602.0
2569.0
2553.0
2521.0
2505.0
2489.0
2473.0
2457.0
2441.0
2473.0
2521.0
2537.0
2537.0
2521.0
2505.0
2489.0
2457.0
2425.0
2409.0
2377.0
2345.0
2312.0
2280.0
2248.0
2216.0
2184.0
2136.0
2088.0
2056.0
2007.0
1959.0
1927.0
1895.0
1847.0
1815.0
1783.0
1750.0
1702.0
1654.0
1606.0
1558.0
1526.0
1510.0
1542.0
1590.0
1654.0
1750.0
1863.0
1943.0
2023.0
2104.0
2184.0
2232.0
2264.0
2280.0
2280.0
2280.0
2280.0
2296.0
2329.0
2361.0
2393.0
2457.0
2521.0
2602.0
2666.0
2746.0
2810.0
2875.0
2939.0
2987.0
3035.0
3083.0
3115.0
3131.0
3164.0
3180.0
3180.0
3196.0
3180.0
3164.0
3148.0
3115.0
3083.0
3051.0
3019.0
2987.0
2939.0
2907.0
2858.0
2826.0
2794.0
2762.0
2714.0
2682.0
2650.0
2618.0
2585.0
2553.0
2521.0
2505.0
2473.0
2441.0
2409.0
2377.0
2345.0
2312.0
2296.0
2264.0
2232.0
2200.0
2184.0
2152.0
2120.0
2088.0
2056.0
2023.0
1991.0
1959.0
1927.0
1911.0
1879.0
1847.0
1831.0
1815.0
1783.0
1766.0
1734.0
1718.0
1702.0
1686.0
1670.0
1638.0
1622.0
1606.0
1590.0
1574.0
1558.0
1542.0
1542.0
1542.0
1574.0
1606.0
1654.0
1702.0
1783.0
1847.0
1927.0
2007.0
2088.0
2168.0
2248.0
2345.0
2425.0
2505.0
2569.0
2618.0
2666.0
2698.0
2714.0
2730.0
2714.0
2714.0
2682.0
2666.0
2618.0
2585.0
2537.0
2473.0
2425.0
2377.0
2312.0
2264.0
2216.0
2184.0
2136.0
2104.0
2072.0
2039.0
2007.0
1975.0
1959.0
1927.0
1895.0
1847.0
1815.0
1783.0
1734.0
1686.0
1638.0
1590.0
1526.0
1477.0
1413.0
1349.0
1301.0
1253.0
1204.0
1172.0
1140.0
1124.0
1092.0
1076.0
1044.0
1028.0
996.0
980.0
947.0
915.0
899.0
867.0
851.0
835.0
819.0
787.0
771.0
755.0
739.0
723.0
707.0
707.0
707.0
707.0
707.0
739.0
755.0
787.0
819.0
867.0
931.0
1012.0
1092.0
1172.0
1269.0
1365.0
1445.0
1526.0
1606.0
1702.0
1783.0
1863.0
1927.0
2007.0
2072.0
2136.0
2184.0
2232.0
2280.0
2296.0
2329.0
2345.0
2345.0
2345.0
2329.0
2312.0
2296.0
2280.0
2280.0
2264.0
2248.0
2232.0
2216.0
2200.0
2184.0
2152.0
2152.0
2152.0
2152.0
2120.0
2104.0
2088.0
2056.0
2039.0
2023.0
2007.0
1975.0
1959.0
1943.0
1911.0
1895.0
1879.0
1863.0
1831.0
1815.0
1799.0
1783.0
1766.0
1750.0
1734.0
1702.0
1686.0
1670.0
1654.0
1638.0
1606.0
1590.0
1574.0
1558.0
1542.0
1526.0
1526.0
1510.0
1493.0
1477.0
1461.0
1445.0
1429.0
1413.0
1413.0
1397.0
1381.0
1381.0
1381.0
1365.0
1349.0
1349.0
1333.0
1317.0
1301.0
1301.0
1285.0
1285.0
1285.0
1285.0
1301.0
1317.0
1349.0
1397.0
1461.0
1526.0
1590.0
1670.0
1750.0
1831.0
1927.0
1991.0
2056.0
2136.0
2200.0
2280.0
2345.0
2409.0
2473.0
2537.0
2585.0
2634.0
2666.0
2698.0
2714.0
2730.0
2730.0
2730.0
2730.0
2714.0
2698.0
2682.0
2666.0
2634.0
2618.0
2585.0
2569.0
2537.0
2521.0
2489.0
2473.0
2441.0
2425.0
2393.0
2361.0
2329.0
2312.0
2280.0
2248.0
2232.0
2200.0
2184.0
2152.0
2136.0
2104.0
2088.0
2056.0
2039.0
2023.0
1991.0
1959.0
1943.0
1927.0
1911.0
1895.0
1863.0
1847.0
1831.0
1815.0
1799.0
1783.0
1766.0
1750.0
1734.0
1718.0
1718.0
1702.0
1686.0
1670.0
1654.0
1654.0
1638.0
1638.0
1638.0
1638.0
1654.0
1686.0
1702.0
1750.0
1783.0
1847.0
1895.0
1959.0
2023.0
2088.0
2152.0
2216.0
2264.0
2312.0
2361.0
2393.0
2441.0
2473.0
2505.0
2521.0
2553.0
2553.0
2569.0
2553.0
2553.0
2537.0
2505.0
2489.0
2473.0
2441.0
2409.0
2377.0
2361.0
2329.0
2296.0
2280.0
2248.0
2216.0
2200.0
2168.0
2152.0
2120.0
2088.0
2072.0
2039.0
2023.0
1991.0
1975.0
1959.0
1927.0
1911.0
1895.0
1879.0
1863.0
1831.0
1815.0
1783.0
1766.0
1750.0
1718.0
1702.0
1686.0
1670.0
1654.0
1638.0
1638.0
1622.0
1606.0
1606.0
1590.0
1590.0
1574.0
1574.0
1558.0
1558.0
1558.0
1574.0
1590.0
1606.0
1638.0
1686.0
1734.0
1799.0
1847.0
1911.0
1975.0
2039.0
2104.0
2152.0
2200.0
2248.0
2296.0
2345.0
2377.0
2425.0
2441.0
2473.0
2473.0
2489.0
2489.0
2473.0
2473.0
2457.0
2425.0
2409.0
2377.0
2361.0
2345.0
2312.0
2296.0
2264.0
2248.0
2248.0
2280.0
2280.0
2264.0
2232.0
2216.0
2184.0
2152.0
2120.0
2104.0
2072.0
2039.0
2007.0
1991.0
1959.0
1943.0
1911.0
1879.0
1863.0
1831.0
1815.0
1783.0
1766.0
1734.0
1718.0
1702.0
1686.0
1670.0
1654.0
1638.0
1622.0
1606.0
1590.0
1574.0
1558.0
1542.0
1526.0
1510.0
1510.0
1493.0
1493.0
1477.0
1477.0
1461.0
1445.0
1445.0
1429.0
1429.0
1429.0
1413.0
1413.0
1397.0
1397.0
1397.0
1381.0
1381.0
1397.0
1413.0
1445.0
1493.0
1574.0
1654.0
1734.0
1831.0
1911.0
2023.0
2120.0
2232.0
2329.0
2441.0
2537.0
2634.0
2714.0
2810.0
2891.0
2955.0
3003.0
3051.0
3099.0
3131.0
3148.0
3164.0
3180.0
3164.0
3148.0
3131.0
3083.0
3051.0
3019.0
2971.0
2923.0
2891.0
2842.0
2794.0
2762.0
2714.0
2666.0
2634.0
2585.0
2537.0
2489.0
2457.0
2425.0
2377.0
2345.0
2296.0
2264.0
2232.0
2184.0
2152.0
2120.0
2088.0
2056.0
2023.0
1991.0
1975.0
1943.0
1911.0
1879.0
1847.0
1815.0
1799.0
1766.0
1750.0
1718.0
1702.0
1686.0
1670.0
1654.0
1638.0
1622.0
1590.0
1574.0
1558.0
1542.0
1526.0
1510.0
1493.0
1477.0
1461.0
1445.0
1445.0
1429.0
1413.0
1397.0
1381.0
1365.0
1365.0
1349.0
1349.0
1365.0
1381.0
1397.0
1445.0
1493.0
1558.0
1638.0
1734.0
1815.0
1927.0
2023.0
2104.0
2200.0
2264.0
2329.0
2409.0
2473.0
2537.0
2585.0
2634.0
2682.0
2714.0
2730.0
2746.0
2762.0
2746.0
2730.0
2714.0
2698.0
2666.0
2634.0
2602.0
2569.0
2537.0
2505.0
2473.0
2441.0
2425.0
2393.0
2361.0
2345.0
2312.0
2280.0
2264.0
2232.0
2200.0
2168.0
2152.0
2136.0
2104.0
2088.0
2072.0
2056.0
2023.0
2007.0
1991.0
1975.0
1943.0
1927.0
1911.0
1895.0
1879.0
1863.0
1847.0
1831.0
1815.0
1815.0
1815.0
1815.0
1831.0
1847.0
1879.0
1927.0
1975.0
2039.0
2088.0
2136.0
2200.0
2248.0
2296.0
2361.0
2409.0
2441.0
2473.0
2505.0
2521.0
2537.0
2537.0
2537.0
2521.0
2505.0
2473.0
2457.0
2425.0
2393.0
2361.0
2345.0
2312.0
2296.0
2264.0
2248.0
2232.0
2200.0
2184.0
2152.0
2120.0
2023.0
1895.0
1815.0
1750.0
1686.0
1638.0
1590.0
1542.0
1510.0
1477.0
1445.0
1413.0
1381.0
1349.0
1317.0
1301.0
1269.0
1237.0
1220.0
1188.0
1172.0
1156.0
1124.0
1092.0
1076.0
1044.0
1028.0
1012.0
996.0
980.0
964.0
964.0
947.0
947.0
947.0
947.0
947.0
947.0
931.0
931.0
931.0
931.0
931.0
915.0
915.0
915.0
915.0
899.0
899.0
899.0
883.0
867.0
867.0
867.0
851.0
851.0
835.0
835.0
835.0
835.0
835.0
819.0
819.0
819.0
803.0
803.0
803.0
787.0
787.0
787.0
787.0
787.0
787.0
803.0
835.0
899.0
980.0
1076.0
1204.0
1349.0
1493.0
1654.0
1799.0
1927.0
2056.0
2216.0
2361.0
2505.0
2650.0
2778.0
2907.0
3035.0
3148.0
3260.0
3324.0
3388.0
3453.0
3517.0
3565.0
3597.0
3629.0
3629.0
3629.0
3613.0
3597.0
3565.0
3533.0
3501.0
3469.0
3437.0
3404.0
3372.0
3340.0
3292.0
3260.0
3228.0
3180.0
3148.0
3099.0
3051.0
3019.0
2987.0
2939.0
2907.0
2875.0
2826.0
2794.0
2762.0
2714.0
2682.0
2650.0
2602.0
2569.0
2537.0
2505.0
2473.0
2441.0
2393.0
2345.0
2312.0
2264.0
2200.0
2152.0
2104.0
2056.0
2007.0
1959.0
1911.0
1863.0
1815.0
1766.0
1718.0
1670.0
1622.0
1590.0
1542.0
1510.0
1493.0
1461.0
1429.0
1413.0
1397.0
1365.0
1349.0
1317.0
1301.0
1269.0
1237.0
1220.0
1204.0
1188.0
1172.0
1140.0
1124.0
1108.0
1092.0
1092.0
1108.0
1140.0
1188.0
1253.0
1317.0
1397.0
1493.0
1590.0
1702.0
1815.0
1911.0
2023.0
2120.0
2216.0
2296.0
2377.0
2457.0
2505.0
2553.0
2602.0
2650.0
2682.0
2714.0
2730.0
2730.0
2730.0
2730.0
2698.0
2666.0
2634.0
2602.0
2569.0
2537.0
2505.0
2473.0
2457.0
2425.0
2393.0
2361.0
2312.0
2280.0
2248.0
2216.0
2184.0
2136.0
2104.0
2072.0
2039.0
2007.0
1975.0
1943.0
1911.0
1879.0
1863.0
1831.0
1815.0
1783.0
1766.0
1734.0
1702.0
1686.0
1654.0
1622.0
1606.0
1574.0
1542.0
1526.0
1510.0
1493.0
1477.0
1445.0
1429.0
1413.0
1397.0
1381.0
1365.0
1349.0
1333.0
1317.0
1333.0
1365.0
1381.0
1381.0
1365.0
1365.0
1349.0
1349.0
1333.0
1317.0
1317.0
1317.0
1301.0
1301.0
1301.0
1301.0
1301.0
1301.0
1301.0
1301.0
1301.0
1301.0
1285.0
1285.0
1269.0
1269.0
1269.0
1269.0
1253.0
1253.0
1253.0
1237.0
1237.0
1237.0
1237.0
1237.0
1253.0
1269.0
1285.0
1301.0
1317.0
1349.0
1365.0
1381.0
1397.0
1397.0
1413.0
1413.0
1429.0
1445.0
1461.0
1477.0
1510.0
1558.0
1622.0
1702.0
1783.0
1879.0
1975.0
2072.0
2168.0
2264.0
2361.0
2441.0
2521.0
2602.0
2682.0
2762.0
2842.0
2923.0
2987.0
3051.0
3115.0
3164.0
3212.0
3244.0
3260.0
3276.0
3292.0
3308.0
3308.0
3292.0
3276.0
3260.0
3228.0
3196.0
3164.0
3131.0
3083.0
3051.0
3019.0
2971.0
2939.0
2907.0
2875.0
2826.0
2794.0
2762.0
2730.0
2682.0
2650.0
2618.0
2585.0
2553.0
2521.0
2489.0
2457.0
2425.0
2393.0
2377.0
2345.0
2312.0
2280.0
2264.0
2232.0
2216.0
2184.0
2168.0
2136.0
2120.0
2088.0
2072.0
2039.0
2023.0
1991.0
1959.0
1943.0
1911.0
1879.0
1847.0
1815.0
1783.0
1750.0
1718.0
1686.0
1670.0
1638.0
1622.0
1590.0
1574.0
1558.0
1526.0
1510.0
1477.0
1461.0
1445.0
1413.0
1397.0
1381.0
1365.0
1349.0
1349.0
1333.0
1317.0
1317.0
1317.0
1317.0
1349.0
1381.0
1429.0
1477.0
1542.0
1606.0
1670.0
1734.0
1815.0
1895.0
1959.0
2023.0
2104.0
2168.0
2216.0
2280.0
2312.0
2361.0
2393.0
2409.0
2425.0
2441.0
2441.0
2441.0
2425.0
2409.0
2393.0
2361.0
2345.0
2312.0
2280.0
2264.0
2232.0
2200.0
2184.0
2152.0
2120.0
2104.0
2072.0
2056.0
2023.0
2007.0
1975.0
1959.0
1943.0
1927.0
1911.0
1879.0
1863.0
1847.0
1847.0
1831.0
1831.0
1815.0
1815.0
1799.0
1799.0
1783.0
1783.0
1799.0
1799.0
1831.0
1847.0
1895.0
1927.0
1975.0
2007.0
2056.0
2088.0
2120.0
2152.0
2184.0
2200.0
2216.0
2232.0
2232.0
2216.0
2216.0
2200.0
2184.0
2168.0
2136.0
2120.0
2104.0
2072.0
2056.0
2023.0
2007.0
1991.0
1959.0
1943.0
1927.0
1895.0
1879.0
1863.0
1863.0
1847.0
1831.0
1815.0
1750.0
1670.0
1622.0
1590.0
1574.0
1558.0
1542.0
1542.0
1526.0
1526.0
1510.0
1493.0
1477.0
1461.0
1445.0
1445.0
1429.0
1413.0
1397.0
1397.0
1381.0
1381.0
1365.0
1365.0
1365.0
1349.0
1349.0
1333.0
1333.0
1333.0
1317.0
1317.0
1317.0
1301.0
1301.0
1285.0
1269.0
1253.0
1237.0
1220.0
1204.0
1188.0
1172.0
1156.0
1140.0
1124.0
1124.0
1108.0
1108.0
1092.0
1092.0
1108.0
1124.0
1156.0
1204.0
1253.0
1301.0
1365.0
1429.0
1493.0
1574.0
1654.0
1734.0
1815.0
1895.0
1975.0
2056.0
2120.0
2200.0
2248.0
2296.0
2361.0
2409.0
2457.0
2489.0
2521.0
2537.0
2537.0
2537.0
2521.0
2489.0
2457.0
2425.0
2393.0
2361.0
2312.0
2280.0
2232.0
2200.0
2152.0
2120.0
2072.0
2039.0
2007.0
1959.0
1927.0
1879.0
1831.0
1783.0
1734.0
1686.0
1638.0
1590.0
1558.0
1510.0
1461.0
1429.0
1397.0
1365.0
1333.0
1285.0
1253.0
1220.0
1172.0
1140.0
1108.0
1076.0
1060.0
1028.0
1012.0
996.0
964.0
931.0
915.0
883.0
867.0
835.0
819.0
803.0
787.0
771.0
755.0
755.0
755.0
771.0
787.0
819.0
867.0
915.0
980.0
1044.0
1108.0
1172.0
1237.0
1285.0
1349.0
1397.0
1445.0
1510.0
1558.0
1590.0
1638.0
1670.0
1702.0
1718.0
1734.0
1750.0
1750.0
1750.0
1734.0
1734.0
1718.0
1718.0
1718.0
1718.0
1734.0
1734.0
1750.0
1750.0
1734.0
1734.0
1718.0
1686.0
1654.0
1622.0
1574.0
1526.0
1477.0
1445.0
1413.0
1397.0
1397.0
1397.0
1413.0
1429.0
1445.0
1461.0
1477.0
1477.0
1477.0
1461.0
1461.0
1445.0
1429.0
1413.0
1397.0
1381.0
1381.0
1365.0
1349.0
1333.0
1317.0
1301.0
1285.0
1253.0
1237.0
1220.0
1220.0
1220.0
1220.0
1237.0
1269.0
1301.0
1365.0
1445.0
1542.0
1654.0
1766.0
1863.0
1959.0
2072.0
2184.0
2296.0
2409.0
2505.0
2585.0
2666.0
2730.0
2778.0
2826.0
2858.0
2891.0
2891.0
2891.0
2891.0
2891.0
2875.0
2858.0
2826.0
2778.0
2746.0
2698.0
2650.0
2602.0
2569.0
2521.0
2473.0
2425.0
2393.0
2361.0
2329.0
2296.0
2280.0
2264.0
2248.0
2232.0
2264.0
2329.0
2345.0
2345.0
2329.0
2329.0
2312.0
2296.0
2280.0
2264.0
2248.0
2232.0
2216.0
2200.0
2184.0
2168.0
2136.0
2088.0
2039.0
1975.0
1911.0
1847.0
1783.0
1718.0
1654.0
1590.0
1542.0
1477.0
1429.0
1397.0
1381.0
1397.0
1429.0
1493.0
1558.0
1622.0
1702.0
1750.0
1799.0
1831.0
1831.0
1831.0
1815.0
1799.0
1766.0
1734.0
1718.0
1718.0
1718.0
1750.0
1783.0
1831.0
1895.0
1975.0
2056.0
2136.0
2232.0
2312.0
2377.0
2457.0
2521.0
2585.0
2634.0
2682.0
2730.0
2778.0
2810.0
2842.0
2875.0
2891.0
2891.0
2891.0
2891.0
2875.0
2858.0
2842.0
2810.0
2778.0
2746.0
2714.0
2682.0
2634.0
2602.0
2553.0
2505.0
2457.0
2409.0
2361.0
2329.0
2280.0
2248.0
2216.0
2200.0
2184.0
2200.0
2216.0
2232.0
2248.0
2264.0
2264.0
2264.0
2248.0
2216.0
2200.0
2168.0
2136.0
2104.0
2056.0
2007.0
1943.0
1895.0
1831.0
1783.0
1750.0
1718.0
1686.0
1686.0
1702.0
1718.0
1766.0
1799.0
1847.0
1895.0
1927.0
1959.0
1991.0
2007.0
2023.0
2023.0
2023.0
2023.0
2023.0
2023.0
2039.0
2072.0
2104.0
2152.0
2200.0
2232.0
2280.0
2329.0
2377.0
2409.0
2441.0
2457.0
2457.0
2473.0
2473.0
2457.0
2457.0
2457.0
2441.0
2441.0
2425.0
2425.0
2409.0
2409.0
2409.0
2409.0
2393.0
2409.0
2409.0
2409.0
2409.0
2409.0
2409.0
2409.0
2409.0
2409.0
2409.0
2409.0
2409.0
2425.0
2425.0
2425.0
2441.0
2441.0
2457.0
2473.0
2489.0
2505.0
2521.0
2521.0
2537.0
2537.0
2537.0
2537.0
2521.0
2505.0
2489.0
2473.0
2441.0
2425.0
2393.0
2361.0
2329.0
2296.0
2264.0
2232.0
2216.0
2184.0
2168.0
2152.0
2152.0
2136.0
2136.0
2136.0
2120.0
2104.0
2088.0
2088.0
2104.0
2152.0
2216.0
2329.0
2457.0
2602.0
2746.0
2858.0
2955.0
3019.0
3067.0
3115.0
3164.0
3212.0
3244.0
3308.0
3388.0
3453.0
3533.0
3613.0
3677.0
3742.0
3790.0
3822.0
3838.0
3838.0
3822.0
3790.0
3742.0
3677.0
3613.0
3549.0
3469.0
3404.0
3356.0
3292.0
3244.0
3180.0
3131.0
3083.0
3051.0
3003.0
2955.0
2907.0
2875.0
2682.0
2409.0
2248.0
2152.0
2072.0
2007.0
1959.0
1911.0
1847.0
1799.0
1734.0
1686.0
1638.0
1590.0
1542.0
1493.0
1461.0
1413.0
1381.0
1349.0
1301.0
1253.0
1204.0
1172.0
1124.0
1076.0
1028.0
980.0
947.0
915.0
883.0
867.0
835.0
819.0
803.0
787.0
771.0
771.0
771.0
771.0
771.0
787.0
787.0
803.0
803.0
819.0
835.0
835.0
851.0
851.0
867.0
867.0
883.0
883.0
899.0
899.0
915.0
915.0
931.0
947.0
947.0
964.0
964.0
980.0
980.0
996.0
996.0
1012.0
1028.0
1060.0
1076.0
1124.0
1156.0
1204.0
1269.0
1317.0
1365.0
1429.0
1493.0
1542.0
1590.0
1638.0
1686.0
1734.0
1783.0
1831.0
1863.0
1911.0
1943.0
1959.0
1991.0
2007.0
2023.0
2039.0
2039.0
2039.0
2023.0
2023.0
2007.0
1991.0
1975.0
1959.0
1943.0
1911.0
1895.0
1879.0
1863.0
1847.0
1831.0
1815.0
1815.0
1799.0
1783.0
1783.0
1766.0
1750.0
1734.0
1718.0
1686.0
1670.0
1654.0
1638.0
1606.0
1590.0
1574.0
1574.0
1574.0
1574.0
1574.0
1574.0
1590.0
1590.0
1590.0
1590.0
1574.0
1574.0
1558.0
1542.0
1510.0
1493.0
1461.0
1445.0
1429.0
1397.0
1397.0
1381.0
1365.0
1349.0
1349.0
1333.0
1333.0
1333.0
1333.0
1333.0
1349.0
1365.0
1365.0
1397.0
1413.0
1445.0
1477.0
1510.0
1542.0
1574.0
1622.0
1654.0
1686.0
1702.0
1734.0
1750.0
1766.0
1799.0
1815.0
1831.0
1847.0
1847.0
1863.0
1863.0
1863.0
1847.0
1831.0
1815.0
1799.0
1783.0
1766.0
1734.0
1718.0
1702.0
1670.0
1654.0
1622.0
1606.0
1590.0
1574.0
1558.0
1542.0
1542.0
1526.0
1510.0
1510.0
1493.0
1493.0
1477.0
1477.0
1477.0
1477.0
1477.0
1477.0
1477.0
1477.0
1477.0
1477.0
1461.0
1461.0
1461.0
1445.0
1429.0
1397.0
1381.0
1365.0
1333.0
1301.0
1269.0
1253.0
1237.0
1220.0
1204.0
1204.0
1204.0
1204.0
1204.0
1204.0
1220.0
1237.0
1253.0
1285.0
1317.0
1365.0
1397.0
1445.0
1477.0
1526.0
1574.0
1606.0
1638.0
1670.0
1702.0
1734.0
1766.0
1783.0
1799.0
1815.0
1815.0
1815.0
1815.0
1815.0
1991.0
2264.0
2377.0
2425.0
2441.0
2441.0
2425.0
2393.0
2377.0
2345.0
2312.0
2296.0
2264.0
2232.0
2200.0
2184.0
2152.0
2120.0
2104.0
2088.0
2056.0
2039.0
2007.0
1991.0
1959.0
1943.0
1911.0
1895.0
1879.0
1847.0
1831.0
1815.0
1799.0
1799.0
1783.0
1766.0
1750.0
1750.0
1734.0
1718.0
1718.0
1702.0
1702.0
1702.0
1702.0
1702.0
1702.0
1686.0
1686.0
1670.0
1670.0
1670.0
1670.0
1686.0
1718.0
1750.0
1799.0
1847.0
1911.0
1959.0
2023.0
2072.0
2120.0
2152.0
2200.0
2232.0
2264.0
2296.0
2312.0
2329.0
2345.0
2361.0
2361.0
2361.0
2345.0
2329.0
2312.0
2296.0
2264.0
2232.0
2200.0
2168.0
2152.0
2120.0
2104.0
2088.0
2072.0
2072.0
2056.0
2039.0
2023.0
2007.0
1991.0
1975.0
1959.0
1943.0
1911.0
1895.0
1879.0
1863.0
1847.0
1831.0
1815.0
1799.0
1783.0
1766.0
1750.0
1750.0
1734.0
1718.0
1718.0
1702.0
1702.0
1686.0
1686.0
1670.0
1670.0
1654.0
1654.0
1638.0
1638.0
1622.0
1622.0
1606.0
1606.0
1606.0
1590.0
1590.0
1590.0
1574.0
1558.0
1558.0
1542.0
1542.0
1542.0
1542.0
1558.0
1574.0
1606.0
1638.0
1702.0
1766.0
1831.0
1895.0
1975.0
2039.0
2104.0
2168.0
2216.0
2264.0
2296.0
2345.0
2377.0
2425.0
2457.0
2489.0
2521.0
2553.0
2569.0
2585.0
2602.0
2602.0
2585.0
2585.0
2553.0
2537.0
2521.0
2505.0
2473.0
2457.0
2425.0
2409.0
2377.0
2361.0
2329.0
2312.0
2296.0
2264.0
2248.0
2216.0
2200.0
2184.0
2152.0
2136.0
2120.0
2104.0
2088.0
2072.0
2072.0
2056.0
2039.0
2023.0
2007.0
1991.0
1975.0
1959.0
1927.0
1911.0
1879.0
1863.0
1847.0
1815.0
1799.0
1783.0
1766.0
1750.0
1734.0
1718.0
1718.0
1702.0
1686.0
1686.0
1670.0
1670.0
1654.0
1638.0
1638.0
1622.0
1622.0
1622.0
1622.0
1654.0
1670.0
1702.0
1734.0
1783.0
1831.0
1879.0
1927.0
1975.0
2023.0
2072.0
2120.0
2152.0
2184.0
2200.0
2216.0
2232.0
2232.0
2232.0
2232.0
2216.0
2216.0
2184.0
2168.0
2152.0
2120.0
2104.0
2088.0
2072.0
2056.0
2056.0
2039.0
2039.0
2023.0
2007.0
1991.0
1943.0
1911.0
1895.0
1879.0
1863.0
1847.0
1831.0
1815.0
1799.0
1783.0
1766.0
1750.0
1718.0
1686.0
1670.0
1638.0
1606.0
1574.0
1542.0
1526.0
1493.0
1461.0
1429.0
1413.0
1381.0
1365.0
1349.0
1333.0
1317.0
1301.0
1285.0
1269.0
1253.0
1237.0
1220.0
1204.0
1188.0
1156.0
1140.0
1124.0
1092.0
1076.0
1060.0
1044.0
1012.0
996.0
980.0
964.0
964.0
947.0
964.0
980.0
996.0
1044.0
1108.0
1172.0
1269.0
1381.0
1493.0
1622.0
1766.0
1895.0
2023.0
2136.0
2264.0
2361.0
2457.0
2521.0
2602.0
2682.0
2746.0
2810.0
2858.0
2891.0
2923.0
2939.0
2939.0
2907.0
2891.0
2842.0
2810.0
2762.0
2714.0
2666.0
2618.0
2585.0
2537.0
2489.0
2457.0
2425.0
2377.0
2345.0
2312.0
2280.0
2232.0
2200.0
2152.0
2120.0
2072.0
2039.0
2007.0
1975.0
1959.0
1927.0
1895.0
1863.0
1831.0
1799.0
1766.0
1734.0
1702.0
1670.0
1638.0
1622.0
1606.0
1590.0
1574.0
1558.0
1542.0
1526.0
1510.0
1493.0
1477.0
1461.0
1461.0
1445.0
1429.0
1413.0
1397.0
1381.0
1381.0
1365.0
1365.0
1349.0
1317.0
1301.0
1285.0
1253.0
1220.0
1188.0
1172.0
1156.0
1140.0
1124.0
1092.0
1076.0
1060.0
1060.0
1044.0
1044.0
1060.0
1092.0
1124.0
1188.0
1253.0
1333.0
1413.0
1526.0
1622.0
1734.0
1847.0
1959.0
2072.0
2168.0
2280.0
2377.0
2457.0
2521.0
2585.0
2634.0
2698.0
2730.0
2746.0
2762.0
2762.0
2746.0
2730.0
2682.0
2634.0
2585.0
2537.0
2489.0
2425.0
2361.0
2296.0
2232.0
2168.0
2120.0
2072.0
2039.0
1991.0
1959.0
1927.0
1895.0
1847.0
1799.0
1750.0
1718.0
1670.0
1638.0
1606.0
1590.0
1574.0
1558.0
1542.0
1510.0
1493.0
1461.0
1429.0
1397.0
1365.0
1333.0
1301.0
1285.0
1269.0
1253.0
1253.0
1269.0
1285.0
1317.0
1349.0
1381.0
1429.0
1461.0
1493.0
1526.0
1542.0
1558.0
1558.0
1558.0
1542.0
1526.0
1510.0
1493.0
1461.0
1445.0
1429.0
1397.0
1381.0
1365.0
1349.0
1349.0
1333.0
1333.0
1317.0
1301.0
1301.0
1285.0
1269.0
1253.0
1237.0
1220.0
1220.0
1204.0
1204.0
1220.0
1237.0
1253.0
1253.0
1253.0
1237.0
1237.0
1220.0
1204.0
1188.0
1172.0
1156.0
1140.0
1124.0
1124.0
1108.0
1092.0
1092.0
1076.0
1076.0
1060.0
1060.0
1044.0
1044.0
1060.0
1060.0
1060.0
1060.0
1060.0
1044.0
1044.0
1028.0
1012.0
996.0
996.0
996.0
996.0
996.0
1012.0
1012.0
1012.0
1012.0
1028.0
1044.0
1092.0
1156.0
1253.0
1381.0
1510.0
1638.0
1783.0
1943.0
2088.0
2248.0
2393.0
2537.0
2682.0
2810.0
2923.0
3051.0
3148.0
3212.0
3276.0
3324.0
3356.0
3388.0
3421.0
3437.0
3469.0
3501.0
3533.0
3581.0
3613.0
3645.0
3661.0
3694.0
3710.0
3726.0
3726.0
3710.0
3677.0
3613.0
3501.0
3372.0
3196.0
3003.0
2810.0
2634.0
2425.0
2200.0
1959.0
1718.0
1461.0
1204.0
931.0
658.0
401.0
209.0
96.0
48.0
16.0
0.0
0.0
0.0
0.0
0.0
0.0
0.0
0.0
0.0
0.0
0.0
0.0
0.0
0.0
0.0
0.0
0.0
0.0
0.0
0.0
0.0
0.0
0.0
0.0
0.0
0.0
32.0
161.0
305.0
482.0
642.0
787.0
931.0
1076.0
1220.0
1349.0
1477.0
1606.0
1766.0
1927.0
2072.0
2232.0
2377.0
2505.0
2634.0
2746.0
2858.0
2923.0
2987.0
3067.0
3115.0
3180.0
3212.0
3244.0
3260.0
3260.0
3244.0
3196.0
3148.0
3099.0
3035.0
2971.0
2891.0
2810.0
2730.0
2634.0
2553.0
2489.0
2425.0
2393.0
2361.0
2345.0
2329.0
2312.0
2312.0
2296.0
2280.0
2248.0
2216.0
2184.0
2152.0
2120.0
2088.0
2039.0
2007.0
1975.0
1927.0
1879.0
1831.0
1783.0
1734.0
1702.0
1670.0
1654.0
1638.0
1622.0
1590.0
1574.0
1558.0
1542.0
1510.0
1477.0
1445.0
1413.0
1381.0
1365.0
1349.0
1349.0
1349.0
1349.0
1349.0
1349.0
1349.0
1365.0
1365.0
1381.0
1413.0
1445.0
1510.0
1606.0
1702.0
1831.0
1927.0
2039.0
2152.0
2280.0
2409.0
2521.0
2634.0
2730.0
2810.0
2891.0
2939.0
2987.0
3019.0
3035.0
3035.0
3051.0
3035.0
3035.0
3003.0
2987.0
2955.0
2923.0
2875.0
2826.0
2778.0
2730.0
2698.0
2634.0
2585.0
2537.0
2473.0
2425.0
2377.0
2377.0
2425.0
2441.0
2441.0
2425.0
2409.0
2409.0
2393.0
2377.0
2377.0
2361.0
2361.0
2345.0
2345.0
2329.0
2329.0
2312.0
2312.0
2296.0
2296.0
2280.0
2280.0
2264.0
2248.0
2248.0
2232.0
2232.0
2216.0
2216.0
2216.0
2200.0
2200.0
2200.0
2200.0
2216.0
2216.0
2232.0
2248.0
2264.0
2280.0
2296.0
2329.0
2345.0
2361.0
2393.0
2425.0
2457.0
2489.0
2521.0
2553.0
2602.0
2634.0
2666.0
2698.0
2714.0
2730.0
2746.0
2762.0
2778.0
2778.0
2778.0
2778.0
2762.0
2746.0
2730.0
2698.0
2682.0
2666.0
2634.0
2618.0
2602.0
2569.0
2553.0
2537.0
2505.0
2489.0
2457.0
2441.0
2409.0
2393.0
2377.0
2377.0
2361.0
2361.0
2345.0
2345.0
2345.0
2345.0
2361.0
2361.0
2361.0
2361.0
2345.0
2345.0
2329.0
2312.0
2296.0
2264.0
2232.0
2200.0
2152.0
2120.0
2088.0
2072.0
2056.0
2039.0
2039.0
2056.0
2072.0
2104.0
2136.0
2184.0
2232.0
2280.0
2312.0
2345.0
2361.0
2361.0
2361.0
2329.0
2296.0
2248.0
2200.0
2136.0
2088.0
2023.0
1975.0
1943.0
1911.0
1895.0
1879.0
1863.0
1831.0
1799.0
1750.0
1686.0
1622.0
1542.0
1461.0
1381.0
1301.0
1220.0
1172.0
1108.0
1060.0
996.0
947.0
899.0
851.0
819.0
787.0
771.0
755.0
771.0
787.0
819.0
851.0
899.0
964.0
1028.0
1108.0
1172.0
1220.0
1269.0
1301.0
1301.0
1317.0
1317.0
1301.0
1285.0
1269.0
1253.0
1237.0
1220.0
1204.0
1188.0
1172.0
1156.0
1140.0
1124.0
1124.0
1124.0
1108.0
1108.0
1108.0
1124.0
1124.0
1156.0
1172.0
1204.0
1253.0
1301.0
1333.0
1397.0
1445.0
1493.0
1542.0
1590.0
1622.0
1670.0
1702.0
1718.0
1750.0
1766.0
1783.0
1799.0
1815.0
1831.0
1847.0
1863.0
1895.0
1927.0
1975.0
2023.0
2072.0
2136.0
2184.0
2248.0
2312.0
2377.0
2441.0
2521.0
2585.0
2666.0
2746.0
2810.0
2891.0
2955.0
3035.0
3099.0
3148.0
3212.0
3292.0
3356.0
3421.0
3469.0
3533.0
3565.0
3597.0
3613.0
3629.0
3629.0
3613.0
3597.0
3581.0
3549.0
3517.0
3485.0
3453.0
3421.0
3388.0
3356.0
3324.0
3292.0
3276.0
3244.0
3099.0
2923.0
2810.0
2746.0
2698.0
2682.0
2650.0
2634.0
2618.0
2618.0
2602.0
2602.0
2602.0
2602.0
2618.0
2618.0
2634.0
2650.0
2650.0
2650.0
2650.0
2634.0
2618.0
2602.0
2569.0
2537.0
2505.0
2473.0
2457.0
2425.0
2409.0
2377.0
2361.0
2345.0
2329.0
2296.0
2280.0
2248.0
2216.0
2184.0
2152.0
2104.0
2039.0
1975.0
1911.0
1847.0
1766.0
1686.0
1622.0
1558.0
1493.0
1429.0
1365.0
1317.0
1269.0
1220.0
1172.0
1140.0
1124.0
1108.0
1108.0
1108.0
1108.0
1108.0
1108.0
1124.0
1140.0
1156.0
1156.0
1172.0
1188.0
1204.0
1220.0
1237.0
1253.0
1285.0
1301.0
1317.0
1349.0
1381.0
1413.0
1445.0
1477.0
1526.0
1558.0
1606.0
1638.0
1686.0
1718.0
1766.0
1815.0
1863.0
1911.0
1959.0
2007.0
2039.0
2088.0
2120.0
2152.0
2184.0
2200.0
2232.0
2264.0
2280.0
2312.0
2345.0
2361.0
2393.0
2409.0
2441.0
2457.0
2457.0
2473.0
2489.0
2505.0
2521.0
2537.0
2553.0
2569.0
2585.0
2602.0
2602.0
2602.0
2602.0
2602.0
2602.0
2602.0
2602.0
2602.0
2602.0
2585.0
2585.0
2569.0
2553.0
2537.0
2537.0
2521.0
2505.0
2489.0
2473.0
2457.0
2457.0
2441.0
2425.0
2409.0
2393.0
2377.0
2361.0
2345.0
2329.0
2312.0
2296.0
2264.0
2248.0
2232.0
2216.0
2200.0
2184.0
2152.0
2152.0
2136.0
2120.0
2120.0
2120.0
2120.0
2136.0
2136.0
2152.0
2184.0
2200.0
2216.0
2248.0
2264.0
2280.0
2312.0
2329.0
2345.0
2361.0
2377.0
2377.0
2393.0
2393.0
2393.0
2377.0
2361.0
2361.0
2345.0
2329.0
2312.0
2296.0
2296.0
2280.0
2264.0
2264.0
2264.0
2264.0
2248.0
2248.0
2248.0
2248.0
2248.0
2248.0
2264.0
2264.0
2264.0
2264.0
2264.0
2264.0
2264.0
2248.0
2248.0
2248.0
2248.0
2232.0
2232.0
2232.0
2232.0
2232.0
2232.0
2216.0
2216.0
2216.0
2216.0
2200.0
2200.0
2200.0
2184.0
2184.0
2168.0
2168.0
2152.0
2136.0
2136.0
2120.0
2104.0
2104.0
2088.0
2088.0
2072.0
2056.0
2039.0
2039.0
2023.0
2007.0
2007.0
1991.0
1991.0
1991.0
1991.0
1991.0
1991.0
2007.0
2039.0
2072.0
2104.0
2136.0
2232.0
2345.0
2425.0
2489.0
2537.0
2585.0
2618.0
2650.0
2682.0
2714.0
2730.0
2730.0
2746.0
2746.0
2730.0
2730.0
2714.0
2698.0
2682.0
2666.0
2650.0
2634.0
2618.0
2618.0
2602.0
2602.0
2602.0
2602.0
2602.0
2602.0
2602.0
2602.0
2585.0
2569.0
2569.0
2537.0
2521.0
2505.0
2473.0
2457.0
2441.0
2409.0
2393.0
2377.0
2377.0
2361.0
2345.0
2329.0
2312.0
2296.0
2296.0
2280.0
2280.0
2280.0
2280.0
2280.0
2264.0
2264.0
2264.0
2248.0
2248.0
2232.0
2232.0
2216.0
2200.0
2200.0
2184.0
2184.0
2184.0
2168.0
2168.0
2168.0
2152.0
2152.0
2136.0
2136.0
2120.0
2120.0
2120.0
2120.0
2104.0
2104.0
2104.0
2104.0
2088.0
2088.0
2088.0
2072.0
2072.0
2056.0
2056.0
2039.0
2039.0
2039.0
2023.0
2023.0
2007.0
2007.0
2007.0
1991.0
1991.0
1991.0
1975.0
1975.0
1959.0
1959.0
1943.0
1943.0
1927.0
1927.0
1911.0
1911.0
1927.0
1943.0
1959.0
1991.0
2023.0
2056.0
2104.0
2152.0
2200.0
2264.0
2312.0
2377.0
2441.0
2489.0
2553.0
2602.0
2650.0
2682.0
2730.0
2762.0
2794.0
2826.0
2858.0
2891.0
2907.0
2923.0
2923.0
2923.0
2923.0
2907.0
2907.0
2891.0
2858.0
2842.0
2826.0
2794.0
2778.0
2762.0
2746.0
2730.0
2714.0
2698.0
2682.0
2666.0
2650.0
2634.0
2618.0
2602.0
2602.0
2585.0
2569.0
2569.0
2553.0
2553.0
2553.0
2537.0
2537.0
2537.0
2537.0
2521.0
2521.0
2505.0
2505.0
2489.0
2473.0
2457.0
2441.0
2425.0
2425.0
2409.0
2409.0
2409.0
2409.0
2409.0
2425.0
2441.0
2457.0
2473.0
2489.0
2489.0
2505.0
2505.0
2521.0
2521.0
2521.0
2505.0
2505.0
2489.0
2473.0
2457.0
2441.0
2425.0
2409.0
2393.0
2377.0
2361.0
2345.0
2329.0
2312.0
2296.0
2280.0
2280.0
2280.0
2264.0
2264.0
2264.0
2264.0
2264.0
2264.0
2264.0
2264.0
2248.0
2248.0
2232.0
2232.0
2232.0
2232.0
2232.0
2232.0
2232.0
2232.0
2232.0
2232.0
2232.0
2232.0
2232.0
2248.0
2248.0
2264.0
2264.0
2280.0
2296.0
2312.0
2329.0
2345.0
2361.0
2377.0
2393.0
2393.0
2409.0
2409.0
2409.0
2409.0
2409.0
2312.0
2152.0
2088.0
2039.0
2023.0
2007.0
2007.0
1991.0
1991.0
1991.0
1991.0
1975.0
1975.0
1975.0
1959.0
1959.0
1943.0
1927.0
1911.0
1895.0
1879.0
1863.0
1831.0
1815.0
1783.0
1750.0
1718.0
1702.0
1670.0
1654.0
1638.0
1622.0
1606.0
1590.0
1590.0
1574.0
1558.0
1558.0
1542.0
1526.0
1526.0
1526.0
1526.0
1542.0
1590.0
1654.0
1718.0
1799.0
1879.0
1991.0
2088.0
2200.0
2296.0
2409.0
2505.0
2585.0
2666.0
2746.0
2810.0
2875.0
2907.0
2955.0
3019.0
3067.0
3099.0
3148.0
3180.0
3196.0
3212.0
3228.0
3228.0
3228.0
3212.0
3180.0
3164.0
3131.0
3099.0
3051.0
3019.0
2971.0
2923.0
2875.0
2826.0
2778.0
2730.0
2682.0
2634.0
2602.0
2553.0
2521.0
2489.0
2457.0
2425.0
2393.0
2361.0
2329.0
2296.0
2280.0
2264.0
2248.0
2232.0
2216.0
2184.0
2152.0
2120.0
2072.0
2023.0
1959.0
1895.0
1847.0
1815.0
1766.0
1718.0
1686.0
1654.0
1622.0
1590.0
1574.0
1542.0
1510.0
1477.0
1445.0
1429.0
1397.0
1365.0
1333.0
1285.0
1253.0
1204.0
1172.0
1140.0
1108.0
1092.0
1076.0
1060.0
1060.0
1044.0
1028.0
1012.0
996.0
964.0
947.0
915.0
883.0
835.0
787.0
739.0
707.0
674.0
626.0
594.0
546.0
514.0
466.0
434.0
401.0
385.0
353.0
337.0
337.0
337.0
321.0
321.0
305.0
289.0
273.0
273.0
257.0
241.0
241.0
257.0
273.0
305.0
353.0
434.0
514.0
610.0
723.0
835.0
947.0
1076.0
1188.0
1285.0
1397.0
1493.0
1574.0
1654.0
1734.0
1799.0
1863.0
1927.0
1975.0
2023.0
2072.0
2088.0
2104.0
2104.0
2104.0
2104.0
2088.0
2072.0
2056.0
2039.0
2007.0
1975.0
1943.0
1895.0
1863.0
1815.0
1783.0
1750.0
1718.0
1670.0
1654.0
1622.0
1590.0
1574.0
1558.0
1526.0
1510.0
1493.0
1477.0
1461.0
1445.0
1429.0
1429.0
1413.0
1381.0
1365.0
1349.0
1333.0
1333.0
1317.0
1301.0
1285.0
1285.0
1285.0
1269.0
1269.0
1253.0
1253.0
1253.0
1253.0
1253.0
1253.0
1253.0
1253.0
1253.0
1269.0
1253.0
1253.0
1237.0
1237.0
1220.0
1220.0
1204.0
1317.0
1493.0
1574.0
1606.0
1638.0
1638.0
1654.0
1654.0
1670.0
1686.0
1718.0
1766.0
1799.0
1847.0
1911.0
1959.0
2007.0
2056.0
2120.0
2168.0
2232.0
2280.0
2329.0
2377.0
2409.0
2441.0
2473.0
2489.0
2489.0
2489.0
2489.0
2473.0
2457.0
2441.0
2409.0
2377.0
2345.0
2312.0
2280.0
2232.0
2200.0
2168.0
2136.0
2104.0
2072.0
2056.0
2023.0
2007.0
1991.0
1975.0
1959.0
1943.0
1927.0
1927.0
1911.0
1911.0
1895.0
1895.0
1879.0
1863.0
1863.0
1847.0
1831.0
1831.0
1815.0
1799.0
1799.0
1799.0
1783.0
1783.0
1766.0
1766.0
1766.0
1766.0
1766.0
1750.0
1750.0
1734.0
1734.0
1718.0
1702.0
1702.0
1686.0
1670.0
1654.0
1638.0
1622.0
1622.0
1606.0
1606.0
1606.0
1606.0
1606.0
1606.0
1606.0
1590.0
1590.0
1590.0
1574.0
1574.0
1558.0
1542.0
1526.0
1510.0
1510.0
1493.0
1493.0
1493.0
1510.0
1526.0
1542.0
1590.0
1638.0
1702.0
1766.0
1831.0
1911.0
1991.0
2072.0
2168.0
2248.0
2329.0
2409.0
2489.0
2553.0
2634.0
2682.0
2730.0
2778.0
2810.0
2826.0
2858.0
2875.0
2875.0
2891.0
2891.0
2875.0
2875.0
2858.0
2842.0
2842.0
2826.0
2810.0
2794.0
2778.0
2762.0
2746.0
2730.0
2714.0
2698.0
2666.0
2634.0
2602.0
2585.0
2553.0
2521.0
2505.0
2473.0
2473.0
2457.0
2457.0
2457.0
2457.0
2473.0
2473.0
2473.0
2473.0
2489.0
2489.0
2489.0
2505.0
2489.0
2489.0
2473.0
2457.0
2441.0
2409.0
2361.0
2329.0
2296.0
2248.0
2200.0
2168.0
2120.0
2072.0
2023.0
1991.0
1959.0
1943.0
1959.0
1975.0
1991.0
2039.0
2088.0
2152.0
2232.0
2296.0
2361.0
2425.0
2473.0
2537.0
2602.0
2666.0
2714.0
2762.0
2810.0
2858.0
2923.0
2971.0
3003.0
3051.0
3083.0
3115.0
3148.0
3164.0
3180.0
3180.0
3196.0
3196.0
3212.0
3228.0
3228.0
3228.0
3228.0
3228.0
3228.0
3212.0
3196.0
3164.0
3115.0
3067.0
3003.0
2939.0
2875.0
2810.0
2762.0
2714.0
2682.0
2666.0
2650.0
2634.0
2634.0
2634.0
2634.0
2650.0
2666.0
2666.0
2666.0
2682.0
2682.0
2698.0
2698.0
2698.0
2682.0
2666.0
2650.0
2569.0
2441.0
2377.0
2329.0
2312.0
2312.0
2312.0
2312.0
2312.0
2329.0
2329.0
2329.0
2329.0
2312.0
2312.0
2296.0
2296.0
2280.0
2280.0
2264.0
2248.0
2232.0
2216.0
2200.0
2184.0
2184.0
2184.0
2216.0
2280.0
2345.0
2457.0
2569.0
2714.0
2858.0
2971.0
3067.0
3180.0
3292.0
3388.0
3485.0
3565.0
3645.0
3710.0
3758.0
3806.0
3838.0
3854.0
3870.0
3886.0
3918.0
3934.0
3934.0
3934.0
3918.0
3886.0
3854.0
3822.0
3774.0
3726.0
3661.0
3613.0
3565.0
3517.0
3469.0
3421.0
3356.0
3308.0
3260.0
3212.0
3164.0
3099.0
3051.0
3003.0
2955.0
2891.0
2826.0
2762.0
2698.0
2634.0
2569.0
2521.0
2457.0
2377.0
2296.0
2232.0
2152.0
2056.0
1975.0
1895.0
1831.0
1783.0
1750.0
1750.0
1734.0
1734.0
1734.0
1718.0
1702.0
1686.0
1638.0
1590.0
1542.0
1477.0
1413.0
1365.0
1333.0
1301.0
1269.0
1253.0
1253.0
1253.0
1285.0
1317.0
1349.0
1413.0
1477.0
1542.0
1622.0
1670.0
1734.0
1783.0
1815.0
1863.0
1911.0
1975.0
2039.0
2136.0
2248.0
2393.0
2537.0
2698.0
2875.0
3035.0
3212.0
3340.0
3453.0
3565.0
3694.0
3790.0
3902.0
3983.0
4047.0
4079.0
4095.0
4095.0
4095.0
4095.0
4095.0
4095.0
4095.0
4079.0
4015.0
3918.0
3806.0
3694.0
3581.0
3485.0
3372.0
3276.0
3196.0
3115.0
3035.0
2939.0
2858.0
2778.0
2714.0
2650.0
2585.0
2521.0
2473.0
2425.0
2377.0
2329.0
2280.0
2248.0
2200.0
2168.0
2136.0
2104.0
2088.0
2056.0
2039.0
2007.0
1991.0
1959.0
1943.0
1911.0
1895.0
1879.0
1863.0
1863.0
1863.0
1879.0
1911.0
1927.0
1959.0
1975.0
2007.0
2023.0
2039.0
2056.0
2072.0
2088.0
2088.0
2088.0
2088.0
2088.0
2088.0
2088.0
2088.0
2088.0
2072.0
2072.0
2056.0
2039.0
2007.0
1991.0
1959.0
1943.0
1927.0
1911.0
1895.0
1879.0
1847.0
1831.0
1815.0
1799.0
1783.0
1766.0
1750.0
1734.0
1718.0
1702.0
1702.0
1686.0
1670.0
1670.0
1654.0
1654.0
1654.0
1638.0
1654.0
1654.0
1654.0
1654.0
1654.0
1654.0
1670.0
1670.0
1670.0
1686.0
1702.0
1718.0
1718.0
1734.0
1734.0
1638.0
1477.0
1397.0
1349.0
1317.0
1301.0
1269.0
1253.0
1253.0
1253.0
1253.0
1253.0
1269.0
1269.0
1285.0
1301.0
1317.0
1317.0
1333.0
1317.0
1317.0
1301.0
1253.0
1220.0
1156.0
1092.0
1044.0
996.0
964.0
931.0
915.0
915.0
915.0
915.0
931.0
931.0
947.0
947.0
964.0
980.0
996.0
996.0
1012.0
1012.0
1028.0
1028.0
1028.0
1028.0
1028.0
1028.0
1044.0
1060.0
1092.0
1108.0
1156.0
1204.0
1269.0
1333.0
1397.0
1461.0
1526.0
1606.0
1654.0
1718.0
1783.0
1815.0
1863.0
1895.0
1927.0
1943.0
1959.0
1975.0
1975.0
1959.0
1943.0
1911.0
1879.0
1847.0
1815.0
1766.0
1718.0
1670.0
1638.0
1606.0
1558.0
1542.0
1510.0
1477.0
1461.0
1429.0
1413.0
1397.0
1381.0
1365.0
1333.0
1301.0
1269.0
1253.0
1220.0
1204.0
1172.0
1156.0
1124.0
1108.0
1092.0
1076.0
1060.0
1044.0
1028.0
1012.0
1012.0
996.0
996.0
996.0
996.0
1012.0
1012.0
1012.0
1028.0
1028.0
1044.0
1060.0
1076.0
1092.0
1124.0
1172.0
1220.0
1253.0
1285.0
1333.0
1365.0
1397.0
1413.0
1429.0
1429.0
1429.0
1429.0
1429.0
1429.0
1429.0
1429.0
1429.0
1445.0
1461.0
1461.0
1477.0
1493.0
1493.0
1493.0
1493.0
1493.0
1493.0
1493.0
1477.0
1477.0
1477.0
1477.0
1477.0
1477.0
1477.0
1477.0
1477.0
1477.0
1477.0
1461.0
1461.0
1445.0
1445.0
1429.0
1413.0
1397.0
1381.0
1365.0
1365.0
1349.0
1333.0
1333.0
1333.0
1317.0
1317.0
1301.0
1301.0
1285.0
1285.0
1285.0
1269.0
1269.0
1269.0
1253.0
1253.0
1269.0
1269.0
1269.0
1269.0
1285.0
1285.0
1285.0
1301.0
1317.0
1333.0
1349.0
1365.0
1381.0
1397.0
1413.0
1429.0
1445.0
1461.0
1477.0
1493.0
1510.0
1526.0
1526.0
1526.0
1526.0
1526.0
1526.0
1526.0
1510.0
1510.0
1493.0
1477.0
1461.0
1445.0
1429.0
1413.0
1397.0
1381.0
1365.0
1349.0
1333.0
1317.0
1317.0
1301.0
1301.0
1285.0
1269.0
1269.0
1253.0
1253.0
1237.0
1237.0
1220.0
1204.0
1204.0
1188.0
1188.0
1188.0
1172.0
1172.0
1172.0
1156.0
1156.0
1156.0
1156.0
1220.0
1349.0
1397.0
1429.0
1445.0
1445.0
1461.0
1477.0
1477.0
1493.0
1510.0
1526.0
1542.0
1558.0
1574.0
1590.0
1622.0
1638.0
1670.0
1702.0
1734.0
1750.0
1766.0
1766.0
1766.0
1750.0
1734.0
1734.0
1718.0
1734.0
1750.0
1766.0
1783.0
1815.0
1831.0
1863.0
1911.0
1959.0
2007.0
2072.0
2136.0
2200.0
2264.0
2312.0
2361.0
2393.0
2425.0
2425.0
2441.0
2441.0
2441.0
2425.0
2425.0
2409.0
2409.0
2409.0
2409.0
2409.0
2409.0
2425.0
2425.0
2425.0
2409.0
2409.0
2393.0
2361.0
2329.0
2296.0
2264.0
2232.0
2184.0
2152.0
2120.0
2088.0
2072.0
2039.0
2007.0
1975.0
1959.0
1927.0
1911.0
1895.0
1863.0
1863.0
1847.0
1847.0
1847.0
1847.0
1847.0
1863.0
1879.0
1911.0
1927.0
1943.0
1959.0
1975.0
1991.0
1991.0
1991.0
1991.0
1991.0
1991.0
1975.0
1975.0
1959.0
1959.0
1943.0
1943.0
1927.0
1927.0
1927.0
1911.0
1911.0
1895.0
1879.0
1863.0
1863.0
1847.0
1831.0
1831.0
1831.0
1847.0
1863.0
1895.0
1927.0
1959.0
2007.0
2056.0
2104.0
2152.0
2184.0
2232.0
2264.0
2280.0
2296.0
2329.0
2329.0
2345.0
2345.0
2345.0
2345.0
2329.0
2312.0
2296.0
2264.0
2248.0
2232.0
2216.0
2200.0
2184.0
2168.0
2168.0
2152.0
2152.0
2152.0
2152.0
2152.0
2168.0
2168.0
2168.0
2168.0
2168.0
2168.0
2168.0
2152.0
2152.0
2152.0
2136.0
2120.0
2120.0
2104.0
2088.0
2072.0
2056.0
2039.0
2023.0
1991.0
1959.0
1943.0
1911.0
1895.0
1879.0
1863.0
1863.0
1863.0
1879.0
1895.0
1911.0
1927.0
1959.0
1975.0
1991.0
2007.0
2007.0
1991.0
1975.0
1959.0
1927.0
1879.0
1831.0
1783.0
1734.0
1702.0
1670.0
1638.0
1622.0
1622.0
1622.0
1622.0
1638.0
1654.0
1670.0
1686.0
1718.0
1750.0
1799.0
1831.0
1863.0
1879.0
1911.0
1927.0
1927.0
1927.0
1927.0
1911.0
1895.0
1879.0
1847.0
1815.0
1783.0
1750.0
1734.0
1702.0
1686.0
1670.0
1654.0
1622.0
1606.0
1590.0
1574.0
1542.0
1526.0
1526.0
1510.0
1493.0
1493.0
1477.0
1461.0
1445.0
1429.0
1413.0
1381.0
1365.0
1333.0
1317.0
1301.0
1204.0
1092.0
1012.0
980.0
964.0
947.0
964.0
980.0
1028.0
1092.0
1188.0
1317.0
1445.0
1606.0
1734.0
1879.0
2039.0
2216.0
2377.0
2537.0
2698.0
2826.0
2955.0
3067.0
3131.0
3196.0
3228.0
3228.0
3212.0
3196.0
3148.0
3115.0
3067.0
3019.0
2971.0
2939.0
2907.0
2891.0
2875.0
2858.0
2858.0
2858.0
2858.0
2858.0
2858.0
2875.0
2875.0
2875.0
2875.0
2875.0
2858.0
2842.0
2826.0
2794.0
2746.0
2698.0
2650.0
2585.0
2505.0
2441.0
2361.0
2296.0
2216.0
2136.0
2088.0
2023.0
1959.0
1879.0
1815.0
1750.0
1702.0
1654.0
1590.0
1542.0
1477.0
1413.0
1333.0
1285.0
1220.0
1156.0
1092.0
1012.0
947.0
883.0
803.0
739.0
674.0
626.0
578.0
562.0
546.0
546.0
546.0
562.0
578.0
594.0
626.0
658.0
707.0
755.0
819.0
899.0
980.0
1076.0
1172.0
1285.0
1397.0
1526.0
1638.0
1766.0
1879.0
1991.0
2088.0
2184.0
2264.0
2345.0
2409.0
2489.0
2553.0
2602.0
2650.0
2682.0
2714.0
2746.0
2762.0
2794.0
2826.0
2858.0
2875.0
2923.0
2971.0
3019.0
3067.0
3115.0
3180.0
3228.0
3276.0
3308.0
3324.0
3308.0
3292.0
3244.0
3180.0
3115.0
3019.0
2923.0
2842.0
2746.0
2666.0
2602.0
2537.0
2473.0
2425.0
2361.0
2296.0
2232.0
2184.0
2120.0
2072.0
2023.0
1975.0
1927.0
1895.0
1863.0
1831.0
1815.0
1815.0
1815.0
1815.0
1831.0
1863.0
1879.0
1911.0
1927.0
1927.0
1927.0
1927.0
1927.0
1927.0
1927.0
1927.0
1943.0
1943.0
1943.0
1943.0
1943.0
1943.0
1927.0
1895.0
1879.0
1863.0
1831.0
1799.0
1766.0
1734.0
1686.0
1654.0
1638.0
1606.0
1574.0
1542.0
1510.0
1493.0
1461.0
1445.0
1429.0
1413.0
1413.0
1413.0
1429.0
1445.0
1477.0
1510.0
1542.0
1574.0
1606.0
1638.0
1670.0
1702.0
1750.0
1783.0
1815.0
1863.0
1927.0
1991.0
2056.0
2120.0
2184.0
2232.0
2296.0
2361.0
2409.0
2457.0
2473.0
2505.0
2505.0
2521.0
2505.0
2505.0
2505.0
2489.0
2489.0
2489.0
2473.0
2473.0
2457.0
2457.0
2457.0
2441.0
2441.0
2441.0
2441.0
2441.0
2425.0
2425.0
2425.0
2409.0
2409.0
2393.0
2393.0
2393.0
2393.0
2393.0
2409.0
2425.0
2425.0
2441.0
2441.0
2457.0
2473.0
2473.0
2473.0
2473.0
2457.0
2441.0
2425.0
2409.0
2377.0
2361.0
2329.0
2296.0
2280.0
2248.0
2216.0
2200.0
2168.0
2136.0
2120.0
2088.0
2088.0
2072.0
2056.0
2056.0
2039.0
2039.0
2056.0
2056.0
2072.0
2088.0
2104.0
2120.0
2136.0
2152.0
2168.0
2200.0
2232.0
2280.0
2329.0
2393.0
2457.0
2521.0
2569.0
2634.0
2682.0
2730.0
2762.0
2794.0
2810.0
2842.0
2858.0
2875.0
2891.0
2907.0
2923.0
2939.0
2939.0
2955.0
2955.0
2955.0
2955.0
2955.0
2955.0
2939.0
2939.0
2939.0
2923.0
2923.0
2923.0
2923.0
2907.0
2907.0
2907.0
2891.0
2891.0
2875.0
2875.0
2858.0
2842.0
2810.0
2794.0
2762.0
2730.0
2714.0
2666.0
2634.0
2585.0
2537.0
2489.0
2441.0
2393.0
2329.0
2280.0
2232.0
2184.0
2152.0
2120.0
2104.0
2088.0
2072.0
2056.0
2056.0
2072.0
2088.0
2088.0
2104.0
2120.0
2120.0
2120.0
2120.0
2104.0
2088.0
2072.0
2039.0
2007.0
1975.0
1927.0
1879.0
1831.0
1799.0
1766.0
1718.0
1670.0
1638.0
1590.0
1558.0
1510.0
1477.0
1461.0
1429.0
1413.0
1397.0
1381.0
1365.0
1349.0
1333.0
1317.0
1317.0
1317.0
1317.0
1317.0
1333.0
1349.0
1365.0
1381.0
1397.0
1413.0
1429.0
1445.0
1445.0
1461.0
1477.0
1510.0
1526.0
1542.0
1574.0
1606.0
1622.0
1654.0
1702.0
1750.0
1799.0
1863.0
1927.0
1991.0
2039.0
2088.0
2120.0
2152.0
2184.0
2200.0
2200.0
2216.0
2232.0
2232.0
2248.0
2264.0
2280.0
2312.0
2329.0
2361.0
2377.0
2409.0
2425.0
2457.0
2473.0
2505.0
2521.0
2553.0
2569.0
2602.0
2618.0
2634.0
2650.0
2650.0
2650.0
2650.0
2650.0
2634.0
2618.0
2585.0
2569.0
2553.0
2537.0
2521.0
2521.0
2537.0
2553.0
2569.0
2602.0
2634.0
2682.0
2730.0
2778.0
2842.0
2891.0
2955.0
3019.0
3067.0
3115.0
3148.0
3196.0
3228.0
3260.0
3292.0
3324.0
3340.0
3340.0
3340.0
3324.0
3292.0
3260.0
3212.0
3180.0
3115.0
3067.0
3003.0
2939.0
2875.0
2826.0
2762.0
2698.0
2650.0
2537.0
2393.0
2296.0
2232.0
2184.0
2136.0
2088.0
2056.0
2007.0
1975.0
1927.0
1895.0
1847.0
1799.0
1766.0
1734.0
1718.0
1686.0
1654.0
1638.0
1606.0
1590.0
1574.0
1558.0
1542.0
1542.0
1542.0
1542.0
1542.0
1558.0
1558.0
1558.0
1558.0
1574.0
1574.0
1574.0
1574.0
1574.0
1574.0
1574.0
1574.0
1574.0
1574.0
1558.0
1558.0
1542.0
1542.0
1526.0
1526.0
1526.0
1510.0
1510.0
1510.0
1493.0
1493.0
1493.0
1477.0
1477.0
1461.0
1445.0
1445.0
1429.0
1413.0
1413.0
1397.0
1397.0
1365.0
1349.0
1317.0
1301.0
1269.0
1253.0
1253.0
1269.0
1285.0
1333.0
1381.0
1429.0
1493.0
1558.0
1622.0
1686.0
1766.0
1831.0
1895.0
1943.0
2007.0
2056.0
2088.0
2136.0
2168.0
2216.0
2248.0
2280.0
2296.0
2296.0
2296.0
2280.0
2264.0
2232.0
2216.0
2184.0
2168.0
2136.0
2120.0
2104.0
2072.0
2056.0
2039.0
2023.0
2007.0
1991.0
1975.0
1975.0
1959.0
1943.0
1927.0
1927.0
1911.0
1895.0
1879.0
1879.0
1879.0
1863.0
1847.0
1831.0
1815.0
1799.0
1766.0
1734.0
1686.0
1638.0
1590.0
1542.0
1510.0
1477.0
1445.0
1413.0
1381.0
1349.0
1317.0
1269.0
1220.0
1156.0
1092.0
1012.0
915.0
819.0
707.0
594.0
466.0
353.0
273.0
161.0
80.0
32.0
16.0
0.0
0.0
0.0
0.0
0.0
0.0
0.0
0.0
0.0
0.0
0.0
0.0
0.0
0.0
0.0
0.0
0.0
0.0
0.0
0.0
0.0
0.0
0.0
0.0
0.0
0.0
0.0
0.0
0.0
0.0
0.0
0.0
0.0
0.0
0.0
0.0
0.0
0.0
0.0
0.0
0.0
0.0
0.0
0.0
0.0
0.0
0.0
0.0
0.0
0.0
0.0
0.0
0.0
0.0
0.0
0.0
0.0
0.0
0.0
0.0
0.0
0.0
0.0
0.0
0.0
0.0
0.0
0.0
0.0
0.0
0.0
0.0
0.0
0.0
16.0
64.0
128.0
209.0
289.0
385.0
482.0
578.0
674.0
771.0
851.0
947.0
1044.0
1108.0
1188.0
1253.0
1301.0
1349.0
1397.0
1413.0
1445.0
1461.0
1477.0
1477.0
1461.0
1734.0
2120.0
2312.0
2409.0
2457.0
2473.0
2489.0
2489.0
2489.0
2505.0
2505.0
2505.0
2505.0
2505.0
2521.0
2521.0
2537.0
2553.0
2585.0
2602.0
2634.0
2650.0
2698.0
2730.0
2778.0
2810.0
2858.0
2891.0
2907.0
2939.0
2955.0
2971.0
2987.0
3003.0
3035.0
3051.0
3083.0
3099.0
3099.0
3083.0
3051.0
2987.0
2907.0
2826.0
2746.0
2666.0
2602.0
2537.0
2473.0
2393.0
2329.0
2264.0
2200.0
2136.0
2072.0
2023.0
1975.0
1943.0
1911.0
1879.0
1847.0
1799.0
1766.0
1734.0
1702.0
1670.0
1654.0
1622.0
1606.0
1590.0
1574.0
1542.0
1510.0
1477.0
1429.0
1397.0
1349.0
1317.0
1285.0
1253.0
1220.0
1188.0
1156.0
1140.0
1124.0
1092.0
1076.0
1060.0
1060.0
1044.0
1044.0
1044.0
1044.0
1044.0
1060.0
1076.0
1076.0
1092.0
1092.0
1108.0
1108.0
1124.0
1124.0
1140.0
1140.0
1156.0
1156.0
1172.0
1188.0
1204.0
1204.0
1220.0
1220.0
1237.0
1237.0
1253.0
1269.0
1269.0
1285.0
1301.0
1317.0
1317.0
1333.0
1333.0
1349.0
1349.0
1349.0
1365.0
1365.0
1365.0
1365.0
1365.0
1365.0
1381.0
1381.0
1381.0
1381.0
1381.0
1381.0
1365.0
1365.0
1365.0
1365.0
1365.0
1365.0
1365.0
1365.0
1365.0
1365.0
1365.0
1381.0
1413.0
1445.0
1510.0
1574.0
1654.0
1750.0
1831.0
1911.0
1991.0
2072.0
2152.0
2232.0
2312.0
2393.0
2473.0
2537.0
2602.0
2666.0
2714.0
2762.0
2810.0
2858.0
2891.0
2923.0
2939.0
2955.0
2971.0
2971.0
2971.0
2955.0
2955.0
2939.0
2923.0
2891.0
2875.0
2858.0
2842.0
2810.0
2794.0
2778.0
2762.0
2746.0
2714.0
2714.0
2698.0
2682.0
2666.0
2650.0
2634.0
2602.0
2585.0
2569.0
2553.0
2537.0
2521.0
2505.0
2489.0
2489.0
2473.0
2457.0
2441.0
2425.0
2409.0
2393.0
2361.0
2345.0
2329.0
2296.0
2280.0
2264.0
2264.0
2248.0
2232.0
2216.0
2216.0
2200.0
2200.0
2184.0
2184.0
2168.0
2168.0
2152.0
2152.0
2152.0
2152.0
2136.0
2136.0
2120.0
2120.0
2104.0
2104.0
2088.0
2072.0
2072.0
2072.0
2072.0
2072.0
2056.0
2056.0
2039.0
2039.0
2023.0
2023.0
2023.0
2023.0
2023.0
2039.0
2056.0
2104.0
2152.0
2216.0
2296.0
2377.0
2457.0
2537.0
2618.0
2698.0
2762.0
2826.0
2891.0
2955.0
3019.0
3083.0
3148.0
3196.0
3260.0
3308.0
3356.0
3404.0
3421.0
3453.0
3469.0
3469.0
3469.0
3453.0
3453.0
3437.0
3421.0
3404.0
3388.0
3372.0
3356.0
3340.0
3324.0
3308.0
3292.0
3292.0
3276.0
3276.0
3260.0
3244.0
3228.0
3212.0
3212.0
3196.0
3180.0
3180.0
3164.0
3148.0
3148.0
3131.0
3115.0
3099.0
3083.0
3083.0
3067.0
3051.0
3035.0
3035.0
3035.0
3019.0
3019.0
3019.0
3003.0
3003.0
3003.0
2987.0
2987.0
2971.0
2971.0
2955.0
2955.0
2955.0
2939.0
2939.0
2923.0
2923.0
2907.0
2907.0
2891.0
2875.0
2875.0
2858.0
2858.0
2842.0
2826.0
2826.0
2810.0
2810.0
2794.0
2794.0
2794.0
2778.0
2778.0
2778.0
2778.0
2778.0
2778.0
2778.0
2794.0
2810.0
2826.0
2875.0
2923.0
2971.0
3035.0
3099.0
3164.0
3212.0
3260.0
3324.0
3372.0
3437.0
3485.0
3533.0
3581.0
3629.0
3677.0
3710.0
3758.0
3774.0
3790.0
3822.0
3838.0
3854.0
3854.0
3870.0
3870.0
3870.0
3886.0
3886.0
3886.0
3886.0
3870.0
3854.0
3822.0
3790.0
3758.0
3710.0
3661.0
3629.0
3597.0
3565.0
3549.0
3517.0
3501.0
3485.0
3453.0
3437.0
3421.0
3404.0
3388.0
3372.0
3356.0
3340.0
3324.0
3308.0
3292.0
3276.0
3276.0
3276.0
3276.0
3292.0
3308.0
3340.0
3356.0
3388.0
3421.0
3437.0
3453.0
3453.0
3469.0
3469.0
3453.0
3437.0
3421.0
3404.0
3388.0
3356.0
3340.0
3324.0
3308.0
3292.0
3276.0
3276.0
3276.0
3276.0
3276.0
3292.0
3308.0
3308.0
3324.0
3340.0
3340.0
3356.0
3356.0
3356.0
3356.0
3356.0
3340.0
3340.0
3324.0
3324.0
3308.0
3292.0
3276.0
3260.0
3244.0
3228.0
3212.0
3196.0
3196.0
3196.0
3180.0
3180.0
3164.0
3164.0
3148.0
3131.0
3115.0
3083.0
3067.0
3067.0
3051.0
3051.0
3035.0
3035.0
3019.0
3019.0
3003.0
2987.0
2955.0
2923.0
2891.0
2858.0
2810.0
2762.0
2714.0
2666.0
2618.0
2569.0
2537.0
2505.0
2473.0
2441.0
2409.0
2377.0
2120.0
1718.0
1526.0
1413.0
1365.0
1333.0
1317.0
1301.0
1301.0
1285.0
1285.0
1285.0
1301.0
1333.0
1381.0
1461.0
1542.0
1638.0
1750.0
1847.0
1943.0
2072.0
2184.0
2312.0
2457.0
2585.0
2714.0
2842.0
2971.0
3083.0
3196.0
3292.0
3356.0
3437.0
3501.0
3549.0
3581.0
3613.0
3629.0
3613.0
3597.0
3581.0
3549.0
3517.0
3469.0
3437.0
3388.0
3356.0
3308.0
3276.0
3244.0
3196.0
3164.0
3131.0
3083.0
3051.0
3003.0
2971.0
2923.0
2891.0
2858.0
2826.0
2810.0
2794.0
2778.0
2762.0
2762.0
2746.0
2730.0
2714.0
2682.0
2666.0
2666.0
2650.0
2634.0
2634.0
2618.0
2602.0
2602.0
2585.0
2585.0
2569.0
2569.0
2553.0
2553.0
2553.0
2569.0
2569.0
2585.0
2585.0
2602.0
2618.0
2618.0
2634.0
2634.0
2650.0
2650.0
2650.0
2650.0
2634.0
2634.0
2618.0
2618.0
2602.0
2585.0
2553.0
2521.0
2489.0
2441.0
2393.0
2329.0
2264.0
2184.0
2120.0
2056.0
2007.0
1959.0
1927.0
1895.0
1879.0
1863.0
1863.0
1879.0
1895.0
1911.0
1943.0
1991.0
2039.0
2088.0
2152.0
2232.0
2296.0
2361.0
2441.0
2521.0
2602.0
2666.0
2730.0
2794.0
2826.0
2858.0
2875.0
2875.0
2875.0
2875.0
2875.0
2858.0
2858.0
2858.0
2842.0
2826.0
2810.0
2778.0
2746.0
2714.0
2682.0
2650.0
2618.0
2569.0
2537.0
2505.0
2473.0
2457.0
2425.0
2393.0
2377.0
2361.0
2345.0
2329.0
2312.0
2312.0
2296.0
2296.0
2296.0
