0.37496
0.41317
0.52016
0.70356
0.90989
1.1391
1.3404
1.5034
1.6384
1.7021
1.7199
1.6868
1.5824
1.455
1.3047
1.1315
0.96847
0.81564
0.67554
0.5762
0.47176
0.39534
0.34694
0.30619
0.26543
0.2425
0.22722
0.22213
0.21958
0.22213
0.21958
0.22722
0.24505
0.25015
0.27562
0.296
0.30619
0.32656
0.33675
0.35713
0.38006
0.431
0.49723
0.64242
0.83602
1.0755
1.3047
1.4983
1.6537
1.7683
1.8193
1.8116
1.753
1.6562
1.5085
1.3429
1.157
0.98885
0.82837
0.69082
0.5711
0.46412
0.37751
0.31638
0.26543
0.23232
0.1992
0.19411
0.19411
0.18137
0.19411
0.20175
0.21194
0.22467
0.23996
0.26288
0.27052
0.28836
0.30619
0.32402
0.34694
0.36732
0.40808
0.50997
0.6679
0.89715
1.134
1.3709
1.5798
1.7276
1.8447
1.8982
1.9059
1.8447
1.7352
1.5849
1.4041
1.2156
1.0194
0.84366
0.69082
0.54563
0.4361
0.34439
0.27052
0.21448
0.17882
0.13552
0.12024
0.11005
0.099858
0.11259
0.11514
0.13297
0.14571
0.14826
0.17373
0.19156
0.2043
0.23232
0.25269
0.27817
0.30109
0.34694
0.41062
0.55327
0.7596
1.0092
1.269
1.4907
1.6792
1.8244
1.9161
1.9466
1.9313
1.8575
1.7276
1.5518
1.3608
1.1621
0.97612
0.79526
0.64242
0.49978
0.39279
0.296
0.22722
0.17628
0.13807
0.10495
0.097311
0.092216
0.087122
0.087122
0.10495
0.11769
0.12278
0.14316
0.15335
0.16354
0.19156
0.20939
0.23486
0.25524
0.28581
0.32656
0.40808
0.54308
0.7596
1.0143
1.2589
1.4728
1.6588
1.7989
1.8728
1.8982
1.8651
1.7658
1.6282
1.4626
1.2716
1.0806
0.88441
0.73158
0.57874
0.46157
0.36223
0.28071
0.22977
0.18392
0.13552
0.12533
0.099858
0.10241
0.10495
0.11005
0.12024
0.13552
0.15335
0.17118
0.19411
0.20684
0.23996
0.25524
0.26798
0.29345
0.32656
0.36732
0.43864
0.59657
0.80545
1.05
1.2741
1.483
1.6537
1.7734
1.832
1.8396
1.7887
1.6715
1.5238
1.348
1.1621
0.99649
0.82837
0.67299
0.54818
0.44629
0.35968
0.296
0.23996
0.20175
0.18137
0.15844
0.14826
0.14061
0.1508
0.1559
0.16354
0.17882
0.18901
0.21703
0.23232
0.24505
0.27052
0.2909
0.30873
0.32656
0.36223
0.40553
0.50742
0.68063
0.90989
1.1417
1.3684
1.5594
1.7046
1.8091
1.8447
1.8294
1.7428
1.6282
1.4652
1.292
1.106
0.93281
0.76979
0.63478
0.5227
0.41572
0.34949
0.28581
0.23996
0.1992
0.18646
0.16863
0.16099
0.15844
0.16099
0.17118
0.18137
0.19665
0.21958
0.23486
0.24505
0.27052
0.28581
0.30873
0.32656
0.35204
0.3877
0.45393
0.59148
0.78507
1.022
1.2538
1.4677
1.6384
1.7607
1.8167
1.832
1.7887
1.6817
1.5263
1.3531
1.185
0.99904
0.82583
0.68827
0.56091
0.45138
0.36477
0.30109
0.24505
0.21194
0.18901
0.16863
0.16354
0.15844
0.15335
0.16863
0.17118
0.18392
0.1992
0.22467
0.23741
0.26543
0.27307
0.2909
0.31892
0.3393
0.35713
0.40808
0.47685
0.61695
0.82583
1.0423
1.2792
1.4703
1.6359
1.7403
1.781
1.7734
1.7021
1.5824
1.427
1.264
1.0831
0.92262
0.77743
0.64497
0.53034
0.44883
0.36987
0.30873
0.27052
0.24505
0.21448
0.20175
0.2043
0.19411
0.1992
0.21194
0.22467
0.23996
0.25269
0.26034
0.2909
0.30873
0.32402
0.33675
0.36223
0.38515
0.41062
0.46412
0.56601
0.73413
0.95064
1.185
1.3837
1.562
1.6843
1.7428
1.7505
1.6893
1.5976
1.4525
1.2843
1.1162
0.96593
0.82073
0.68318
0.57365
0.48449
0.41317
0.34694
0.296
0.26288
0.24505
0.22722
0.22213
0.23232
0.23486
0.24505
0.2425
0.26288
0.27562
0.2909
0.30364
0.32147
0.3393
0.35713
0.3826
0.39279
0.42336
0.4794
0.59657
0.77233
0.99649
1.2257
1.427
1.6027
1.7199
1.7938
1.8014
1.7505
1.6511
1.5059
1.3429
1.1697
1.0092
0.84366
0.7112
0.58129
0.48195
0.40298
0.34694
0.28581
0.25779
0.22722
0.21194
0.2043
0.20175
0.20939
0.21703
0.22722
0.23996
0.2476
0.26288
0.27307
0.28836
0.31128
0.33421
0.34694
0.37241
0.40553
0.43864
0.54818
0.70865
0.93281
1.1621
1.376
1.5773
1.7174
1.8014
1.832
1.7938
1.7148
1.5875
1.4117
1.241
1.0653
0.89206
0.74431
0.6195
0.49978
0.40808
0.34439
0.28581
0.25015
0.21958
0.2043
0.1992
0.18137
0.18646
0.20175
0.1992
0.21958
0.22467
0.25269
0.26034
0.28071
0.29345
0.31892
0.33166
0.35458
0.37751
0.40553
0.48449
0.60676
0.79526
1.0143
1.2512
1.4499
1.618
1.7225
1.7683
1.7581
1.6741
1.5671
1.4041
1.241
1.0755
0.90224
0.76469
0.62714
0.53034
0.44374
0.36477
0.30873
0.26798
0.2425
0.21958
0.21448
0.20939
0.20684
0.20684
0.22467
0.22467
0.25269
0.26543
0.27817
0.30109
0.30619
0.33675
0.35204
0.37241
0.3877
0.42336
0.48704
0.6144
0.79526
1.0169
1.2563
1.4575
1.6308
1.7454
1.7938
1.7989
1.7479
1.6308
1.4856
1.3149
1.1417
0.96593
0.80545
0.67554
0.56346
0.46412
0.3877
0.32911
0.27817
0.23486
0.22213
0.1992
0.19156
0.19411
0.19156
0.21194
0.21448
0.22722
0.2425
0.26288
0.27052
0.30109
0.31892
0.33675
0.35713
0.38515
0.42591
0.49214
0.63988
0.84366
1.0806
1.3124
1.5161
1.6715
1.7836
1.8269
1.8167
1.7479
1.6231
1.4754
1.2996
1.1188
0.95319
0.78252
0.65261
0.5227
0.431
0.35713
0.29854
0.2476
0.21703
0.19665
0.17882
0.17373
0.16354
0.16609
0.18392
0.18901
0.2043
0.21958
0.23232
0.24505
0.27307
0.29345
0.30873
0.33675
0.36223
0.39789
0.4794
0.63224
0.84366
1.0958
1.3251
1.5416
1.7148
1.832
1.8957
1.8931
1.8371
1.7352
1.5747
1.4015
1.2207
1.0322
0.8462
0.70356
0.56346
0.45138
0.36223
0.29345
0.22467
0.18646
0.15844
0.14316
0.12533
0.12278
0.12788
0.12278
0.14316
0.14316
0.16609
0.18901
0.20175
0.21958
0.2425
0.26288
0.28581
0.30109
0.34185
0.3877
0.50487
0.69082
0.92517
1.157
1.3811
1.5671
1.6944
1.7836
1.804
1.7632
1.6639
1.5263
1.3684
1.1901
1.022
0.85639
0.70865
0.58638
0.48195
0.39534
0.32147
0.27562
0.23486
0.20684
0.19156
0.17373
0.17882
0.18646
0.18901
0.20175
0.21194
0.21703
0.24505
0.25015
0.27562
0.2909
0.31383
0.32147
0.34949
0.37751
0.42591
0.51761
0.68827
0.91243
1.1417
1.3633
1.5645
1.7021
1.7938
1.8244
1.7912
1.7021
1.5798
1.4142
1.241
1.0627
0.8997
0.7545
0.61186
0.50997
0.42591
0.34185
0.29345
0.25779
0.22467
0.20684
0.19665
0.19411
0.20175
0.20175
0.21194
0.22467
0.23486
0.26288
0.27817
0.30109
0.32147
0.33675
0.34949
0.37496
0.40808
0.46666
0.57365
0.7596
0.99395
1.2436
1.4754
1.669
1.8244
1.9161
1.9543
1.9339
1.8524
1.7046
1.5442
1.3531
1.1468
0.95828
0.79526
0.63988
0.50487
0.41317
0.31638
0.25269
0.20175
0.17118
0.13552
0.12278
0.11514
0.11769
0.12533
0.13043
0.14061
0.15335
0.16354
0.18646
0.19411
0.21703
0.2425
0.25524
0.27307
0.30619
0.36987
0.4794
0.6679
0.90734
1.1646
1.4015
1.6002
1.7505
1.8702
1.9033
1.8931
1.8142
1.6843
1.5161
1.3302
1.1315
0.95319
0.77233
0.61186
0.48959
0.36732
0.28836
0.22467
0.16863
0.13297
0.10241
0.094763
0.092216
0.084574
0.097311
0.11259
0.12278
0.13807
0.1508
0.17118
0.19156
0.21194
0.23232
0.2476
0.27307
0.30109
0.34694
0.44119
0.58893
0.81054
1.0678
1.3098
1.5289
1.7046
1.8116
1.8753
1.8728
1.8091
1.6944
1.534
1.3429
1.1595
0.97102
0.8029
0.64497
0.53034
0.41827
0.33675
0.27817
0.22213
0.18646
0.16609
0.14826
0.13807
0.13043
0.13807
0.1508
0.1559
0.16863
0.18392
0.2043
0.22977
0.2476
0.26288
0.28071
0.296
0.33675
0.37241
0.44119
0.57874
0.78252
1.022
1.264
1.4805
1.646
1.7734
1.8345
1.8294
1.7607
1.6537
1.5034
1.3124
1.1315
0.9481
0.79526
0.65261
0.5278
0.41827
0.34439
0.27817
0.23996
0.2043
0.18392
0.16609
0.16099
0.17373
0.17882
0.18646
0.20175
0.21448
0.21703
0.23486
0.25524
0.26543
0.296
0.30619
0.33166
0.36477
0.40553
0.50742
0.65771
0.88441
1.1391
1.3837
1.59
1.7403
1.8524
1.9033
1.8931
1.8218
1.6919
1.5238
1.3429
1.1442
0.97102
0.79526
0.64752
0.5227
0.41827
0.34185
0.26798
0.22213
0.18646
0.17118
0.15335
0.14826
0.14316
0.14316
0.16354
0.17628
0.19156
0.2043
0.22213
0.24505
0.26288
0.28581
0.30619
0.32402
0.35968
0.40553
0.52016
0.72394
0.96083
1.2308
1.455
1.669
1.8218
1.9262
1.9746
1.9594
1.8829
1.753
1.5773
1.3888
1.1952
0.98376
0.81054
0.64497
0.51251
0.40043
0.31638
0.24505
0.18392
0.14316
0.12024
0.10495
0.089669
0.089669
0.092216
0.11005
0.11769
0.12533
0.15844
0.17373
0.20175
0.21703
0.2476
0.26034
0.28836
0.32402
0.3877
0.50742
0.69846
0.95319
1.2181
1.4575
1.669
1.8294
1.9313
1.9721
1.9492
1.86
1.725
1.5492
1.3582
1.1621
0.96083
0.77488
0.61186
0.47685
0.36732
0.27052
0.19156
0.14826
0.11005
0.071838
0.064196
0.05146
0.061649
0.069291
0.082027
0.082027
0.11005
0.12278
0.14316
0.16609
0.17882
0.20684
0.22977
0.26288
0.28836
0.32656
0.42845
0.58384
0.81819
1.0653
1.3149
1.5212
1.6817
1.7963
1.8345
1.8218
1.7479
1.6104
1.4474
1.264
1.0704
0.90734
0.74431
0.60167
0.47685
0.39534
0.31383
0.25269
0.21194
0.17628
0.17118
0.16099
0.14826
0.16099
0.16354
0.17373
0.18137
0.20939
0.21703
0.23996
0.26034
0.28836
0.31638
0.32656
0.35458
0.38515
0.47176
0.62205
0.84875
1.1035
1.3582
1.59
1.7734
1.9237
2.0078
2.0281
1.9797
1.8855
1.725
1.5416
1.3327
1.1315
0.93281
0.7596
0.61186
0.48449
0.36732
0.29345
0.22467
0.17882
0.14571
0.11514
0.10241
0.092216
0.092216
0.092216
0.11514
0.12024
0.13043
0.15335
0.17628
0.18392
0.21703
0.23486
0.25779
0.28836
0.33166
0.41572
0.56601
0.808
1.0729
1.3404
1.5773
1.7632
1.9161
1.995
2.0256
1.9772
1.8855
1.725
1.5314
1.3302
1.1111
0.90734
0.72394
0.56091
0.42336
0.31383
0.21703
0.15335
0.092216
0.059102
0.036177
0.02344
0.013251
0.018346
0.020893
0.033629
0.054007
0.074385
0.097311
0.11769
0.14826
0.17373
0.19156
0.21703
0.23996
0.26798
0.31128
0.39025
0.54308
0.76215
1.0296
1.2945
1.5238
1.7174
1.8626
1.9517
1.9645
1.9237
1.8218
1.6741
1.4779
1.2843
1.0907
0.90734
0.73413
0.59148
0.47176
0.36732
0.28836
0.22977
0.17882
0.14316
0.12533
0.11259
0.10241
0.092216
0.11259
0.11769
0.13552
0.14316
0.15844
0.18137
0.19665
0.22467
0.25269
0.27817
0.28581
0.31383
0.36223
0.42845
0.55327
0.76979
1.0296
1.2741
1.5085
1.7123
1.8447
1.9339
1.9568
1.9033
1.7938
1.6384
1.4575
1.264
1.0602
0.88696
0.72648
0.58384
0.47176
0.37751
0.29345
0.23486
0.19411
0.15844
0.14061
0.12788
0.12278
0.13552
0.13297
0.13552
0.16099
0.17373
0.18392
0.2043
0.21958
0.23741
0.26288
0.27052
0.296
0.32147
0.35458
0.41572
0.55072
0.75705
1.0016
1.2487
1.4856
1.6741
1.8116
1.8982
1.9211
1.8804
1.7734
1.6231
1.4372
1.2487
1.0551
0.87677
0.70865
0.5711
0.45647
0.35458
0.2909
0.22467
0.18392
0.15844
0.13297
0.13043
0.12024
0.11769
0.13807
0.14316
0.1508
0.17373
0.19665
0.20175
0.22722
0.2425
0.26798
0.28581
0.29854
0.32656
0.35968
0.40043
0.46921
0.62205
0.83856
1.0831
1.3276
1.5543
1.7276
1.8549
1.9211
1.9186
1.8498
1.7225
1.5696
1.3786
1.1926
1.0041
0.82583
0.67554
0.55072
0.4361
0.35968
0.28581
0.24505
0.19411
0.17628
0.16354
0.1508
0.15844
0.16354
0.17373
0.18392
0.19156
0.21448
0.22722
0.2476
0.26543
0.28326
0.29345
0.30873
0.33675
0.34694
0.3877
0.4361
0.54818
0.72903
0.95574
1.2054
1.4346
1.6359
1.7861
1.8728
1.8931
1.8549
1.7556
1.6053
1.4372
1.2461
1.0576
0.88441
0.72903
0.60676
0.48704
0.39279
0.32656
0.27562
0.22722
0.20939
0.18137
0.18392
0.17118
0.18137
0.18137
0.19156
0.2043
0.22467
0.23996
0.26034
0.27817
0.29345
0.31383
0.32656
0.35458
0.37496
0.39789
0.4361
0.53289
0.69337
0.92262
1.157
1.3964
1.6002
1.7556
1.8422
1.8829
1.8524
1.753
1.6129
1.4423
1.2512
1.0704
0.88696
0.73667
0.59403
0.47685
0.39025
0.32147
0.26034
0.21958
0.1992
0.18646
0.17628
0.16354
0.17628
0.18901
0.19411
0.2043
0.22467
0.23996
0.25524
0.26543
0.28071
0.30364
0.31892
0.33675
0.35968
0.37496
0.40808
0.48449
0.6144
0.81564
1.05
1.292
1.5009
1.6792
1.8091
1.8778
1.8855
1.8193
1.7021
1.5391
1.3658
1.1748
0.98885
0.83347
0.67554
0.54563
0.45393
0.36732
0.30109
0.25015
0.21194
0.19411
0.17628
0.18137
0.16609
0.18392
0.18646
0.19665
0.20684
0.22977
0.23996
0.26034
0.27817
0.296
0.31638
0.33421
0.35458
0.36987
0.40298
0.44374
0.54308
0.68827
0.90989
1.1442
1.3888
1.5824
1.7276
1.8167
1.8473
1.8091
1.7174
1.5747
1.3964
1.213
1.0398
0.86913
0.72648
0.59403
0.48449
0.40298
0.32656
0.28581
0.23996
0.22213
0.1992
0.2043
0.19411
0.19411
0.20939
0.21448
0.22467
0.23741
0.25269
0.27052
0.296
0.30619
0.32911
0.34694
0.36223
0.39279
0.42336
0.47685
0.58129
0.74941
0.97866
1.2207
1.4474
1.646
1.7912
1.8829
1.9033
1.8626
1.7709
1.6206
1.4474
1.2487
1.078
0.89715
0.73158
0.59912
0.48959
0.39025
0.31892
0.27562
0.22977
0.20175
0.18901
0.17373
0.17118
0.16863
0.17882
0.18392
0.20939
0.21958
0.23232
0.25269
0.27052
0.27817
0.30109
0.32147
0.33675
0.36223
0.3877
0.4361
0.52525
0.69337
0.92772
1.1697
1.4066
1.6129
1.7734
1.8829
1.9161
1.9008
1.8218
1.6741
1.511
1.3251
1.1188
0.94045
0.77233
0.62714
0.50997
0.40553
0.32911
0.26288
0.21958
0.18901
0.16609
0.15335
0.15844
0.1508
0.15844
0.16099
0.18392
0.1992
0.20939
0.22722
0.23741
0.26798
0.27562
0.296
0.31638
0.32911
0.36732
0.40043
0.48449
0.60931
0.81564
1.0551
1.292
1.5187
1.6868
1.8014
1.8524
1.8396
1.7556
1.6282
1.4626
1.2792
1.106
0.92517
0.76724
0.62205
0.51251
0.41827
0.34439
0.29345
0.25015
0.22213
0.18901
0.18137
0.17373
0.17118
0.18392
0.19156
0.20175
0.21448
0.23486
0.24505
0.26034
0.28071
0.30619
0.31892
0.34185
0.35713
0.38515
0.44119
0.53799
0.70865
0.93281
1.1824
1.427
1.6231
1.7734
1.8855
1.9161
1.8829
1.804
1.6562
1.4907
1.3022
1.1086
0.92262
0.7545
0.61695
0.49723
0.40043
0.32147
0.26288
0.21958
0.19411
0.17373
0.16099
0.15844
0.16099
0.17118
0.18137
0.18646
0.19411
0.21448
0.23232
0.25269
0.27052
0.29345
0.30619
0.33421
0.34694
0.39534
0.45393
0.58638
0.78507
1.0296
1.2767
1.5187
1.7046
1.8473
1.9135
1.9339
1.888
1.781
1.6308
1.455
1.2538
1.0525
0.87422
0.72139
0.5762
0.45902
0.36477
0.28581
0.22213
0.17882
0.15335
0.12788
0.12788
0.11769
0.13043
0.13297
0.14571
0.16099
0.17118
0.19665
0.21448
0.22722
0.25524
0.26543
0.2909
0.31128
0.33675
0.36987
0.43355
0.56091
0.7545
0.98376
1.2512
1.4728
1.669
1.8244
1.8957
1.9211
1.8651
1.7632
1.6129
1.4372
1.241
1.05
0.85639
0.7112
0.56601
0.45647
0.36223
0.28836
0.23741
0.2043
0.17118
0.15335
0.1508
0.14571
0.1508
0.14571
0.16609
0.17628
0.18392
0.2043
0.21703
0.2476
0.26543
0.28326
0.30109
0.32147
0.34949
0.40043
0.48704
0.66026
0.88441
1.1468
1.3964
1.6206
1.7887
1.9059
1.9619
1.967
1.8906
1.776
1.6078
1.4091
1.2079
1.0143
0.84366
0.67299
0.54053
0.43355
0.33166
0.26798
0.21448
0.17373
0.15335
0.13807
0.11514
0.11514
0.12278
0.13297
0.14316
0.1508
0.17118
0.19411
0.20684
0.22977
0.25015
0.26034
0.28326
0.31128
0.34439
0.41827
0.55072
0.76215
1.022
1.2843
1.5289
1.7403
1.8931
1.9925
2.0332
2.0078
1.911
1.7709
1.5798
1.3735
1.1723
0.95574
0.77233
0.60167
0.46412
0.35968
0.26034
0.19411
0.13043
0.092216
0.066744
0.05146
0.05146
0.046366
0.05146
0.056555
0.076933
0.094763
0.10495
0.13297
0.1508
0.18392
0.2043
0.23232
0.25524
0.27817
0.31638
0.37751
0.49468
0.69337
0.943
1.2054
1.4499
1.6715
1.8422
1.9466
1.9976
1.9823
1.9059
1.7683
1.5773
1.3811
1.1799
0.96847
0.80035
0.63478
0.50487
0.3877
0.30619
0.22722
0.17118
0.13807
0.10495
0.092216
0.084574
0.084574
0.097311
0.092216
0.11514
0.13297
0.1508
0.16354
0.18392
0.20175
0.21703
0.2425
0.26543
0.28581
0.3393
0.41062
0.55582
0.77488
1.0347
1.2996
1.5416
1.7428
1.8982
1.9848
2.0154
1.967
1.8651
1.7148
1.5161
1.3225
1.1111
0.91753
0.73413
0.58384
0.44883
0.35713
0.27307
0.1992
0.1559
0.11005
0.092216
0.082027
0.082027
0.076933
0.07948
0.087122
0.097311
0.12024
0.13807
0.15335
0.17118
0.19665
0.22213
0.25015
0.27052
0.30364
0.35968
0.47431
0.65007
0.91243
1.1875
1.4448
1.6715
1.86
1.9772
2.0485
2.0485
1.9848
1.8626
1.6944
1.4881
1.2741
1.0602
0.87422
0.69337
0.53544
0.41062
0.30619
0.21958
0.16354
0.11005
0.082027
0.059102
0.05146
0.054007
0.05146
0.059102
0.071838
0.089669
0.11259
0.12533
0.1508
0.16609
0.18901
0.20939
0.22467
0.24505
0.28326
0.33675
0.41572
0.59657
0.83092
1.1086
1.376
1.6129
1.8218
1.9619
2.0587
2.0842
2.0307
1.9186
1.7683
1.5543
1.3455
1.1366
0.92772
0.72903
0.5711
0.44119
0.31892
0.23486
0.16099
0.12278
0.082027
0.046366
0.048913
0.025987
0.041271
0.041271
0.054007
0.069291
0.087122
0.11259
0.12533
0.15335
0.17373
0.21194
0.23486
0.26034
0.2909
0.32656
0.40043
0.52525
0.71884
0.96083
1.2334
1.4779
1.6995
1.8498
1.9568
1.9976
1.967
1.8702
1.7225
1.5416
1.3327
1.1366
0.93791
0.76469
0.62205
0.48195
0.39279
0.30109
0.23486
0.18901
0.1559
0.12533
0.11259
0.11005
0.12024
0.11005
0.12533
0.13807
0.14826
0.16609
0.18901
0.21448
0.22213
0.25269
0.26543
0.28581
0.31892
0.34439
0.40808
0.5278
0.72394
0.97357
1.2334
1.4677
1.6741
1.832
1.9186
1.9543
1.9161
1.8142
1.6562
1.4703
1.2741
1.0755
0.87677
0.71629
0.5711
0.44374
0.34949
0.27052
0.22213
0.18137
0.1508
0.12788
0.12533
0.11769
0.12024
0.12788
0.14316
0.16354
0.17373
0.1992
0.21703
0.22467
0.25015
0.26288
0.28836
0.31383
0.32911
0.36223
0.42845
0.54563
0.72903
0.98121
1.241
1.4856
1.6944
1.8447
1.939
1.9721
1.9364
1.8396
1.6919
1.4983
1.2894
1.0882
0.89715
0.72648
0.57365
0.45393
0.36732
0.2909
0.21958
0.17373
0.15335
0.14061
0.12024
0.12278
0.12788
0.13807
0.1508
0.16863
0.18137
0.20175
0.21958
0.2425
0.26288
0.28326
0.30364
0.32402
0.34694
0.37751
0.431
0.53289
0.70356
0.93026
1.1875
1.4346
1.6537
1.8396
1.9543
1.995
1.9874
1.9033
1.776
1.5976
1.3964
1.1824
0.98885
0.79526
0.63988
0.50487
0.39279
0.31128
0.23232
0.18137
0.14826
0.12278
0.11259
0.097311
0.1075
0.10241
0.11769
0.13043
0.13807
0.16099
0.17628
0.18901
0.21703
0.23486
0.25524
0.28071
0.28581
0.32147
0.34949
0.40553
0.52016
0.70356
0.92517
1.1697
1.3964
1.5926
1.7276
1.8014
1.7989
1.7505
1.6333
1.483
1.2971
1.1162
0.9481
0.78252
0.64497
0.52525
0.42081
0.35713
0.28836
0.23996
0.21703
0.19156
0.18646
0.17628
0.18137
0.18137
0.20175
0.20939
0.22213
0.23996
0.25269
0.27307
0.29345
0.30364
0.32402
0.33675
0.36732
0.37496
0.40808
0.44374
0.50997
0.62205
0.79781
1.0143
1.2257
1.4423
1.6053
1.7021
1.7377
1.7148
1.6231
1.4881
1.3327
1.1748
1.0067
0.86658
0.73158
0.62205
0.5278
0.45902
0.40043
0.35713
0.31638
0.30364
0.28071
0.27817
0.26543
0.27307
0.27052
0.27562
0.296
0.30619
0.31638
0.33421
0.34694
0.34949
0.36987
0.38515
0.40298
0.42081
0.4361
0.46921
0.5227
0.62969
0.78507
0.99904
1.2232
1.4321
1.6027
1.7174
1.7709
1.7658
1.6792
1.562
1.4117
1.2461
1.0729
0.91753
0.78252
0.65261
0.56346
0.4794
0.41062
0.37241
0.33675
0.30364
0.296
0.26798
0.27817
0.26543
0.27562
0.28326
0.29345
0.30619
0.32147
0.32402
0.34185
0.35458
0.37496
0.38515
0.39789
0.41827
0.4361
0.46412
0.51506
0.60422
0.77488
0.97866
1.2105
1.4321
1.6053
1.7428
1.8142
1.8218
1.753
1.6511
1.4983
1.3174
1.1417
0.97612
0.81819
0.68318
0.58129
0.48959
0.40043
0.34185
0.30109
0.26288
0.23996
0.23232
0.21958
0.22213
0.22213
0.23741
0.24505
0.25779
0.26543
0.29345
0.30619
0.32147
0.33675
0.36223
0.37496
0.39279
0.41827
0.43864
0.48195
0.5711
0.71884
0.90989
1.157
1.376
1.5722
1.7123
1.804
1.8116
1.7632
1.6664
1.5187
1.3506
1.1824
1.0067
0.85385
0.70865
0.58893
0.49468
0.41827
0.35713
0.30364
0.27562
0.25015
0.24505
0.22977
0.22722
0.22467
0.22722
0.23996
0.25524
0.26543
0.28581
0.30109
0.30873
0.32656
0.34185
0.35968
0.37241
0.40298
0.42336
0.45902
0.53289
0.64752
0.82583
1.0322
1.2487
1.4372
1.5849
1.6715
1.6995
1.6511
1.5594
1.4168
1.269
1.1086
0.95064
0.81564
0.69846
0.59148
0.50997
0.42845
0.37751
0.34439
0.31383
0.296
0.28071
0.27562
0.27562
0.28071
0.28581
0.28836
0.30364
0.31128
0.32911
0.35204
0.36732
0.3826
0.39789
0.40808
0.42336
0.44374
0.46412
0.52016
0.62205
0.76979
0.97102
1.2003
1.4168
1.5976
1.7352
1.8014
1.8091
1.7505
1.6308
1.4856
1.3174
1.1417
0.98121
0.82328
0.69337
0.58893
0.49723
0.41827
0.36477
0.32147
0.296
0.27562
0.2476
0.23996
0.2425
0.24505
0.25015
0.26543
0.27052
0.28581
0.28836
0.31128
0.32911
0.3393
0.35968
0.3826
0.39279
0.42081
0.46157
0.53544
0.67809
0.87932
1.1086
1.3506
1.5543
1.7021
1.8014
1.8422
1.8091
1.725
1.59
1.4244
1.241
1.0602
0.89206
0.73922
0.6144
0.50742
0.41827
0.34694
0.29854
0.25269
0.22213
0.2043
0.18901
0.1992
0.19156
0.20175
0.2043
0.21448
0.22977
0.25524
0.26034
0.27562
0.29345
0.31892
0.34185
0.35458
0.38515
0.42591
0.50232
0.63478
0.83602
1.0831
1.3174
1.5314
1.6893
1.804
1.8524
1.8422
1.7658
1.6308
1.4754
1.2818
1.1009
0.92517
0.77233
0.6195
0.50232
0.41062
0.33675
0.27562
0.22722
0.2043
0.17628
0.17118
0.16609
0.16354
0.17882
0.18137
0.2043
0.21448
0.22977
0.24505
0.26543
0.2909
0.30364
0.31383
0.33421
0.36732
0.39534
0.4794
0.59912
0.79017
1.0449
1.3022
1.5212
1.7225
1.86
1.9441
1.9492
1.9135
1.804
1.6409
1.455
1.2563
1.0576
0.88951
0.71629
0.57874
0.46921
0.37496
0.30109
0.24505
0.20684
0.17373
0.15844
0.14061
0.13807
0.14316
0.13552
0.1508
0.16354
0.17628
0.19665
0.20939
0.22467
0.2476
0.27052
0.30364
0.32147
0.33421
0.3826
0.45138
0.5762
0.76979
0.98885
1.2334
1.4423
1.6104
1.7301
1.781
1.7632
1.6792
1.5492
1.3913
1.2105
1.0423
0.87677
0.71629
0.58893
0.48704
0.40553
0.32911
0.28071
0.24505
0.20939
0.20175
0.18137
0.18646
0.18392
0.1992
0.21194
0.22213
0.23741
0.25779
0.27307
0.2909
0.31128
0.32656
0.34439
0.36477
0.3826
0.41317
0.46157
0.55327
0.70101
0.90989
1.1519
1.376
1.5696
1.7046
1.7912
1.7912
1.7403
1.618
1.483
1.3047
1.1417
0.96083
0.81564
0.68063
0.5711
0.47176
0.40298
0.33675
0.30109
0.26034
0.24505
0.23741
0.21703
0.22722
0.22213
0.22722
0.22977
0.25524
0.26288
0.27562
0.296
0.30619
0.33166
0.34185
0.36732
0.39279
0.40553
0.45138
0.53034
0.67044
0.87168
1.1111
1.3506
1.562
1.7148
1.8193
1.86
1.8396
1.753
1.6078
1.4448
1.2589
1.0806
0.90734
0.74941
0.62714
0.50997
0.42336
0.35713
0.30619
0.26543
0.23232
0.20684
0.2043
0.2043
0.19411
0.20939
0.2043
0.22467
0.23486
0.25015
0.26543
0.28071
0.2909
0.31638
0.34185
0.35204
0.36732
0.39789
0.44374
0.55836
0.71884
0.94555
1.2003
1.4295
1.6308
1.7938
1.8778
1.911
1.8728
1.7734
1.6308
1.4575
1.264
1.0755
0.8946
0.73667
0.59912
0.48959
0.38515
0.31128
0.26543
0.21448
0.18137
0.16099
0.15335
0.14316
0.15844
0.16099
0.17118
0.18137
0.19411
0.22467
0.24505
0.25779
0.28071
0.30364
0.31638
0.3393
0.36223
0.3877
0.42845
0.52016
0.67809
0.89206
1.1239
1.3658
1.5696
1.7199
1.8091
1.8193
1.7836
1.6817
1.5391
1.3582
1.1799
1.0041
0.83347
0.69592
0.5711
0.48195
0.39534
0.32656
0.2909
0.2476
0.22467
0.20939
0.2043
0.20175
0.1992
0.20684
0.21958
0.21958
0.24505
0.25524
0.27307
0.296
0.30619
0.32656
0.33421
0.35204
0.3826
0.41572
0.4794
0.58638
0.7545
0.99395
1.2308
1.4474
1.6359
1.7556
1.8193
1.8269
1.7607
1.6486
1.4856
1.3073
1.1188
0.95574
0.79781
0.6628
0.54053
0.45393
0.38515
0.32402
0.28071
0.25015
0.23232
0.21448
0.21194
0.20175
0.2043
0.21958
0.23486
0.23741
0.25779
0.27052
0.28836
0.30619
0.32402
0.3393
0.36223
0.3826
0.41062
0.45138
0.53799
0.69846
0.90734
1.1519
1.399
1.6104
1.7683
1.8778
1.9161
1.9059
1.8244
1.6843
1.5085
1.3251
1.134
0.95828
0.78507
0.63224
0.51761
0.41827
0.3393
0.27307
0.21703
0.18392
0.16099
0.1508
0.1508
0.1559
0.16609
0.16863
0.18137
0.19156
0.21194
0.22467
0.25015
0.27307
0.28836
0.296
0.32402
0.34694
0.38006
0.44629
0.5711
0.76724
1.0118
1.2716
1.5161
1.7097
1.8651
1.939
1.967
1.9313
1.8142
1.6715
1.4805
1.2869
1.0806
0.89206
0.72903
0.58638
0.46412
0.35968
0.27817
0.22213
0.17373
0.13552
0.1075
0.10495
0.10495
0.11005
0.10495
0.12024
0.14316
0.14571
0.16863
0.20175
0.21194
0.23996
0.27052
0.29345
0.31638
0.3393
0.37751
0.44629
0.58129
0.78762
1.0398
1.3022
1.5416
1.7327
1.8677
1.9517
1.9772
1.9288
1.8142
1.6639
1.4677
1.264
1.0627
0.87422
0.7112
0.56346
0.43864
0.34439
0.26543
0.20175
0.16099
0.13297
0.10241
0.099858
0.10241
0.097311
0.11005
0.12278
0.13043
0.1559
0.16609
0.18392
0.1992
0.21703
0.2425
0.27307
0.28836
0.30873
0.34949
0.40808
0.53034
0.71375
0.95828
1.2054
1.4346
1.6308
1.7556
1.8422
1.8473
1.7887
1.6817
1.534
1.348
1.157
0.97866
0.81309
0.67299
0.54818
0.4361
0.36732
0.2909
0.25269
0.2043
0.18901
0.17628
0.16863
0.16863
0.18137
0.18137
0.20175
0.21958
0.24505
0.26543
0.28581
0.30873
0.32402
0.35204
0.37241
0.39279
0.42591
0.46412
0.55836
0.72903
0.9481
1.2079
1.4677
1.6868
1.8549
1.9797
2.0332
2.0256
1.9415
1.8065
1.6359
1.4219
1.2232
1.0271
0.83092
0.67044
0.53289
0.41827
0.32911
0.25015
0.19665
0.15335
0.12533
0.1075
0.099858
0.10241
0.097311
0.11259
0.11769
0.13043
0.14316
0.16609
0.18392
0.1992
0.22467
0.23996
0.27052
0.28836
0.31892
0.35713
0.44374
0.58129
0.79781
1.0551
1.3047
1.5365
1.7174
1.8524
1.9084
1.9008
1.832
1.7148
1.5467
1.3531
1.157
0.97612
0.8029
0.64497
0.51761
0.42336
0.32911
0.27307
0.22213
0.18137
0.1508
0.14571
0.13297
0.13043
0.13043
0.14061
0.15844
0.17118
0.18901
0.21448
0.22977
0.25015
0.26798
0.296
0.30364
0.32656
0.34949
0.38515
0.44374
0.54818
0.71884
0.9481
1.1901
1.399
1.5875
1.7072
1.7709
1.7556
1.6919
1.5645
1.4142
1.2334
1.0678
0.90479
0.7596
0.62714
0.51506
0.431
0.36477
0.31383
0.26543
0.25015
0.22467
0.20684
0.21194
0.20175
0.21703
0.21448
0.22977
0.24505
0.26034
0.27562
0.28326
0.30873
0.32402
0.3393
0.36477
0.3826
0.40298
0.4361
0.4794
0.55072
0.68573
0.87932
1.1035
1.3124
1.5009
1.6155
1.6919
1.6919
1.6206
1.5238
1.3786
1.2105
1.0551
0.91243
0.77233
0.66535
0.57365
0.49468
0.42591
0.37751
0.3393
0.30364
0.29345
0.27562
0.27562
0.27052
0.28581
0.28836
0.2909
0.31383
0.32402
0.33675
0.34439
0.36477
0.37241
0.39279
0.41317
0.42591
0.44883
0.46666
0.50997
0.58129
0.71629
0.90224
1.1366
1.3404
1.5289
1.6715
1.7428
1.7403
1.6893
1.5976
1.4423
1.292
1.129
0.97866
0.83092
0.70865
0.60422
0.52016
0.45393
0.39789
0.34439
0.32402
0.30109
0.28581
0.27817
0.27307
0.27562
0.28071
0.28836
0.296
0.30619
0.32147
0.32911
0.35204
0.36987
0.38515
0.40043
0.42591
0.43864
0.46666
0.49723
0.58129
0.70865
0.88441
1.106
1.3149
1.511
1.6409
1.7352
1.7479
1.697
1.5951
1.4601
1.3022
1.1442
0.98121
0.84111
0.71375
0.6144
0.52016
0.45393
0.39279
0.35204
0.32911
0.30109
0.28071
0.27052
0.27817
0.27307
0.27307
0.28071
0.296
0.30619
0.31892
0.33166
0.34185
0.36732
0.37496
0.39789
0.40808
0.42591
0.44374
0.47685
0.54308
0.65516
0.82583
1.0296
1.2461
1.4423
1.5798
1.669
1.6817
1.6435
1.5543
1.4295
1.2741
1.1111
0.97612
0.83347
0.71375
0.6144
0.5227
0.45647
0.40298
0.36477
0.33421
0.31128
0.2909
0.28836
0.28581
0.28326
0.28071
0.296
0.30619
0.32402
0.32656
0.35458
0.36987
0.3826
0.39534
0.41572
0.431
0.43864
0.46412
0.48959
0.55582
0.6679
0.8462
1.0551
1.2716
1.4805
1.6282
1.7097
1.7428
1.7123
1.618
1.4907
1.3251
1.1799
1.0092
0.87932
0.7545
0.64242
0.55072
0.47176
0.40043
0.35968
0.32147
0.29854
0.27307
0.26798
0.26288
0.26288
0.26543
0.26798
0.28326
0.29345
0.30873
0.31638
0.34439
0.34694
0.36987
0.3877
0.40808
0.42336
0.44374
0.46412
0.53034
0.63733
0.81564
1.0296
1.2512
1.4499
1.6002
1.6944
1.7199
1.6843
1.5875
1.4652
1.3124
1.1519
0.99904
0.86149
0.72139
0.61695
0.53544
0.45138
0.40553
0.35458
0.31892
0.296
0.28071
0.27307
0.26798
0.27052
0.27052
0.28836
0.29345
0.296
0.30619
0.32147
0.34439
0.35458
0.37751
0.3877
0.40298
0.41572
0.43355
0.46921
0.52525
0.61695
0.76724
0.95828
1.185
1.3735
1.5187
1.6206
1.6409
1.6104
1.5238
1.4117
1.264
1.1111
0.96338
0.83856
0.72394
0.61695
0.54053
0.4794
0.42591
0.3826
0.35968
0.32911
0.31638
0.30364
0.30619
0.31383
0.31383
0.32402
0.32147
0.34185
0.34949
0.35458
0.36987
0.38515
0.39025
0.40808
0.42845
0.4361
0.45647
0.48959
0.55072
0.67299
0.82583
1.0322
1.2512
1.4346
1.5798
1.6613
1.6792
1.6257
1.5238
1.399
1.2436
1.0984
0.95064
0.82583
0.70356
0.61186
0.53544
0.46412
0.41062
0.3826
0.35458
0.33166
0.30619
0.31128
0.31128
0.30619
0.30619
0.32402
0.32656
0.33421
0.34949
0.35968
0.36732
0.3877
0.39534
0.40808
0.42336
0.44883
0.46921
0.50487
0.59657
0.72648
0.91243
1.1264
1.3404
1.5161
1.646
1.7123
1.7046
1.6562
1.5518
1.4142
1.264
1.0958
0.9481
0.82073
0.69592
0.59148
0.50997
0.43864
0.3877
0.34185
0.31638
0.29854
0.28581
0.26798
0.26798
0.26798
0.27307
0.28326
0.296
0.30109
0.30873
0.32911
0.33421
0.36223
0.37241
0.39534
0.40808
0.431
0.46921
0.53034
0.63988
0.81309
1.0398
1.2614
1.4677
1.6359
1.7454
1.7963
1.7709
1.6893
1.562
1.4117
1.2359
1.0729
0.91753
0.78507
0.65771
0.55836
0.46666
0.39789
0.35204
0.31383
0.28581
0.26798
0.25015
0.2425
0.2476
0.2476
0.25524
0.26543
0.26798
0.2909
0.30364
0.30619
0.32656
0.34949
0.35458
0.37751
0.40043
0.41827
0.47685
0.55836
0.69846
0.90224
1.1188
1.3404
1.5263
1.6639
1.7301
1.7352
1.6792
1.5543
1.4193
1.2512
1.0831
0.92772
0.79017
0.6679
0.55836
0.4794
0.40043
0.36223
0.31638
0.28326
0.27307
0.26288
0.26798
0.25524
0.26288
0.26798
0.28071
0.28581
0.29854
0.31128
0.32147
0.34439
0.34949
0.36223
0.37496
0.3877
0.41572
0.431
0.49468
0.59657
0.76469
0.97612
1.185
1.376
1.5314
1.6409
1.6613
1.6359
1.5569
1.4219
1.2767
1.1086
0.96847
0.81564
0.70356
0.58893
0.49978
0.4361
0.3826
0.3393
0.31383
0.27562
0.27052
0.26798
0.26288
0.26543
0.26543
0.27817
0.28581
0.296
0.30873
0.31638
0.3393
0.34949
0.36732
0.39025
0.41062
0.42845
0.47176
0.53034
0.63733
0.80545
1.0143
1.2538
1.455
1.6409
1.7428
1.7912
1.7785
1.7097
1.5747
1.427
1.2589
1.0907
0.93281
0.79017
0.6679
0.55072
0.46921
0.40043
0.35204
0.31383
0.28326
0.26288
0.23996
0.23741
0.24505
0.23486
0.2476
0.2476
0.26798
0.28836
0.2909
0.31383
0.33675
0.3393
0.36477
0.37751
0.39789
0.42591
0.4794
0.58638
0.74177
0.96338
1.1977
1.4372
1.6231
1.753
1.8371
1.8371
1.7836
1.6741
1.5136
1.3455
1.157
0.98121
0.82583
0.68063
0.55836
0.46412
0.37241
0.30619
0.26798
0.23741
0.20939
0.19665
0.18137
0.19156
0.18137
0.19665
0.20684
0.21958
0.22722
0.24505
0.26034
0.28836
0.30109
0.32402
0.34694
0.36477
0.3877
0.42591
0.49214
0.61695
0.79781
1.0169
1.2487
1.4626
1.6257
1.7352
1.7683
1.7428
1.6562
1.5187
1.3658
1.1977
1.0296
0.87422
0.73413
0.61695
0.51506
0.42591
0.36477
0.32656
0.28071
0.26288
0.23996
0.24505
0.23741
0.23741
0.23741
0.25269
0.26288
0.28071
0.28836
0.30364
0.31892
0.33421
0.34439
0.36987
0.39025
0.40553
0.431
0.47431
0.55582
0.69082
0.8946
1.1111
1.3327
1.5238
1.6613
1.7327
1.7377
1.6792
1.5645
1.4142
1.2461
1.0882
0.92262
0.79017
0.67044
0.56091
0.47685
0.40043
0.34694
0.31383
0.28581
0.27562
0.25779
0.24505
0.26034
0.25779
0.26543
0.27307
0.28581
0.29345
0.31383
0.32911
0.34185
0.35204
0.36477
0.3826
0.40298
0.42591
0.45138
0.50997
0.6195
0.80035
1.0118
1.2436
1.4525
1.6206
1.7377
1.7734
1.7556
1.669
1.5391
1.3811
1.2156
1.0449
0.88441
0.74431
0.62205
0.51506
0.431
0.36477
0.30873
0.28836
0.25524
0.24505
0.22213
0.21958
0.22467
0.23232
0.23996
0.25524
0.26543
0.28836
0.30364
0.33421
0.34949
0.36732
0.3877
0.40808
0.431
0.45393
0.48959
0.58384
0.74431
0.9481
1.1824
1.4219
1.6206
1.7683
1.8498
1.8702
1.832
1.7225
1.5747
1.4015
1.2207
1.0296
0.86404
0.71629
0.59403
0.49723
0.40553
0.33675
0.28836
0.25269
0.20939
0.19411
0.19665
0.18901
0.19156
0.19411
0.1992
0.21958
0.22722
0.2425
0.2476
0.27307
0.2909
0.30364
0.32656
0.34185
0.36987
0.41062
0.46157
0.55582
0.71629
0.91753
1.1315
1.348
1.5136
1.6257
1.6792
1.646
1.5798
1.4626
1.3174
1.1493
0.99904
0.85639
0.72139
0.61695
0.51251
0.44374
0.3826
0.34185
0.30873
0.28071
0.26543
0.26798
0.26034
0.26543
0.26543
0.27052
0.27562
0.28326
0.30364
0.31128
0.33421
0.35458
0.35968
0.37496
0.40043
0.42591
0.44883
0.48195
0.5278
0.63733
0.78762
0.97866
1.1824
1.3557
1.4958
1.5722
1.5798
1.5391
1.4474
1.3149
1.1824
1.0372
0.90479
0.78507
0.69592
0.60931
0.53034
0.4794
0.431
0.39025
0.37241
0.34694
0.34439
0.32911
0.32656
0.34185
0.34949
0.34949
0.35204
0.36987
0.38515
0.38515
0.41062
0.42336
0.43864
0.44883
0.46157
0.47176
0.50997
0.56601
0.68063
0.8462
1.0678
1.2767
1.4652
1.618
1.7072
1.7352
1.6944
1.6053
1.4652
1.32
1.1595
0.99904
0.85639
0.73667
0.62969
0.53799
0.45902
0.41317
0.36732
0.33421
0.30619
0.296
0.28836
0.28836
0.28071
0.28326
0.296
0.30364
0.31383
0.33421
0.35204
0.36987
0.38006
0.39534
0.40808
0.42591
0.43864
0.47685
0.54308
0.6628
0.85639
1.0831
1.3073
1.5009
1.6562
1.7505
1.7709
1.7352
1.6409
1.5034
1.3531
1.1824
1.0169
0.86913
0.73413
0.60931
0.51761
0.44629
0.37496
0.32656
0.2909
0.26543
0.23996
0.23486
0.23486
0.22977
0.23486
0.2476
0.25015
0.26543
0.27562
0.28326
0.30364
0.31383
0.34185
0.35713
0.38006
0.39534
0.44374
0.50997
0.65771
0.85639
1.078
1.3225
1.5263
1.6919
1.7861
1.8269
1.7938
1.7072
1.5747
1.4168
1.2461
1.0576
0.89715
0.75196
0.62969
0.51761
0.42591
0.35713
0.296
0.26034
0.22722
0.20684
0.20684
0.19411
0.1992
0.19665
0.1992
0.21958
0.22213
0.2476
0.25779
0.28836
0.30109
0.31892
0.3393
0.35968
0.3877
0.42845
0.49214
0.59912
0.78252
1.0067
1.2257
1.427
1.5849
1.6868
1.7174
1.697
1.6104
1.4728
1.3276
1.157
0.99904
0.85385
0.72139
0.61695
0.52016
0.44629
0.39025
0.33675
0.29345
0.26798
0.25524
0.24505
0.23996
0.25015
0.2476
0.2476
0.26288
0.28071
0.28581
0.30619
0.32402
0.33675
0.34949
0.37241
0.3877
0.41572
0.46921
0.53799
0.69592
0.88951
1.1162
1.3378
1.5161
1.6511
1.7276
1.7327
1.6715
1.5671
1.4193
1.2614
1.0958
0.93536
0.79781
0.67044
0.5711
0.48959
0.41827
0.35713
0.31638
0.28581
0.26543
0.25015
0.24505
0.24505
0.25015
0.2476
0.26543
0.26798
0.28326
0.30364
0.31638
0.3393
0.35458
0.37751
0.39534
0.42591
0.45902
0.54563
0.68827
0.88441
1.1264
1.348
1.5518
1.6995
1.7887
1.8091
1.7734
1.6817
1.5492
1.3735
1.2003
1.0296
0.87422
0.72648
0.59912
0.49214
0.41572
0.34949
0.29345
0.26034
0.22977
0.21448
0.20684
0.20175
0.2043
0.20175
0.22213
0.23232
0.24505
0.26034
0.26288
0.28326
0.30619
0.31383
0.3393
0.35713
0.39789
0.46412
0.57874
0.76724
1.0143
1.264
1.4805
1.6562
1.7836
1.8371
1.8498
1.7683
1.6486
1.4907
1.3225
1.1315
0.95828
0.79781
0.66026
0.54053
0.44119
0.35204
0.296
0.25269
0.21958
0.19156
0.18392
0.17118
0.17118
0.17628
0.18901
0.2043
0.20175
0.22977
0.23996
0.25524
0.28071
0.30109
0.30873
0.32911
0.36477
0.40808
0.49214
0.63733
0.83347
1.0627
1.2996
1.5059
1.6486
1.7479
1.7683
1.7301
1.6308
1.4907
1.3225
1.157
0.9863
0.81564
0.68318
0.56346
0.45902
0.3826
0.32656
0.27052
0.24505
0.22213
0.21194
0.2043
0.2043
0.21448
0.21958
0.22722
0.2425
0.26288
0.26543
0.29345
0.31128
0.32147
0.34439
0.36477
0.3877
0.41827
0.4794
0.57874
0.74941
0.97866
1.2105
1.4219
1.5951
1.7123
1.7556
1.753
1.6741
1.5442
1.3888
1.2232
1.0627
0.88951
0.75705
0.62459
0.53289
0.44883
0.3826
0.33166
0.296
0.27562
0.26034
0.25269
0.25015
0.25269
0.2476
0.26543
0.26798
0.28836
0.2909
0.31383
0.32911
0.34694
0.36732
0.37496
0.39789
0.43355
0.48704
0.59148
0.76469
0.98885
1.2257
1.4601
1.6588
1.8065
1.8728
1.8957
1.8396
1.7199
1.5569
1.3862
1.1926
1.0118
0.84875
0.69592
0.57365
0.47685
0.38515
0.32402
0.26543
0.22467
0.1992
0.18901
0.17882
0.17373
0.17628
0.17628
0.19156
0.19665
0.20684
0.22977
0.24505
0.25524
0.27817
0.28326
0.30873
0.32911
0.38515
0.46157
0.60676
0.82583
1.0755
1.3251
1.5289
1.697
1.8014
1.8447
1.8193
1.7454
1.6104
1.4397
1.2538
1.0678
0.88951
0.73413
0.59912
0.47685
0.37496
0.30109
0.2476
0.20684
0.17628
0.15335
0.15335
0.1508
0.15335
0.16354
0.17373
0.17628
0.19156
0.21448
0.23232
0.25015
0.26543
0.2909
0.31892
0.33675
0.37241
0.41062
0.50232
0.66026
0.88187
1.1391
1.3709
1.5747
1.7276
1.8193
1.8473
1.8014
1.7072
1.5645
1.3888
1.2079
1.0245
0.84366
0.69082
0.56346
0.46412
0.36987
0.31128
0.26034
0.22213
0.1992
0.18137
0.17628
0.17373
0.18392
0.18392
0.1992
0.2043
0.22722
0.2476
0.26034
0.28071
0.29854
0.31383
0.34694
0.36477
0.39279
0.44629
0.54053
0.69592
0.89715
1.1239
1.3557
1.5518
1.6766
1.7581
1.7556
1.6995
1.59
1.427
1.269
1.0933
0.92772
0.77488
0.65516
0.55072
0.46412
0.39789
0.33166
0.28836
0.26543
0.2476
0.23486
0.22467
0.23741
0.22722
0.23741
0.25015
0.26288
0.28071
0.28836
0.30109
0.30873
0.32656
0.35204
0.37496
0.40298
0.44119
0.51761
0.65261
0.8513
1.0806
1.3225
1.5365
1.7021
1.7963
1.8422
1.8142
1.7199
1.5824
1.4244
1.241
1.0602
0.89206
0.74431
0.60676
0.50487
0.41572
0.33675
0.2909
0.24505
0.22722
0.21194
0.19665
0.1992
0.1992
0.20684
0.21958
0.21958
0.23741
0.25524
0.27052
0.28836
0.31128
0.32402
0.34439
0.36223
0.39534
0.44883
0.55582
0.73158
0.96593
1.2232
1.4601
1.669
1.8091
1.8855
1.9237
1.8677
1.7632
1.6206
1.4372
1.2512
1.0602
0.88187
0.72139
0.5762
0.47176
0.37496
0.30109
0.2476
0.19411
0.17373
0.1559
0.13807
0.12533
0.12788
0.14316
0.1508
0.16099
0.18137
0.20175
0.22467
0.24505
0.25524
0.27817
0.30619
0.32656
0.35458
0.40808
0.51761
0.69082
0.93281
1.1875
1.4295
1.6435
1.7938
1.8931
1.9262
1.8931
1.7963
1.646
1.4677
1.2818
1.0907
0.90734
0.73667
0.59657
0.48449
0.38515
0.30109
0.23996
0.19411
0.16354
0.14061
0.12278
0.11514
0.12533
0.13043
0.14316
0.15335
0.16863
0.18392
0.2043
0.22213
0.23996
0.26543
0.27817
0.30619
0.32656
0.35713
0.40808
0.51761
0.68063
0.90734
1.1417
1.3735
1.5569
1.6817
1.7479
1.7403
1.6588
1.5365
1.3913
1.2232
1.0449
0.89715
0.7545
0.62714
0.52525
0.42845
0.36223
0.31638
0.27052
0.2476
0.23232
0.22213
0.22467
0.21194
0.22213
0.23232
0.2476
0.25269
0.27562
0.2909
0.30364
0.30873
0.32656
0.34949
0.36732
0.38515
0.42336
0.48704
0.59657
0.76979
0.99904
1.2308
1.4372
1.6257
1.7301
1.7785
1.7658
1.697
1.5773
1.4066
1.2538
1.0806
0.92517
0.78507
0.65771
0.55327
0.47685
0.40298
0.34694
0.31638
0.28071
0.25524
0.24505
0.2425
0.2425
0.2425
0.25015
0.26543
0.28071
0.30109
0.30873
0.32656
0.34694
0.35458
0.37751
0.39025
0.41827
0.46412
0.53544
0.67044
0.87168
1.1137
1.3506
1.5543
1.7199
1.8294
1.8651
1.8447
1.7505
1.6206
1.4397
1.2665
1.0806
0.90734
0.76215
0.62969
0.50487
0.41062
0.34694
0.28836
0.2425
0.22213
0.20175
0.19665
0.18901
0.18901
0.1992
0.2043
0.21448
0.23232
0.23996
0.25269
0.27817
0.28581
0.30873
0.32911
0.3393
0.36223
0.39789
0.47685
0.59912
0.79271
1.0296
1.2716
1.4958
1.6868
1.8014
1.8626
1.8524
1.7734
1.6435
1.4856
1.3073
1.1213
0.94555
0.79526
0.65007
0.53544
0.44629
0.36477
0.31638
0.27562
0.23996
0.21958
0.2043
0.20684
0.19665
0.20684
0.21703
0.22722
0.2425
0.2476
0.26288
0.2909
0.30109
0.31128
0.33421
0.35968
0.3826
0.41827
0.48449
0.60931
0.79526
1.0296
1.2741
1.4958
1.6868
1.8142
1.8677
1.8498
1.7836
1.6511
1.4728
1.2945
1.1137
0.92517
0.77488
0.63478
0.5227
0.431
0.34949
0.29854
0.25269
0.22722
0.20684
0.19156
0.18392
0.18392
0.19665
0.20175
0.21448
0.22977
0.24505
0.26288
0.27817
0.296
0.31383
0.33421
0.35968
0.37751
0.40553
0.48959
0.6144
0.8029
1.0296
1.264
1.4677
1.6308
1.7225
1.753
1.7148
1.6206
1.4779
1.3047
1.129
0.96847
0.81054
0.67809
0.56091
0.46157
0.3826
0.32911
0.28581
0.25524
0.23741
0.22213
0.21194
0.22213
0.21448
0.21958
0.23486
0.2425
0.25524
0.27307
0.296
0.31128
0.33166
0.34694
0.36223
0.38515
0.42336
0.47685
0.59148
0.77998
1.0041
1.2538
1.4805
1.6843
1.8116
1.8829
1.8804
1.8167
1.6944
1.534
1.348
1.1595
0.97102
0.80035
0.65516
0.52525
0.43355
0.34694
0.27562
0.23232
0.20175
0.17882
0.16099
0.16099
0.16099
0.1559
0.18137
0.19411
0.20939
0.22722
0.24505
0.26034
0.28071
0.30364
0.31892
0.34694
0.37751
0.42845
0.54308
0.70356
0.93026
1.185
1.4346
1.6511
1.8167
1.9033
1.9441
1.9135
1.8142
1.669
1.483
1.2818
1.0933
0.90224
0.73667
0.59148
0.46412
0.36732
0.28581
0.22467
0.18137
0.14826
0.12533
0.12278
0.12024
0.13043
0.13297
0.1508
0.16354
0.17882
0.1992
0.20684
0.23741
0.25015
0.26798
0.2909
0.31128
0.34949
0.41827
0.54818
0.74177
0.99649
1.2538
1.4958
1.6893
1.832
1.9135
1.9186
1.8549
1.7377
1.59
1.4015
1.2028
1.0092
0.82328
0.6679
0.53799
0.42081
0.33421
0.26288
0.21958
0.18646
0.16863
0.14826
0.14316
0.13552
0.15335
0.16099
0.16609
0.18646
0.18646
0.20939
0.22467
0.25015
0.26288
0.27562
0.31383
0.3393
0.36987
0.45647
0.60676
0.81564
1.0729
1.3251
1.5645
1.753
1.8804
1.939
1.9262
1.8524
1.7174
1.5365
1.3506
1.1493
0.96847
0.79526
0.63988
0.51251
0.41572
0.32402
0.26543
0.21448
0.17628
0.1508
0.13807
0.13297
0.13297
0.13297
0.14316
0.1508
0.16354
0.17373
0.19156
0.2043
0.22467
0.2425
0.28071
0.30109
0.32656
0.38006
0.48449
0.63733
0.87677
1.1366
1.3964
1.6104
1.7887
1.8906
1.9339
1.911
1.8218
1.6715
1.4958
1.2945
1.1009
0.90734
0.73158
0.59148
0.46666
0.36732
0.29345
0.21958
0.18137
0.14571
0.12533
0.12278
0.12533
0.13043
0.13297
0.14316
0.1559
0.17373
0.18901
0.21448
0.23486
0.2476
0.26543
0.29345
0.30873
0.34439
0.41062
0.53544
0.72139
0.97866
1.2436
1.4958
1.7123
1.8778
1.9823
2.0307
1.9976
1.8931
1.7403
1.5442
1.3404
1.1239
0.93791
0.74431
0.60167
0.46921
0.36223
0.27817
0.20684
0.16099
0.12533
0.10241
0.082027
0.084574
0.082027
0.084574
0.094763
0.10495
0.13043
0.14316
0.15844
0.18646
0.2043
0.23486
0.25269
0.27817
0.31128
0.35204
0.4361
0.59148
0.82583
1.0907
1.348
1.5875
1.7658
1.8855
1.9466
1.9364
1.8549
1.7123
1.534
1.3378
1.1315
0.94555
0.76469
0.62459
0.49214
0.39534
0.29854
0.24505
0.18646
0.15844
0.13807
0.12024
0.11769
0.1075
0.11259
0.13043
0.14826
0.16099
0.17882
0.1992
0.21448
0.23996
0.25524
0.28326
0.30873
0.32147
0.36732
0.44374
0.58129
0.77998
1.0296
1.2869
1.5085
1.6868
1.8142
1.8626
1.8396
1.7403
1.6104
1.4346
1.2487
1.0576
0.88951
0.73158
0.59657
0.4794
0.39534
0.32402
0.27052
0.22467
0.20175
0.17882
0.17628
0.17882
0.17628
0.18901
0.19411
0.2043
0.21448
0.23486
0.25524
0.26543
0.2909
0.30873
0.32656
0.35204
0.38006
0.42336
0.51251
0.65516
0.87422
1.1442
1.3964
1.618
1.7989
1.9211
1.9721
1.9568
1.8728
1.725
1.5594
1.3658
1.1697
0.97866
0.80545
0.65261
0.53034
0.431
0.3393
0.28071
0.22213
0.19411
0.17118
0.14316
0.13552
0.13552
0.14571
0.16099
0.16099
0.17118
0.20175
0.21194
0.22467
0.2425
0.26798
0.28326
0.31383
0.34185
0.3826
0.4794
0.63224
0.87422
1.1417
1.4066
1.6486
1.8269
1.9645
2.0307
2.0281
1.967
1.8269
1.6664
1.455
1.2436
1.0449
0.85385
0.67809
0.5278
0.41827
0.31128
0.23996
0.17118
0.12024
0.097311
0.07948
0.061649
0.061649
0.064196
0.064196
0.07948
0.092216
0.12024
0.13297
0.15335
0.17628
0.19665
0.21958
0.24505
0.27307
0.30873
0.36987
0.49214
0.67554
0.92262
1.1926
1.4397
1.6486
1.7938
1.8829
1.9008
1.8626
1.7581
1.5976
1.4066
1.2181
1.0296
0.8513
0.68573
0.55072
0.4361
0.3393
0.26543
0.21194
0.17373
0.14826
0.13807
0.12278
0.11259
0.12278
0.13552
0.15335
0.16863
0.18646
0.1992
0.21703
0.24505
0.26034
0.28326
0.30109
0.33166
0.36477
0.43864
0.56855
0.7545
1.0067
1.2792
1.5136
1.7123
1.8473
1.9313
1.9339
1.8778
1.7709
1.6053
1.4168
1.2283
1.0296
0.8462
0.69846
0.56346
0.45138
0.35968
0.296
0.23232
0.19411
0.16354
0.14061
0.14061
0.13807
0.14571
0.15844
0.16609
0.18392
0.19156
0.21958
0.23741
0.24505
0.27052
0.296
0.31128
0.33675
0.38006
0.44883
0.58384
0.80545
1.0627
1.3225
1.5722
1.7734
1.9237
2.0001
2.0078
1.9441
1.8269
1.6715
1.4779
1.2767
1.0704
0.87168
0.70611
0.56091
0.431
0.33166
0.2425
0.18646
0.13807
0.099858
0.07948
0.076933
0.07948
0.074385
0.082027
0.099858
0.12278
0.13297
0.1559
0.17882
0.20684
0.22722
0.25524
0.27562
0.296
0.32402
0.39789
0.53289
0.73413
0.98885
1.264
1.5059
1.7123
1.8702
1.9543
1.9848
1.9364
1.8218
1.6715
1.483
1.2767
1.078
0.87932
0.7112
0.55836
0.43864
0.33166
0.26288
0.19156
0.14826
0.11005
0.094763
0.082027
0.087122
0.089669
0.092216
0.10241
0.12024
0.13297
0.1508
0.17882
0.20175
0.22722
0.2476
0.27307
0.30109
0.33421
0.3877
0.49214
0.66026
0.89715
1.1493
1.399
1.6155
1.7607
1.8651
1.8804
1.8498
1.7479
1.5976
1.4066
1.2232
1.0322
0.86658
0.70356
0.5762
0.46666
0.36987
0.296
0.23996
0.20175
0.18392
0.16354
0.14571
0.1508
0.16099
0.16354
0.16863
0.19156
0.2043
0.22213
0.2425
0.26543
0.28326
0.30109
0.32147
0.34694
0.38515
0.44374
0.55582
0.73413
0.98121
1.241
1.4856
1.6843
1.8345
1.9262
1.9441
1.9084
1.7836
1.6359
1.4474
1.2538
1.0678
0.89715
0.73158
0.59912
0.4794
0.38006
0.30364
0.2476
0.20175
0.16354
0.1508
0.13552
0.13297
0.13297
0.14316
0.14316
0.16354
0.17882
0.20175
0.20939
0.23996
0.25779
0.26543
0.296
0.31638
0.36223
0.42081
0.53799
0.73667
0.98376
1.2385
1.4907
1.7021
1.8524
1.9492
1.9645
1.9161
1.8065
1.6486
1.4626
1.2665
1.0551
0.88441
0.71375
0.5711
0.45902
0.35713
0.27817
0.22213
0.17373
0.14316
0.12024
0.11259
0.11005
0.11769
0.12278
0.14061
0.15335
0.17373
0.19156
0.21194
0.22467
0.24505
0.26798
0.30109
0.32656
0.34949
0.41062
0.52016
0.69592
0.93281
1.1926
1.4397
1.6359
1.7938
1.8804
1.8982
1.8575
1.7377
1.5798
1.4041
1.213
1.0271
0.85385
0.69846
0.57365
0.46666
0.37751
0.30619
0.24505
0.2043
0.18646
0.16354
0.15335
0.15844
0.1559
0.16609
0.16863
0.19156
0.21703
0.22722
0.24505
0.27052
0.28326
0.30619
0.32147
0.3393
0.37751
0.45393
0.59148
0.81054
1.0576
1.3149
1.5492
1.7352
1.8753
1.939
1.9364
1.8677
1.7581
1.5875
1.3964
1.2054
1.0143
0.83856
0.67044
0.55072
0.4361
0.34694
0.27052
0.21448
0.18137
0.15844
0.13552
0.12024
0.11769
0.13297
0.13552
0.14571
0.16099
0.17118
0.18901
0.21448
0.23996
0.26543
0.28326
0.30619
0.33166
0.39279
0.49468
0.68063
0.92772
1.2003
1.4601
1.6766
1.86
1.9746
2.0179
1.9976
1.9059
1.7581
1.5773
1.3658
1.1723
0.96847
0.78507
0.62205
0.49978
0.37751
0.28581
0.21194
0.15844
0.12024
0.092216
0.07948
0.069291
0.069291
0.07948
0.076933
0.10241
0.11769
0.13043
0.14316
0.17882
0.20175
0.21194
0.24505
0.26543
0.30619
0.36732
0.48449
0.6628
0.92262
1.1977
1.4474
1.6664
1.8371
1.939
1.9746
1.9415
1.8524
1.7021
1.5136
1.3047
1.1009
0.91243
0.73922
0.59403
0.46666
0.35458
0.27562
0.2043
0.16354
0.13043
0.11259
0.097311
0.092216
0.097311
0.10495
0.11769
0.13297
0.13807
0.15844
0.17373
0.20175
0.22213
0.24505
0.26798
0.296
0.34185
0.41827
0.55836
0.76215
1.0092
1.264
1.4932
1.6817
1.8218
1.8778
1.8778
1.804
1.6613
1.4958
1.3098
1.1213
0.9481
0.76724
0.62969
0.51506
0.40298
0.32656
0.26543
0.21958
0.17628
0.16609
0.15335
0.14316
0.13807
0.14571
0.14826
0.17628
0.19411
0.1992
0.22467
0.23486
0.26798
0.28836
0.30873
0.33421
0.36732
0.42591
0.55072
0.7596
1.0194
1.2869
1.5289
1.7454
1.9033
2.0027
2.0179
1.9797
1.8728
1.7225
1.5212
1.3251
1.1213
0.92772
0.74431
0.60167
0.45902
0.34949
0.27562
0.20684
0.1559
0.12024
0.092216
0.087122
0.082027
0.087122
0.089669
0.092216
0.11005
0.13297
0.1508
0.17373
0.18137
0.21194
0.23486
0.25524
0.29345
0.35458
0.45902
0.64242
0.90989
1.1799
1.455
1.6944
1.8804
2.0078
2.074
2.0638
1.9848
1.8524
1.6715
1.4601
1.2461
1.0322
0.82583
0.64752
0.48959
0.37496
0.26034
0.17882
0.13043
0.07948
0.046366
0.020893
0.025987
0.020893
0.025987
0.028535
0.059102
0.071838
0.089669
0.11005
0.13552
0.1508
0.18137
0.20684
0.23232
0.27817
0.35204
0.46921
0.68318
0.94555
1.213
1.4728
1.6893
1.8422
1.9415
1.967
1.9262
1.8193
1.6715
1.4728
1.2767
1.0831
0.88441
0.71375
0.56855
0.44374
0.34439
0.26034
0.2043
0.1508
0.12533
0.10495
0.092216
0.084574
0.07948
0.089669
0.10495
0.12278
0.13552
0.16099
0.18137
0.20175
0.22467
0.2476
0.26543
0.31128
0.36477
0.46666
0.62714
0.87422
1.134
1.3913
1.6206
1.7912
1.9008
1.9517
1.9339
1.8396
1.6995
1.5187
1.32
1.1162
0.93791
0.76979
0.61695
0.48195
0.37241
0.28836
0.22977
0.17373
0.13807
0.12278
0.10495
0.099858
0.11514
0.11769
0.12788
0.13807
0.16354
0.17628
0.19665
0.21448
0.23996
0.25269
0.27562
0.30364
0.36223
0.46412
0.65261
0.89715
1.1672
1.4372
1.6766
1.8626
2.0027
2.0765
2.0663
1.995
1.8702
1.6868
1.4754
1.2665
1.0525
0.8513
0.68063
0.5278
0.40043
0.296
0.22467
0.16354
0.11514
0.07948
0.054007
0.043818
0.043818
0.041271
0.048913
0.061649
0.074385
0.092216
0.11259
0.13807
0.17118
0.19411
0.22213
0.23996
0.30109
0.3877
0.55072
0.8029
1.0806
1.3684
1.6308
1.8396
1.9925
2.0893
2.1147
2.0663
1.9441
1.7785
1.5773
1.3429
1.1239
0.91243
0.72903
0.56091
0.41317
0.30109
0.20939
0.13552
0.07948
0.038724
0.020893
0.0005149
0.0030622
0.0030622
0.0030622
0.025987
0.043818
0.056555
0.082027
0.10241
0.12024
0.15335
0.17373
0.20939
0.2476
0.31638
0.44374
0.64242
0.90989
1.2003
1.4525
1.6868
1.8677
1.967
2.0205
1.9848
1.8804
1.7352
1.5416
1.3276
1.1239
0.92008
0.72903
0.58129
0.44119
0.32911
0.23996
0.17628
0.11259
0.089669
0.059102
0.048913
0.043818
0.046366
0.05146
0.064196
0.076933
0.092216
0.12533
0.14571
0.17118
0.1992
0.21448
0.24505
0.28836
0.34185
0.46412
0.65261
0.91753
1.2003
1.4677
1.6919
1.8855
1.9976
2.0562
2.0358
1.9441
1.8065
1.6155
1.4066
1.185
0.98885
0.79271
0.62205
0.4794
0.35458
0.25779
0.19411
0.13297
0.092216
0.059102
0.048913
0.038724
0.038724
0.038724
0.05146
0.064196
0.092216
0.11259
0.13297
0.1508
0.17882
0.21194
0.22977
0.27562
0.32911
0.44119
0.64242
0.90734
1.1926
1.4626
1.7097
1.9211
2.0587
2.1249
2.1224
2.0536
1.9288
1.7403
1.5289
1.3047
1.0907
0.88187
0.69337
0.53799
0.40298
0.28836
0.19411
0.12533
0.07948
0.043818
0.02344
0.0030622
0.0005149
0.0030622
0.0056094
0.020893
0.036177
0.054007
0.082027
0.10495
0.11769
0.1559
0.17628
0.22213
0.28581
0.39279
0.59912
0.87677
1.1672
1.4474
1.7021
1.9211
2.0714
2.1631
2.1631
2.1096
1.9874
1.7938
1.5824
1.348
1.1137
0.88696
0.70101
0.5227
0.37496
0.25269
0.15335
0.092216
0.036177
-0.0096741
-0.030052
-0.045336
-0.058072
-0.047883
-0.042789
-0.024958
-0.017316
0.010704
0.038724
0.059102
0.087122
0.11259
0.13807
0.16609
0.21194
0.30364
0.47176
0.70611
0.99904
1.2843
1.5492
1.7734
1.9543
2.0587
2.0995
2.0587
1.9517
1.7887
1.5824
1.3582
1.1442
0.93536
0.73667
0.5762
0.4361
0.32402
0.22722
0.16099
0.1075
0.069291
0.043818
0.015798
0.025987
0.013251
0.036177
0.041271
0.056555
0.076933
0.097311
0.11005
0.13807
0.16099
0.1992
0.22213
0.26288
0.36223
0.53034
0.76215
1.0576
1.3455
1.5951
1.8269
1.9976
2.0893
2.1071
2.0663
1.9568
1.7912
1.5875
1.3658
1.1442
0.93536
0.74177
0.5762
0.42591
0.30873
0.21194
0.14061
0.097311
0.048913
0.028535
0.015798
0.0081567
0.0081567
0.0030622
0.020893
0.036177
0.056555
0.076933
0.092216
0.12278
0.14826
0.17882
0.21194
0.26543
0.37496
0.56601
0.83092
1.1366
1.4244
1.6893
1.9211
2.0944
2.181
2.2064
2.1708
2.0536
1.8753
1.669
1.4244
1.1901
0.96338
0.7545
0.5711
0.42336
0.29345
0.18137
0.10241
0.041271
-0.0071269
-0.037694
-0.055525
-0.063167
-0.060619
-0.060619
-0.058072
-0.032599
-0.017316
0.0030622
0.031082
0.05146
0.092216
0.11514
0.16099
0.20175
0.32402
0.51506
0.79271
1.1137
1.4142
1.6868
1.9237
2.1122
2.2217
2.2676
2.2294
2.1351
1.9619
1.7428
1.5009
1.2538
1.0143
0.78507
0.60167
0.431
0.29345
0.18137
0.084574
0.0081567
-0.040241
-0.065714
-0.086092
-0.098828
-0.10902
-0.096281
-0.086092
-0.068261
-0.042789
-0.019863
0.0005149
0.036177
0.059102
0.082027
0.12024
0.16354
0.26543
0.4361
0.68827
0.9863
1.292
1.5696
1.8065
1.9874
2.0995
2.1351
2.1071
1.995
1.8345
1.6308
1.3939
1.1672
0.943
0.73158
0.56091
0.40043
0.26798
0.17118
0.089669
0.031082
-0.0096741
-0.045336
-0.052978
-0.055525
-0.05043
-0.042789
-0.035147
-0.017316
-0.0020324
0.025987
0.059102
0.07948
0.10495
0.13552
0.16863
0.21958
0.31383
0.48704
0.74431
1.0423
1.3404
1.6257
1.8651
2.0434
2.1708
2.2243
2.2013
2.0995
1.9364
1.7327
1.5034
1.264
1.0322
0.81819
0.6195
0.45902
0.31638
0.21448
0.11259
0.059102
0.0081567
-0.037694
-0.045336
-0.060619
-0.060619
-0.052978
-0.042789
-0.035147
-0.012221
0.0005149
0.025987
0.059102
0.089669
0.12278
0.14571
0.19665
0.27817
0.44119
0.68573
0.97866
1.269
1.5594
1.8142
2.0103
2.1479
2.2294
2.209
2.1428
1.9823
1.7938
1.5543
1.3174
1.078
0.85894
0.64242
0.46921
0.31892
0.21194
0.11769
0.038724
-0.0096741
-0.060619
-0.07845
-0.093734
-0.088639
-0.083545
-0.070808
-0.060619
-0.042789
-0.02241
0.0005149
0.033629
0.056555
0.07948
0.11769
0.15335
0.2043
0.30364
0.4794
0.73158
1.0347
1.3327
1.6104
1.8422
2.0281
2.1428
2.1708
2.1275
2.0332
1.8575
1.6409
1.4168
1.1824
0.95828
0.76215
0.58384
0.4361
0.29854
0.2043
0.12788
0.069291
0.031082
-0.0020324
-0.027505
-0.02241
-0.019863
-0.019863
-0.0071269
0.0005149
0.031082
0.054007
0.076933
0.099858
0.12278
0.14571
0.17628
0.22213
0.28071
0.41062
0.61186
0.87932
1.1621
1.4448
1.6893
1.8855
2.023
2.0765
2.0791
1.995
1.8447
1.6537
1.4397
1.2156
0.9914
0.80035
0.62714
0.4794
0.35713
0.25015
0.18137
0.12533
0.082027
0.054007
0.02344
0.013251
0.020893
0.020893
0.038724
0.043818
0.069291
0.089669
0.10495
0.13552
0.1559
0.18646
0.20684
0.23996
0.296
0.3877
0.55072
0.78762
1.0755
1.3709
1.6333
1.8575
2.0256
2.1326
2.1555
2.1071
1.995
1.8345
1.6308
1.399
1.1621
0.95319
0.7596
0.58129
0.43355
0.30619
0.21194
0.13297
0.076933
0.028535
0.0081567
-0.0045796
-0.0045796
-0.0020324
0.0005149
0.010704
0.031082
0.046366
0.069291
0.084574
0.11514
0.14316
0.17118
0.19665
0.2425
0.30619
0.43864
0.63988
0.91243
1.213
1.4983
1.7454
1.9466
2.0893
2.1606
2.1682
2.0893
1.9466
1.7683
1.5391
1.2971
1.078
0.86149
0.6628
0.50487
0.35968
0.25524
0.16099
0.099858
0.041271
0.010704
-0.0096741
-0.02241
-0.030052
-0.019863
-0.0071269
0.0056094
0.028535
0.046366
0.069291
0.089669
0.12278
0.14316
0.16354
0.20175
0.2476
0.32147
0.44883
0.65771
0.92772
1.2181
1.4856
1.7199
1.8931
2.0078
2.0434
2.0256
1.9186
1.7658
1.5696
1.3455
1.1315
0.93536
0.74941
0.5762
0.44119
0.33675
0.23996
0.17628
0.13297
0.082027
0.056555
0.054007
0.048913
0.038724
0.059102
0.064196
0.082027
0.099858
0.12533
0.14826
0.16609
0.19411
0.21194
0.23996
0.26288
0.31128
0.41572
0.57874
0.82583
1.1035
1.3811
1.6486
1.8524
2.0128
2.0944
2.0969
2.0409
1.9084
1.7428
1.5289
1.3047
1.0907
0.88187
0.70611
0.54053
0.41062
0.31128
0.22213
0.16354
0.1075
0.082027
0.061649
0.05146
0.041271
0.041271
0.043818
0.061649
0.084574
0.10241
0.11514
0.13043
0.16099
0.18646
0.2043
0.23996
0.27307
0.34439
0.49214
0.70356
0.98376
1.2665
1.5543
1.7963
1.9746
2.1122
2.1631
2.1453
2.0587
1.9084
1.7123
1.483
1.264
1.0245
0.82583
0.63733
0.47431
0.34694
0.2425
0.16354
0.097311
0.043818
0.020893
0.0005149
-0.0096741
-0.012221
-0.0096741
-0.0045796
0.015798
0.036177
0.061649
0.082027
0.11259
0.14061
0.16609
0.19411
0.22722
0.27307
0.34949
0.48195
0.70101
0.98121
1.2614
1.534
1.7683
1.9364
2.046
2.0765
2.046
1.939
1.7734
1.5747
1.3531
1.1417
0.93281
0.73158
0.5711
0.43355
0.31892
0.23486
0.1508
0.1075
0.069291
0.038724
0.025987
0.028535
0.028535
0.043818
0.046366
0.061649
0.087122
0.10495
0.13552
0.1508
0.17373
0.19665
0.21958
0.25015
0.30619
0.40808
0.58129
0.83602
1.1213
1.3939
1.6486
1.8549
1.9976
2.0638
2.0714
2.0027
1.8702
1.6919
1.4779
1.2589
1.0372
0.84111
0.6628
0.5227
0.38515
0.28326
0.21194
0.15335
0.11259
0.071838
0.05146
0.05146
0.05146
0.059102
0.064196
0.084574
0.099858
0.11514
0.12533
0.14571
0.16863
0.19411
0.21958
0.2476
0.28071
0.35713
0.50742
0.74941
1.0169
1.3149
1.59
1.8244
2.0103
2.1275
2.1708
2.1275
2.0307
1.8728
1.6766
1.4423
1.2181
0.99649
0.79526
0.60167
0.44883
0.33421
0.22213
0.14571
0.07948
0.036177
0.010704
-0.012221
-0.017316
-0.012221
-0.012221
0.0005149
0.010704
0.031082
0.054007
0.076933
0.099858
0.12533
0.14571
0.17373
0.21448
0.26034
0.35713
0.52525
0.76469
1.0525
1.3455
1.6053
1.8345
1.995
2.0995
2.1224
2.0893
1.9772
1.8116
1.6053
1.3811
1.1468
0.92772
0.73667
0.55836
0.42591
0.30364
0.21448
0.13552
0.074385
0.036177
0.015798
-0.0045796
0.0005149
0.0081567
0.010704
0.025987
0.041271
0.05146
0.082027
0.099858
0.13297
0.14571
0.17628
0.20684
0.23996
0.28326
0.38515
0.56091
0.79526
1.0806
1.3582
1.6002
1.7938
1.9211
1.9925
1.9797
1.9008
1.7607
1.5798
1.376
1.1621
0.95319
0.78252
0.6195
0.47685
0.36477
0.28071
0.21194
0.1559
0.12278
0.084574
0.074385
0.071838
0.071838
0.082027
0.097311
0.11005
0.13297
0.1508
0.17118
0.19156
0.21703
0.24505
0.26543
0.29854
0.33675
0.42081
0.56346
0.78507
1.0653
1.3455
1.6002
1.832
1.995
2.0842
2.1122
2.0663
1.9466
1.7989
1.5976
1.3684
1.1544
0.94555
0.7545
0.58638
0.44629
0.33166
0.23232
0.16863
0.11514
0.07948
0.059102
0.038724
0.033629
0.041271
0.041271
0.05146
0.069291
0.092216
0.10241
0.12278
0.1508
0.17373
0.19411
0.21958
0.26543
0.31892
0.42336
0.62714
0.88696
1.1723
1.4499
1.7072
1.8982
2.0485
2.1275
2.1351
2.0663
1.9415
1.7556
1.5442
1.3174
1.0882
0.88951
0.69592
0.52016
0.3826
0.27562
0.18901
0.12024
0.066744
0.031082
0.010704
-0.0045796
-0.0096741
-0.0045796
-0.0045796
0.015798
0.028535
0.048913
0.082027
0.099858
0.13297
0.16099
0.18646
0.21703
0.26034
0.32656
0.45647
0.64752
0.8997
1.1773
1.4499
1.6741
1.8447
1.9619
1.995
1.9568
1.8626
1.7097
1.5187
1.3149
1.1035
0.8997
0.73158
0.58129
0.45138
0.34439
0.26034
0.19665
0.15335
0.12278
0.10241
0.094763
0.084574
0.087122
0.10495
0.11005
0.13043
0.13807
0.1559
0.18137
0.19156
0.21958
0.24505
0.27307
0.31383
0.37496
0.50997
0.72139
0.99649
1.2843
1.5492
1.7887
1.9797
2.0893
2.1479
2.1249
2.0409
1.8804
1.6868
1.4677
1.2436
1.0271
0.82328
0.64497
0.48704
0.35968
0.25524
0.17118
0.099858
0.061649
0.033629
0.010704
-0.0045796
0.0005149
0.0005149
0.0081567
0.025987
0.038724
0.071838
0.087122
0.10241
0.13552
0.16099
0.19411
0.23486
0.31638
0.46412
0.70101
0.99395
1.2971
1.562
1.8142
1.9976
2.1198
2.1835
2.158
2.0663
1.911
1.7199
1.4958
1.2512
1.0271
0.81309
0.62205
0.46157
0.32911
0.21448
0.12533
0.059102
0.0056094
-0.019863
-0.040241
-0.045336
-0.055525
-0.05043
-0.045336
-0.024958
0.0005149
0.018346
0.041271
0.066744
0.089669
0.12024
0.1508
0.19156
0.26034
0.38515
0.59657
0.87168
1.1723
1.4499
1.6919
1.8957
2.0281
2.0842
2.0867
2.0027
1.8498
1.6639
1.4397
1.2207
0.99904
0.79781
0.61186
0.46666
0.3393
0.23741
0.15335
0.099858
0.05146
0.025987
0.0005149
-0.012221
-0.019863
-0.014769
-0.0071269
0.0056094
0.028535
0.054007
0.094763
0.12278
0.14571
0.18137
0.20939
0.25524
0.32402
0.43864
0.65261
0.90479
1.2028
1.4652
1.7174
1.9008
2.0256
2.0791
2.0765
1.9899
1.8396
1.6588
1.4397
1.2308
1.0041
0.81309
0.63478
0.48449
0.35713
0.26034
0.18137
0.11005
0.071838
0.041271
0.028535
0.015798
0.018346
0.028535
0.041271
0.054007
0.074385
0.087122
0.11005
0.13043
0.16354
0.18901
0.21194
0.26288
0.32911
0.4794
0.70865
0.99395
1.2843
1.5722
1.7989
1.9899
2.1147
2.1555
2.13
2.0383
1.8829
1.6792
1.4575
1.2334
0.99904
0.78762
0.6144
0.44883
0.33166
0.22722
0.13552
0.092216
0.041271
0.010704
-0.0020324
-0.0096741
-0.0071269
-0.0045796
0.010704
0.020893
0.046366
0.056555
0.087122
0.11005
0.14061
0.15335
0.19665
0.23741
0.30364
0.44629
0.67554
0.95828
1.2589
1.5365
1.7709
1.9772
2.0969
2.1529
2.1479
2.046
1.9033
1.7021
1.4779
1.2308
1.0067
0.78762
0.61186
0.44629
0.31383
0.22213
0.13807
0.069291
0.028535
-0.012221
-0.024958
-0.037694
-0.027505
-0.019863
-0.019863
0.0030622
0.02344
0.043818
0.061649
0.092216
0.11514
0.14826
0.17118
0.1992
0.27562
0.38006
0.57874
0.85894
1.1493
1.427
1.6766
1.8753
2.0128
2.0791
2.0663
1.995
1.8524
1.6715
1.4448
1.2257
1.0067
0.81564
0.63733
0.48195
0.35713
0.25524
0.17373
0.11769
0.074385
0.028535
0.013251
0.015798
0.0056094
0.028535
0.025987
0.05146
0.076933
0.084574
0.11259
0.14316
0.15844
0.17882
0.22213
0.25524
0.31892
0.46666
0.68063
0.96083
1.2589
1.5467
1.7938
1.9797
2.1147
2.1861
2.1606
2.0842
1.9288
1.725
1.4983
1.264
1.0398
0.83092
0.63224
0.48195
0.34694
0.23996
0.1508
0.089669
0.033629
-0.0045796
-0.019863
-0.024958
-0.040241
-0.024958
-0.0096741
-0.0045796
0.010704
0.048913
0.066744
0.084574
0.12278
0.14316
0.17118
0.21703
0.29854
0.45393
0.69082
0.98885
1.2945
1.5798
1.8167
2.0256
2.1504
2.2039
2.1861
2.0969
1.9466
1.7428
1.5136
1.2665
1.0398
0.82073
0.62714
0.45902
0.31892
0.21194
0.11005
0.046366
-0.0096741
-0.037694
-0.060619
-0.070808
-0.063167
-0.073356
-0.045336
-0.037694
-0.02241
0.0056094
0.028535
0.056555
0.084574
0.12024
0.14316
0.19411
0.26034
0.39789
0.61186
0.8997
1.213
1.5085
1.7734
1.9721
2.1351
2.209
2.2192
2.1428
2.0001
1.8091
1.5824
1.3404
1.0958
0.87422
0.67044
0.49468
0.34694
0.23232
0.12533
0.056555
0.0030622
-0.037694
-0.060619
-0.070808
-0.070808
-0.070808
-0.058072
-0.042789
-0.02241
0.0030622
0.02344
0.05146
0.074385
0.099858
0.12278
0.16354
0.2043
0.2909
0.44629
0.67044
0.943
1.2308
1.4983
1.7174
1.888
1.9848
2.0078
1.9517
1.8422
1.669
1.4703
1.2487
1.0296
0.83602
0.6628
0.51506
0.38006
0.28581
0.20175
0.1508
0.1075
0.084574
0.056555
0.048913
0.059102
0.056555
0.066744
0.087122
0.1075
0.12788
0.15335
0.16609
0.19156
0.20939
0.24505
0.27562
0.30364
0.36477
0.46921
0.65007
0.90734
1.1697
1.4474
1.6868
1.86
1.9772
2.0179
1.9823
1.8804
1.7301
1.5365
1.3327
1.1162
0.93536
0.7596
0.60676
0.4794
0.3826
0.296
0.23996
0.19665
0.16354
0.14571
0.12278
0.12533
0.13043
0.14316
0.14061
0.15335
0.17118
0.18392
0.21448
0.22467
0.25524
0.26798
0.28836
0.31638
0.35458
0.45138
0.61695
0.85894
1.1366
1.4142
1.6613
1.8575
2.0052
2.074
2.0587
1.9848
1.8524
1.6639
1.4448
1.2257
1.0092
0.81309
0.65261
0.49723
0.39025
0.28581
0.21194
0.16354
0.12278
0.092216
0.074385
0.061649
0.071838
0.064196
0.084574
0.092216
0.099858
0.12278
0.14061
0.15844
0.18137
0.19411
0.22213
0.2425
0.28071
0.3393
0.4361
0.60167
0.82073
1.0831
1.3404
1.562
1.7479
1.8549
1.8906
1.8702
1.7658
1.6129
1.427
1.2334
1.0347
0.8513
0.70356
0.5711
0.45393
0.35458
0.28326
0.23486
0.20175
0.16863
0.1508
0.13297
0.13297
0.13807
0.15844
0.16609
0.18392
0.20684
0.22722
0.23996
0.26034
0.296
0.30364
0.32656
0.35968
0.37241
0.42591
0.51251
0.65007
0.84875
1.1009
1.3429
1.5569
1.7403
1.8371
1.8753
1.8345
1.7301
1.5747
1.3964
1.2028
1.022
0.86149
0.71884
0.58129
0.49214
0.39534
0.34439
0.28326
0.25524
0.23232
0.20939
0.20684
0.21448
0.20939
0.21448
0.23232
0.2476
0.25015
0.28071
0.296
0.30619
0.32147
0.34949
0.36223
0.3877
0.41572
0.45393
0.53799
0.68063
0.87932
1.1264
1.3735
1.6078
1.7785
1.8855
1.9288
1.8982
1.7938
1.6409
1.4677
1.269
1.078
0.8946
0.74431
0.59912
0.50232
0.40808
0.33675
0.28836
0.25524
0.21958
0.20939
0.20175
0.1992
0.20684
0.21194
0.21703
0.23232
0.2425
0.25524
0.28071
0.28836
0.31128
0.32402
0.34694
0.35968
0.39025
0.4361
0.55072
0.7112
0.94045
1.2028
1.4397
1.6664
1.8218
1.9237
1.9568
1.911
1.8116
1.6511
1.4626
1.264
1.0627
0.88187
0.70611
0.5711
0.44629
0.34439
0.26543
0.21194
0.16354
0.13043
0.11514
0.10495
0.10241
0.11769
0.12788
0.12788
0.14571
0.16609
0.19411
0.20939
0.22977
0.25269
0.26798
0.30619
0.32656
0.36223
0.40808
0.49978
0.64242
0.86404
1.0984
1.3251
1.5212
1.6639
1.7428
1.7428
1.6893
1.5696
1.4091
1.2487
1.0729
0.90989
0.77743
0.65771
0.55327
0.45393
0.38515
0.32911
0.28581
0.26543
0.22467
0.21448
0.20939
0.21194
0.21958
0.23486
0.23996
0.25269
0.26288
0.27307
0.29345
0.30109
0.32402
0.33421
0.34949
0.37496
0.40043
0.44119
0.53799
0.69082
0.89715
1.1366
1.3658
1.562
1.7021
1.781
1.781
1.7123
1.5926
1.4423
1.2614
1.0806
0.92262
0.77488
0.65007
0.53544
0.44883
0.37751
0.31892
0.27052
0.2425
0.22467
0.22213
0.21958
0.22467
0.22977
0.22977
0.25269
0.25779
0.27817
0.30109
0.31892
0.32911
0.34694
0.36477
0.37751
0.40553
0.431
0.49723
0.59912
0.78252
1.0067
1.2385
1.4703
1.6613
1.7836
1.8473
1.8218
1.7479
1.6155
1.4448
1.2614
1.0806
0.90479
0.76724
0.63224
0.53034
0.4361
0.37751
0.31638
0.28326
0.25269
0.23232
0.23232
0.21958
0.21448
0.22213
0.23486
0.24505
0.25779
0.26798
0.27817
0.29854
0.30873
0.33166
0.34439
0.36987
0.39789
0.42081
0.47431
0.58893
0.74686
0.9481
1.1824
1.3964
1.5594
1.6664
1.7021
1.6792
1.5849
1.4499
1.3047
1.1442
0.98121
0.83856
0.71375
0.60931
0.50997
0.44629
0.39025
0.34694
0.30619
0.28326
0.26798
0.26288
0.26543
0.26288
0.26798
0.28326
0.30109
0.31383
0.31892
0.34185
0.35458
0.36732
0.38515
0.40298
0.42336
0.45138
0.48195
0.55582
0.68827
0.87422
1.0831
1.3073
1.5059
1.6562
1.7377
1.7428
1.6944
1.5849
1.4372
1.2792
1.1188
0.95574
0.81819
0.69337
0.59657
0.50487
0.43864
0.38006
0.34439
0.31638
0.30109
0.28581
0.28581
0.27307
0.28581
0.28836
0.29854
0.30619
0.32656
0.32656
0.34694
0.36732
0.37751
0.40553
0.41572
0.431
0.47431
0.53034
0.65771
0.84111
1.0882
1.3429
1.5696
1.7632
1.8906
1.9441
1.9441
1.8626
1.7174
1.5492
1.3608
1.1672
0.98376
0.81564
0.65771
0.54053
0.4361
0.36223
0.30109
0.24505
0.20939
0.19156
0.16609
0.16099
0.16863
0.17882
0.18901
0.20175
0.21448
0.22977
0.24505
0.26288
0.27307
0.30364
0.32402
0.34439
0.3826
0.42336
0.51506
0.68318
0.90989
1.1748
1.4397
1.6664
1.8473
1.9568
1.9899
1.9568
1.86
1.7123
1.5238
1.3327
1.1213
0.93536
0.76215
0.60931
0.47176
0.37496
0.28326
0.21703
0.16099
0.13297
0.11005
0.099858
0.094763
0.097311
0.094763
0.11259
0.13043
0.14571
0.16099
0.19156
0.1992
0.23486
0.24505
0.28071
0.30109
0.34439
0.41062
0.50997
0.70101
0.95574
1.2232
1.4856
1.6995
1.8677
1.9568
1.9746
1.9364
1.8244
1.6562
1.4652
1.2512
1.0602
0.86149
0.69082
0.54818
0.42081
0.31638
0.23486
0.17373
0.13043
0.097311
0.076933
0.069291
0.069291
0.07948
0.076933
0.097311
0.12024
0.13043
0.14826
0.16863
0.1992
0.22467
0.2476
0.26543
0.296
0.33166
0.3877
0.49978
0.6628
0.8946
1.1595
1.3964
1.618
1.7607
1.8498
1.8473
1.7887
1.6715
1.5009
1.32
1.1366
0.943
0.78507
0.63224
0.50742
0.41827
0.32656
0.27562
0.21958
0.18901
0.16354
0.15335
0.14316
0.1559
0.1559
0.16099
0.18392
0.20175
0.21194
0.22722
0.2476
0.26288
0.2909
0.30873
0.34185
0.35458
0.40553
0.45647
0.56346
0.72903
0.97357
1.2105
1.4474
1.6435
1.7785
1.832
1.832
1.7479
1.6155
1.4677
1.2767
1.1035
0.943
0.79271
0.66026
0.54818
0.44883
0.3826
0.32656
0.27562
0.2476
0.22467
0.21703
0.20175
0.2043
0.21448
0.21958
0.23741
0.25015
0.26288
0.28071
0.30619
0.31892
0.33166
0.35713
0.38515
0.41062
0.44629
0.52525
0.67044
0.88441
1.1417
1.3913
1.6257
1.7989
1.9211
1.9543
1.9466
1.8345
1.6944
1.5059
1.32
1.1111
0.93281
0.76979
0.62205
0.50487
0.39279
0.32656
0.25524
0.21194
0.17373
0.1508
0.14316
0.13807
0.14316
0.14316
0.1559
0.17118
0.19411
0.2043
0.23996
0.25524
0.28326
0.30364
0.33166
0.34439
0.38515
0.43355
0.53034
0.69846
0.95319
1.2207
1.4779
1.6919
1.86
1.9568
1.9823
1.9364
1.8447
1.6843
1.4958
1.2945
1.106
0.91753
0.73922
0.59403
0.46412
0.36223
0.27562
0.21448
0.15844
0.13297
0.1075
0.087122
0.099858
0.10241
0.11005
0.12788
0.14316
0.1508
0.18392
0.20175
0.22213
0.24505
0.27307
0.30619
0.32656
0.36477
0.42081
0.52525
0.70356
0.94045
1.2054
1.4677
1.6715
1.8269
1.9084
1.9364
1.8906
1.7861
1.6409
1.4575
1.269
1.0627
0.88951
0.72648
0.58638
0.47176
0.37751
0.29345
0.23232
0.19665
0.17118
0.14316
0.12788
0.13552
0.14316
0.13807
0.14826
0.16354
0.18901
0.1992
0.21703
0.23741
0.25524
0.27562
0.29345
0.32147
0.36477
0.42081
0.54563
0.73922
0.9914
1.2665
1.5187
1.7301
1.8906
1.9695
1.9874
1.9441
1.8269
1.6664
1.4677
1.2614
1.0627
0.86658
0.70865
0.56601
0.44883
0.34439
0.26543
0.2043
0.16099
0.13297
0.11005
0.10241
0.094763
0.11005
0.12024
0.13297
0.13807
0.15335
0.17118
0.19411
0.22213
0.2425
0.26288
0.28326
0.31383
0.34694
0.39789
0.50232
0.67299
0.90989
1.1773
1.4244
1.6257
1.7734
1.8651
1.8626
1.8091
1.6919
1.5391
1.3582
1.1621
0.97102
0.81054
0.66026
0.53034
0.42591
0.34185
0.26798
0.22722
0.18137
0.1559
0.14061
0.14061
0.14061
0.14571
0.16354
0.16863
0.18137
0.1992
0.22977
0.25524
0.26798
0.29345
0.31383
0.32911
0.35458
0.36987
0.41317
0.47685
0.60676
0.78762
1.022
1.2589
1.4703
1.6308
1.7301
1.7607
1.725
1.6282
1.4881
1.3327
1.1595
0.98885
0.84366
0.71884
0.59912
0.49723
0.431
0.3877
0.34185
0.30873
0.29345
0.27307
0.26798
0.25524
0.26034
0.27052
0.28326
0.28836
0.30109
0.32402
0.33675
0.34694
0.36477
0.38515
0.40553
0.43864
0.46157
0.49468
0.55327
0.67809
0.86404
1.1111
1.3658
1.6053
1.7861
1.9211
1.9721
1.9619
1.8829
1.7479
1.5569
1.3633
1.1646
0.96847
0.8029
0.65771
0.52525
0.42591
0.34439
0.27817
0.23741
0.1992
0.18137
0.15335
0.1559
0.1559
0.16863
0.17118
0.19156
0.20175
0.21703
0.2425
0.26288
0.28071
0.30619
0.31892
0.3393
0.35968
0.3877
0.45393
0.56855
0.75196
0.99649
1.2487
1.4983
1.6893
1.8294
1.9033
1.9008
1.832
1.6944
1.5289
1.3302
1.1366
0.95319
0.78252
0.62714
0.49723
0.39025
0.31383
0.24505
0.2043
0.16609
0.14571
0.14571
0.13297
0.14061
0.14316
0.15844
0.17118
0.18137
0.19411
0.21958
0.24505
0.25779
0.28326
0.296
0.32147
0.33675
0.36732
0.42591
0.52016
0.68827
0.92262
1.1926
1.4372
1.6511
1.8167
1.9059
1.9262
1.8804
1.7734
1.6078
1.4295
1.2359
1.0474
0.86404
0.70356
0.56601
0.45902
0.36987
0.30109
0.2476
0.21448
0.18901
0.17628
0.16609
0.15844
0.16099
0.17118
0.17373
0.18901
0.21703
0.22722
0.23996
0.26034
0.28071
0.28836
0.30873
0.33421
0.35968
0.39534
0.48959
0.62969
0.83602
1.0856
1.32
1.5263
1.697
1.781
1.8116
1.7632
1.6664
1.5161
1.3455
1.1621
0.98885
0.82583
0.67554
0.55836
0.45138
0.37751
0.32147
0.26798
0.22467
0.20939
0.19156
0.18392
0.18392
0.19665
0.2043
0.21448
0.22722
0.24505
0.26543
0.27562
0.2909
0.30619
0.32911
0.34949
0.36477
0.39025
0.431
0.50997
0.64497
0.8513
1.078
1.3124
1.5187
1.6715
1.7607
1.781
1.725
1.6308
1.483
1.3098
1.1417
0.96847
0.82583
0.68573
0.58638
0.49214
0.41062
0.35458
0.31128
0.28836
0.27307
0.25524
0.24505
0.25269
0.25524
0.26288
0.26034
0.27562
0.29345
0.31383
0.33166
0.34949
0.35458
0.37496
0.39025
0.41572
0.43864
0.50232
0.63224
0.81309
1.0525
1.2971
1.5416
1.7327
1.8498
1.911
1.9033
1.8269
1.6995
1.5467
1.3608
1.1672
0.9863
0.82073
0.67554
0.54563
0.45647
0.36732
0.30109
0.25015
0.21958
0.18646
0.16863
0.16099
0.15844
0.1559
0.16354
0.17882
0.20175
0.21703
0.23486
0.25524
0.27562
0.296
0.31638
0.3393
0.36987
0.40808
0.50487
0.66535
0.88696
1.1417
1.4015
1.6257
1.7912
1.8982
1.9339
1.911
1.8167
1.6741
1.4958
1.3022
1.0933
0.90989
0.74686
0.59912
0.48195
0.37751
0.30364
0.23232
0.18646
0.15844
0.13807
0.13043
0.12024
0.12788
0.12788
0.14316
0.14826
0.16863
0.18392
0.20939
0.22213
0.24505
0.26543
0.296
0.31638
0.35204
0.40808
0.51251
0.69846
0.91498
1.1799
1.4142
1.6053
1.7581
1.8269
1.832
1.7734
1.6511
1.5009
1.3149
1.1417
0.96083
0.79526
0.65771
0.53544
0.43864
0.35713
0.2909
0.2425
0.21703
0.19411
0.18137
0.17628
0.17882
0.18901
0.20175
0.20684
0.22722
0.24505
0.26543
0.28581
0.30109
0.33166
0.34185
0.37241
0.40043
0.47176
0.59148
0.78252
1.0245
1.2971
1.5365
1.7454
1.8931
1.9721
1.9823
1.9262
1.804
1.6435
1.4652
1.264
1.05
0.87422
0.70865
0.56346
0.44374
0.34185
0.27052
0.20684
0.16863
0.14316
0.12278
0.11259
0.10495
0.11005
0.12024
0.12788
0.14571
0.1508
0.16609
0.19411
0.21703
0.23741
0.25779
0.28836
0.32656
0.39534
0.51506
0.72648
0.9914
1.269
1.534
1.7428
1.9186
2.0128
2.0409
1.9899
1.888
1.7301
1.5289
1.32
1.106
0.90224
0.72394
0.55836
0.42336
0.31128
0.21958
0.15335
0.11005
0.076933
0.048913
0.043818
0.043818
0.046366
0.054007
0.071838
0.07948
0.10241
0.11769
0.14826
0.16354
0.17882
0.20175
0.22722
0.25524
0.30873
0.42845
0.60931
0.85894
1.134
1.4142
1.6384
1.8091
1.9313
1.9645
1.9237
1.8345
1.6792
1.4856
1.2894
1.0882
0.8946
0.70356
0.56601
0.42845
0.33675
0.25269
0.18646
0.14061
0.11005
0.082027
0.066744
0.054007
0.046366
0.059102
0.059102
0.076933
0.097311
0.11769
0.14061
0.16863
0.1992
0.20939
0.2425
0.27562
0.31383
0.3826
0.50742
0.69592
0.94045
1.2003
1.4474
1.6359
1.7709
1.8422
1.8244
1.7556
1.6308
1.4626
1.2945
1.1086
0.92772
0.77233
0.63733
0.51761
0.42336
0.35204
0.29854
0.25015
0.21958
0.20684
0.2043
0.19411
0.2043
0.21448
0.22467
0.22213
0.23996
0.26798
0.28071
0.296
0.32402
0.34694
0.36477
0.3877
0.42081
0.48449
0.60422
0.80035
1.0576
1.3124
1.5645
1.7683
1.9135
1.9874
1.9976
1.9313
1.8065
1.6308
1.4499
1.2334
1.0423
0.86658
0.70356
0.56346
0.44883
0.34694
0.26798
0.22213
0.17118
0.13807
0.12278
0.11259
0.11769
0.11259
0.11769
0.13807
0.1508
0.17882
0.18901
0.20939
0.22467
0.2476
0.27052
0.30364
0.33675
0.40043
0.50487
0.67809
0.92008
1.1977
1.4601
1.6868
1.8626
1.9797
2.0205
1.9874
1.8829
1.7327
1.534
1.3353
1.1264
0.92772
0.75196
0.60167
0.46921
0.35458
0.28326
0.20684
0.16609
0.13807
0.099858
0.094763
0.084574
0.092216
0.10495
0.11259
0.12788
0.1508
0.16354
0.18646
0.20175
0.22722
0.24505
0.27562
0.2909
0.32402
0.39534
0.51251
0.70356
0.93536
1.2003
1.4474
1.6562
1.7938
1.8829
1.8804
1.8193
1.7021
1.5391
1.3378
1.1519
0.96847
0.79526
0.63988
0.51761
0.41572
0.33166
0.26798
0.22467
0.18901
0.16609
0.14826
0.1508
0.15335
0.16354
0.16863
0.18137
0.2043
0.22977
0.23486
0.26034
0.27307
0.2909
0.32656
0.34439
0.3826
0.44119
0.56091
0.7596
1.0143
1.2741
1.5314
1.7454
1.8855
1.9772
1.9823
1.9059
1.7861
1.618
1.4219
1.2207
1.0194
0.82837
0.68063
0.53544
0.41827
0.32402
0.25524
0.18646
0.14571
0.12278
0.11259
0.092216
0.097311
0.10241
0.11005
0.12024
0.14061
0.15335
0.17118
0.18137
0.20684
0.23741
0.25779
0.28326
0.33166
0.39789
0.52016
0.73922
0.99395
1.2741
1.5212
1.7301
1.888
1.9645
1.9772
1.9161
1.7963
1.6206
1.427
1.2207
1.0169
0.82328
0.66026
0.51761
0.40553
0.29345
0.22977
0.17628
0.13043
0.10495
0.084574
0.089669
0.092216
0.092216
0.099858
0.11259
0.13043
0.1508
0.16863
0.18646
0.21448
0.2425
0.26034
0.2909
0.32656
0.3877
0.51506
0.70865
0.95319
1.2334
1.4907
1.7046
1.8575
1.9517
1.967
1.9161
1.7989
1.6333
1.4346
1.2308
1.0347
0.85639
0.68573
0.54308
0.42591
0.33675
0.25524
0.19665
0.16099
0.13297
0.10495
0.099858
0.10241
0.099858
0.11259
0.12024
0.14316
0.16354
0.17628
0.2043
0.22722
0.24505
0.27307
0.28326
0.31383
0.36732
0.46412
0.60676
0.82837
1.0856
1.3327
1.5518
1.7148
1.8193
1.8549
1.8167
1.7097
1.5671
1.3913
1.2079
1.0169
0.84875
0.70101
0.5711
0.46157
0.38006
0.29854
0.25269
0.20939
0.19411
0.18137
0.17118
0.16609
0.17628
0.18392
0.19665
0.21448
0.23486
0.23996
0.26543
0.28581
0.30619
0.32911
0.35713
0.38515
0.45393
0.56091
0.74431
1.0016
1.269
1.534
1.7479
1.9161
2.0052
2.0332
1.9925
1.8728
1.7072
1.5161
1.3073
1.1009
0.8997
0.73667
0.5762
0.46157
0.36223
0.27562
0.21448
0.17118
0.14316
0.11769
0.1075
0.097311
0.11005
0.10495
0.11769
0.13297
0.14571
0.16354
0.18901
0.19411
0.21958
0.2476
0.26543
0.30109
0.35458
0.45902
0.63733
0.8946
1.1723
1.4295
1.6664
1.8447
1.9543
1.995
1.9721
1.8753
1.7301
1.534
1.3225
1.1239
0.91753
0.73922
0.57365
0.45647
0.34694
0.25524
0.19411
0.14061
0.11005
0.07948
0.064196
0.056555
0.071838
0.069291
0.07948
0.1075
0.11514
0.14571
0.16354
0.18646
0.21448
0.23741
0.26034
0.28071
0.32656
0.39789
0.50997
0.70356
0.93536
1.1977
1.4525
1.6511
1.8091
1.8855
1.9059
1.8498
1.725
1.5645
1.3811
1.1773
1.0016
0.82328
0.66535
0.54053
0.44119
0.35458
0.28581
0.24505
0.2043
0.18137
0.16863
0.16863
0.16354
0.17628
0.17373
0.19411
0.20175
0.22722
0.24505
0.25779
0.28581
0.30619
0.32402
0.34185
0.37751
0.41572
0.52525
0.68318
0.93281
1.2003
1.4626
1.6843
1.8626
1.9645
2.0078
1.9746
1.8728
1.7301
1.5416
1.3353
1.1366
0.93791
0.76215
0.61186
0.4794
0.37241
0.2909
0.23486
0.17373
0.14826
0.12024
0.12024
0.11769
0.12024
0.12788
0.13297
0.14571
0.16354
0.17628
0.19411
0.21448
0.23486
0.25015
0.28326
0.31128
0.35968
0.42845
0.58129
0.79526
1.0627
1.3378
1.5926
1.7963
1.9364
2.0078
2.0078
1.939
1.8142
1.6333
1.4372
1.2156
1.0194
0.82837
0.67044
0.53544
0.41317
0.31892
0.2476
0.18901
0.14316
0.12024
0.10495
0.10241
0.094763
0.10495
0.11769
0.12533
0.14826
0.16099
0.17882
0.19665
0.22213
0.23486
0.25524
0.27817
0.31128
0.35713
0.45138
0.60931
0.84875
1.1264
1.399
1.6359
1.8269
1.9543
2.0001
1.9976
1.9008
1.7505
1.5645
1.3506
1.1417
0.93791
0.75196
0.59148
0.45393
0.34439
0.26288
0.19156
0.14316
0.10241
0.07948
0.07948
0.071838
0.07948
0.084574
0.092216
0.11259
0.13552
0.14826
0.16099
0.18392
0.21194
0.23232
0.25524
0.27307
0.30873
0.34694
0.43355
0.5711
0.76979
1.0194
1.2818
1.5034
1.6893
1.7938
1.8371
1.8218
1.7199
1.5671
1.3964
1.2003
1.022
0.83856
0.69592
0.56091
0.45138
0.36477
0.30109
0.23741
0.20684
0.18392
0.16099
0.16354
0.16354
0.16354
0.16609
0.18646
0.1992
0.21448
0.23486
0.2476
0.26288
0.28836
0.31128
0.3393
0.35458
0.38006
0.42591
0.51251
0.64242
0.84111
1.0704
1.3098
1.5289
1.6817
1.7836
1.8065
1.7632
1.646
1.5009
1.3302
1.1468
0.98885
0.82073
0.69592
0.57874
0.47685
0.41062
0.34949
0.30364
0.26543
0.25269
0.23741
0.23741
0.23741
0.23996
0.24505
0.25269
0.27562
0.27817
0.30109
0.31128
0.33166
0.34439
0.36477
0.39025
0.41062
0.45138
0.49723
0.60422
0.78252
1.0143
1.264
1.5161
1.7225
1.8651
1.9415
1.9645
1.9059
1.781
1.618
1.427
1.2308
1.0423
0.86658
0.70611
0.5762
0.47685
0.38515
0.32402
0.27562
0.23232
0.20939
0.18901
0.18392
0.18137
0.18392
0.18646
0.19156
0.21194
0.22467
0.23486
0.25269
0.26798
0.296
0.30619
0.32656
0.35204
0.3877
0.46666
0.58893
0.78507
1.0322
1.2818
1.4983
1.6893
1.804
1.8575
1.8447
1.7607
1.6282
1.4575
1.2767
1.0831
0.90989
0.74686
0.60931
0.48959
0.40298
0.32402
0.26543
0.21703
0.17882
0.1559
0.16354
0.1508
0.1559
0.16863
0.18137
0.19156
0.2043
0.22213
0.24505
0.26798
0.296
0.30364
0.32656
0.34949
0.39279
0.43864
0.51761
0.6628
0.87932
1.1366
1.3913
1.6282
1.8116
1.9339
1.9874
1.9645
1.8626
1.725
1.5492
1.3531
1.1544
0.95828
0.77743
0.6195
0.49468
0.39279
0.30873
0.24505
0.18646
0.15335
0.12788
0.12024
0.11005
0.10495
0.11259
0.11514
0.12788
0.14316
0.16354
0.17373
0.19411
0.20939
0.22467
0.25779
0.27562
0.30109
0.35968
0.43355
0.56601
0.7596
0.98121
1.2232
1.4397
1.6002
1.6995
1.725
1.6792
1.5747
1.4295
1.2665
1.0882
0.91498
0.76724
0.63478
0.52525
0.42591
0.35713
0.296
0.25524
0.21958
0.2043
0.19411
0.19156
0.18901
0.19665
0.21448
0.22213
0.22977
0.25015
0.26543
0.28326
0.30619
0.32656
0.33675
0.36223
0.38006
0.41572
0.46412
0.55836
0.71629
0.90989
1.1264
1.3353
1.5238
1.6409
1.6868
1.669
1.5849
1.4601
1.32
1.157
1.0067
0.86404
0.73667
0.63733
0.53544
0.46921
0.41827
0.36732
0.34185
0.31892
0.30619
0.296
0.29854
0.28581
0.296
0.30109
0.31638
0.32147
0.3393
0.35968
0.3826
0.40043
0.41572
0.4361
0.46157
0.49468
0.55582
0.67554
0.86913
1.0958
1.3429
1.5722
1.7607
1.8829
1.9237
1.911
1.8269
1.7072
1.5314
1.3353
1.1468
0.97357
0.81819
0.68573
0.56855
0.47176
0.40298
0.34439
0.29345
0.27052
0.23741
0.21703
0.20939
0.20939
0.20175
0.21194
0.21703
0.22722
0.23486
0.24505
0.26034
0.27562
0.29345
0.30873
0.3393
0.3826
0.46666
0.58893
0.79781
1.0372
1.2945
1.5212
1.6893
1.8142
1.8651
1.8498
1.7632
1.6308
1.4474
1.2563
1.0755
0.88951
0.72648
0.58893
0.46412
0.37241
0.29854
0.23996
0.19156
0.17118
0.1559
0.14571
0.14316
0.14316
0.14316
0.15844
0.17373
0.19665
0.21194
0.23232
0.25524
0.27052
0.30364
0.31383
0.35458
0.38515
0.47176
0.60422
0.80545
1.0423
1.3073
1.5314
1.7123
1.8396
1.8957
1.8855
1.8091
1.669
1.5034
1.3073
1.1111
0.92772
0.76215
0.6144
0.49978
0.40043
0.31383
0.25779
0.2043
0.17373
0.1508
0.14571
0.14061
0.13552
0.14316
0.16354
0.16609
0.18137
0.2043
0.21703
0.2425
0.26288
0.28581
0.30873
0.33675
0.36477
0.40808
0.48959
0.61695
0.81309
1.0372
1.2792
1.4958
1.6588
1.7556
1.7938
1.7581
1.6613
1.5187
1.3429
1.1697
0.99904
0.83347
0.70101
0.5762
0.47685
0.39279
0.33421
0.28326
0.25779
0.22467
0.21194
0.2043
0.20684
0.21194
0.21703
0.23741
0.24505
0.25524
0.27817
0.28071
0.30109
0.32911
0.34694
0.35968
0.39534
0.42845
0.47431
0.57874
0.74431
0.96083
1.213
1.4423
1.6308
1.7632
1.8345
1.8294
1.753
1.6409
1.4779
1.3047
1.1137
0.94555
0.79781
0.6679
0.55327
0.45393
0.3877
0.32402
0.27817
0.25015
0.22977
0.21958
0.22467
0.22213
0.22977
0.23486
0.23996
0.26034
0.28071
0.30109
0.31383
0.32911
0.34439
0.36987
0.3877
0.41572
0.45902
0.5278
0.65771
0.8513
1.0806
1.3251
1.5518
1.7174
1.8294
1.8753
1.832
1.7428
1.6104
1.4321
1.2487
1.0704
0.8997
0.74431
0.60931
0.50742
0.41827
0.34439
0.28326
0.23741
0.21703
0.19665
0.17882
0.17882
0.18137
0.18137
0.18901
0.20684
0.22722
0.23741
0.26034
0.27052
0.28836
0.31383
0.33166
0.35713
0.3826
0.41317
0.4794
0.59403
0.77743
1.0067
1.2436
1.4779
1.6486
1.7658
1.8091
1.7912
1.7072
1.5696
1.3939
1.2232
1.0398
0.87932
0.73413
0.61186
0.49468
0.41317
0.3393
0.296
0.26034
0.22722
0.21448
0.1992
0.19156
0.18901
0.20175
0.21703
0.22722
0.23996
0.26288
0.28326
0.29345
0.30619
0.33421
0.34694
0.37241
0.39534
0.41827
0.46666
0.54053
0.67554
0.85639
1.0755
1.3047
1.4805
1.6308
1.6944
1.697
1.6359
1.5289
1.376
1.2181
1.0474
0.90479
0.77233
0.65771
0.56091
0.48959
0.431
0.38006
0.34949
0.32147
0.296
0.28836
0.28326
0.28326
0.28326
0.28836
0.30619
0.30619
0.31892
0.34185
0.34694
0.36477
0.38006
0.39279
0.40553
0.431
0.44883
0.48704
0.53544
0.64752
0.79017
0.99649
1.2003
1.3888
1.5543
1.6562
1.6893
1.6613
1.5722
1.4372
1.2945
1.134
0.98885
0.8513
0.72394
0.62205
0.54053
0.46921
0.40553
0.36477
0.3393
0.31638
0.296
0.29345
0.296
0.29854
0.30364
0.30364
0.31128
0.31638
0.32656
0.35458
0.36223
0.37751
0.39025
0.40553
0.42081
0.43355
0.46412
0.50997
0.58384
0.70611
0.87677
1.0933
1.2971
1.4779
1.6002
1.6664
1.669
1.6104
1.5009
1.3582
1.1977
1.0525
0.8997
0.76215
0.66026
0.56601
0.48195
0.42845
0.37496
0.34694
0.31892
0.29345
0.28581
0.28836
0.28071
0.2909
0.29345
0.296
0.31892
0.33166
0.34185
0.36732
0.39279
0.40553
0.41572
0.43864
0.46157
0.4794
0.52016
0.55582
0.64242
0.77233
0.93791
1.1188
1.2996
1.4499
1.5492
1.5875
1.5696
1.4881
1.3658
1.2334
1.0856
0.93791
0.81564
0.69592
0.60931
0.52525
0.46412
0.42591
0.3826
0.36223
0.33675
0.32147
0.32402
0.32147
0.31892
0.32911
0.33675
0.34439
0.35713
0.38006
0.39279
0.40298
0.41317
0.431
0.45393
0.46921
0.49214
0.51251
0.54308
0.60167
0.67809
0.81564
0.97866
1.1621
1.3225
1.4677
1.5594
1.5798
1.5594
1.4677
1.3608
1.2232
1.0806
0.95828
0.8462
0.73413
0.65261
0.58384
0.53544
0.4794
0.44883
0.42336
0.40553
0.39534
0.3877
0.37751
0.37751
0.39279
0.3877
0.3877
0.40298
0.39789
0.40553
0.41317
0.41572
0.42336
0.43864
0.44374
0.46921
0.48704
0.53289
0.62714
0.74686
0.92008
1.1188
1.2996
1.4474
1.5671
1.6027
1.5722
1.5059
1.3862
1.241
1.1009
0.95828
0.83347
0.72139
0.63224
0.54308
0.4794
0.42081
0.37751
0.35458
0.32911
0.31892
0.30619
0.2909
0.30619
0.29345
0.30619
0.31892
0.32402
0.34185
0.34949
0.36223
0.37751
0.39025
0.40553
0.41317
0.43355
0.46157
0.50232
0.56346
0.67809
0.83602
1.0271
1.2308
1.4219
1.5543
1.6511
1.6817
1.6384
1.5492
1.4142
1.2767
1.1162
0.96847
0.83856
0.70865
0.61695
0.54053
0.46666
0.41317
0.36732
0.34949
0.32147
0.30364
0.30619
0.30364
0.30619
0.30364
0.30619
0.32656
0.32656
0.3393
0.35204
0.36732
0.37496
0.39534
0.41062
0.42081
0.44883
0.46921
0.52525
0.59403
0.71629
0.86404
1.0449
1.2308
1.3913
1.5009
1.5467
1.5365
1.4856
1.3709
1.2563
1.1162
0.98885
0.86149
0.75705
0.65771
0.58893
0.51251
0.47176
0.4361
0.39279
0.38515
0.36223
0.35713
0.34949
0.35458
0.36223
0.37751
0.38515
0.38515
0.40553
0.41317
0.42845
0.42845
0.43864
0.46157
0.46412
0.48959
0.50997
0.55582
0.62714
0.75196
0.90989
1.0984
1.2843
1.4499
1.5773
1.6435
1.6359
1.5849
1.4677
1.348
1.1926
1.0449
0.92517
0.79526
0.69082
0.60167
0.53034
0.47176
0.42336
0.3877
0.36732
0.34185
0.33675
0.33166
0.32656
0.33166
0.33675
0.34185
0.34949
0.36477
0.37496
0.38515
0.38515
0.40298
0.42081
0.4361
0.45647
0.48449
0.54563
0.63478
0.77998
0.98121
1.1952
1.4041
1.5747
1.6817
1.7327
1.7174
1.6333
1.511
1.3684
1.1926
1.0372
0.88696
0.75705
0.63733
0.54818
0.46412
0.39534
0.35458
0.31128
0.28581
0.27307
0.26543
0.25524
0.25524
0.25524
0.26288
0.27307
0.28836
0.30109
0.30619
0.32656
0.3393
0.34949
0.35713
0.38006
0.40298
0.4361
0.49723
0.59148
0.74177
0.93536
1.1621
1.3633
1.5365
1.6486
1.6919
1.6792
1.6002
1.4754
1.3174
1.1544
0.99395
0.84366
0.7112
0.61186
0.51761
0.44119
0.38006
0.32911
0.29345
0.27562
0.26034
0.24505
0.24505
0.2425
0.25015
0.26288
0.27817
0.28326
0.296
0.30873
0.32911
0.34694
0.36477
0.38515
0.40043
0.41572
0.44629
0.50742
0.59403
0.73158
0.8946
1.1009
1.2818
1.4346
1.5187
1.5543
1.5263
1.4448
1.3327
1.1952
1.0474
0.92517
0.79526
0.69337
0.60422
0.53799
0.47431
0.42845
0.39534
0.36987
0.35458
0.34185
0.34439
0.33675
0.3393
0.34949
0.35713
0.36732
0.36987
0.38006
0.40043
0.40808
0.42591
0.43864
0.45138
0.46921
0.48959
0.54818
0.62459
0.77488
0.96083
1.1748
1.3862
1.562
1.6893
1.7479
1.7301
1.6537
1.5442
1.3888
1.2334
1.0627
0.91753
0.78507
0.67044
0.56855
0.48959
0.43864
0.38515
0.35713
0.32911
0.30619
0.296
0.29345
0.28836
0.30109
0.296
0.30619
0.31383
0.33675
0.33675
0.35713
0.36477
0.37751
0.39789
0.41062
0.43355
0.49723
0.58384
0.74431
0.96338
1.2079
1.4321
1.6206
1.7632
1.8396
1.8447
1.7912
1.6639
1.5187
1.3353
1.1442
0.96593
0.808
0.66026
0.53544
0.42591
0.35204
0.29854
0.25015
0.21194
0.19411
0.16863
0.16863
0.16609
0.16354
0.18392
0.18901
0.19665
0.21703
0.23232
0.25015
0.27562
0.28836
0.30873
0.32911
0.35713
0.40808
0.4794
0.61695
0.81819
1.0627
1.3047
1.5238
1.6995
1.7989
1.8396
1.8065
1.7148
1.5824
1.4168
1.2359
1.0474
0.87677
0.73158
0.58893
0.48449
0.3877
0.31638
0.25524
0.22722
0.19411
0.16863
0.16099
0.15844
0.15844
0.16354
0.17882
0.18646
0.19156
0.22213
0.23232
0.24505
0.27052
0.296
0.31383
0.33675
0.37496
0.42591
0.53544
0.70356
0.91753
1.1595
1.376
1.5594
1.6843
1.7505
1.7428
1.6766
1.5492
1.3888
1.2257
1.0551
0.89715
0.75705
0.62459
0.52525
0.4361
0.36732
0.31892
0.27817
0.25015
0.22722
0.23232
0.22467
0.22722
0.22977
0.2476
0.26798
0.27562
0.2909
0.31128
0.32656
0.3393
0.35968
0.3877
0.41062
0.4361
0.51761
0.63988
0.82837
1.0729
1.3225
1.5569
1.7276
1.8549
1.911
1.9008
1.8167
1.6944
1.5136
1.3353
1.1493
0.95319
0.8029
0.65516
0.53289
0.43355
0.35458
0.2909
0.25269
0.21194
0.19411
0.17373
0.17118
0.16609
0.16354
0.17118
0.19411
0.20175
0.21703
0.23741
0.25269
0.27817
0.2909
0.31892
0.32911
0.3826
0.45393
0.59148
0.81309
1.0755
1.3429
1.5875
1.7861
1.9161
1.9925
1.995
1.9339
1.7963
1.6384
1.427
1.2283
1.022
0.84111
0.67299
0.52016
0.40298
0.29854
0.22467
0.17373
0.13043
0.087122
0.07948
0.061649
0.061649
0.071838
0.084574
0.084574
0.11259
0.12024
0.14571
0.16354
0.18901
0.20175
0.22977
0.26543
0.296
0.34694
0.4361
0.60422
0.83347
1.1009
1.3684
1.5875
1.7505
1.86
1.8906
1.8524
1.7479
1.6027
1.4091
1.2207
1.022
0.8513
0.68827
0.55072
0.4361
0.34185
0.27307
0.22467
0.18646
0.15844
0.1508
0.13297
0.14826
0.14571
0.16609
0.18137
0.18901
0.22213
0.23486
0.25269
0.27307
0.296
0.30873
0.3393
0.36477
0.38515
0.45393
0.54818
0.70356
0.92772
1.1646
1.4015
1.5951
1.7174
1.7912
1.7861
1.7123
1.5875
1.4168
1.2487
1.0729
0.8997
0.75196
0.6144
0.51506
0.42336
0.36732
0.30619
0.27307
0.25015
0.22977
0.22213
0.21703
0.22467
0.23741
0.25524
0.25779
0.27562
0.2909
0.30873
0.32656
0.34694
0.35713
0.36732
0.39025
0.42845
0.47176
0.56091
0.71375
0.92772
1.1799
1.4372
1.6562
1.8218
1.9161
1.9466
1.8982
1.8014
1.6409
1.4499
1.264
1.0653
0.88441
0.72394
0.59148
0.46412
0.38006
0.29854
0.23996
0.2043
0.17118
0.14571
0.13807
0.14316
0.14061
0.14826
0.16863
0.17882
0.1992
0.20939
0.23486
0.25524
0.27817
0.29854
0.31128
0.34439
0.37496
0.43355
0.54053
0.71884
0.94555
1.2028
1.4601
1.6715
1.8269
1.9186
1.9313
1.8753
1.7505
1.5824
1.3862
1.185
0.98121
0.79526
0.63988
0.50232
0.39025
0.296
0.22467
0.16099
0.12278
0.10241
0.092216
0.07948
0.07948
0.087122
0.10241
0.12024
0.14316
0.17628
0.19665
0.22722
0.24505
0.27052
0.28836
0.30873
0.34439
0.39279
0.48959
0.64752
0.88441
1.1621
1.427
1.6639
1.8575
1.9848
2.0332
2.023
1.9415
1.804
1.6308
1.427
1.2156
1.0067
0.81309
0.64497
0.49723
0.37496
0.27307
0.18392
0.12788
0.069291
0.038724
0.015798
0.0056094
0.0030622
0.0081567
0.025987
0.038724
0.056555
0.082027
0.10241
0.14061
0.16354
0.18901
0.23486
0.26034
0.30873
0.40043
0.51761
0.71375
0.95828
1.2105
1.4575
1.6588
1.7938
1.8778
1.8778
1.804
1.6817
1.5161
1.3327
1.1391
0.96593
0.79526
0.65007
0.53034
0.42845
0.34439
0.28071
0.22722
0.19411
0.16609
0.1508
0.13807
0.12533
0.14061
0.14316
0.15844
0.18646
0.20684
0.22977
0.26034
0.27307
0.31383
0.33675
0.37751
0.41062
0.4794
0.59148
0.76469
0.99904
1.2461
1.4728
1.6664
1.7912
1.8549
1.8371
1.7505
1.6104
1.4499
1.269
1.0831
0.92262
0.77233
0.64752
0.54818
0.46666
0.38515
0.3393
0.30109
0.27562
0.25524
0.25015
0.2425
0.23741
0.23232
0.23996
0.24505
0.26798
0.27307
0.28071
0.30619
0.32147
0.33166
0.34949
0.37751
0.41062
0.47176
0.59148
0.74941
0.95319
1.1824
1.3913
1.5543
1.6511
1.6843
1.6613
1.5594
1.4142
1.269
1.1035
0.95064
0.81564
0.69082
0.58893
0.50997
0.4361
0.39025
0.34439
0.32147
0.30109
0.296
0.28326
0.29854
0.296
0.30619
0.31383
0.32147
0.32656
0.34949
0.36223
0.36477
0.38515
0.40298
0.42336
0.44119
0.48449
0.56855
0.69846
0.85894
1.0423
1.241
1.3939
1.4881
1.5238
1.483
1.4066
1.2767
1.1417
1.0016
0.87422
0.75196
0.63988
0.55582
0.49214
0.44374
0.39534
0.36223
0.33421
0.32402
0.32147
0.31128
0.31638
0.31638
0.32402
0.33675
0.3393
0.35204
0.36477
0.38006
0.39025
0.40553
0.43355
0.4361
0.47176
0.51251
0.59403
0.7112
0.87677
1.0627
1.2385
1.3888
1.4907
1.5161
1.5085
1.4295
1.32
1.185
1.0525
0.91753
0.8029
0.70101
0.61186
0.53544
0.47176
0.42845
0.3877
0.35458
0.33675
0.32911
0.32402
0.31892
0.32656
0.33421
0.33421
0.34949
0.35713
0.36732
0.37751
0.39025
0.40808
0.42336
0.46157
0.51251
0.62205
0.79271
0.99395
1.2334
1.455
1.6308
1.7454
1.804
1.7963
1.7225
1.6002
1.4346
1.269
1.0856
0.92772
0.78507
0.6679
0.56601
0.47685
0.41827
0.36223
0.33166
0.2909
0.27817
0.26288
0.24505
0.24505
0.2425
0.25015
0.25015
0.25779
0.27307
0.28326
0.296
0.30619
0.33166
0.35458
0.40808
0.50742
0.67044
0.89206
1.129
1.3786
1.5798
1.7327
1.8218
1.8396
1.7938
1.6843
1.5263
1.348
1.1646
0.98376
0.82328
0.68318
0.55836
0.46412
0.39534
0.34185
0.29345
0.26798
0.26543
0.23996
0.23486
0.22213
0.21448
0.1992
0.2043
0.19665
0.2043
0.20175
0.21958
0.23741
0.25269
0.296
0.32656
0.39534
0.50487
0.68573
0.90734
1.1519
1.3837
1.5747
1.7097
1.7836
1.7785
1.7148
1.5875
1.4397
1.264
1.0907
0.92008
0.76979
0.63224
0.53034
0.44119
0.36732
0.31638
0.27307
0.24505
0.22977
0.2043
0.21194
0.20175
0.22213
0.21703
0.23741
0.2476
0.26543
0.28581
0.296
0.32147
0.34439
0.37496
0.42081
0.49723
0.66026
0.85639
1.0933
1.3251
1.5187
1.6613
1.7327
1.7403
1.6664
1.5492
1.4041
1.2283
1.0576
0.88441
0.73922
0.60931
0.50997
0.41827
0.34949
0.30109
0.25015
0.22467
0.20175
0.19156
0.18901
0.1992
0.19665
0.20175
0.22213
0.23486
0.25779
0.26034
0.28581
0.30619
0.33421
0.35713
0.40043
0.48959
0.63224
0.82328
1.0678
1.292
1.5059
1.646
1.7403
1.7632
1.7072
1.6002
1.4499
1.2869
1.1111
0.9481
0.78252
0.6628
0.55072
0.45138
0.3826
0.32402
0.27817
0.2476
0.23996
0.22213
0.23486
0.23741
0.2476
0.24505
0.26798
0.28071
0.30364
0.31638
0.33421
0.35204
0.37496
0.40808
0.46157
0.55582
0.72139
0.94555
1.2105
1.4754
1.6995
1.8626
1.967
2.0001
1.9645
1.8575
1.6919
1.5034
1.2843
1.0831
0.89715
0.71375
0.58129
0.45393
0.35204
0.26288
0.20939
0.16863
0.14061
0.11005
0.10495
0.097311
0.11259
0.12024
0.12788
0.14316
0.15335
0.16863
0.19156
0.20175
0.23486
0.26288
0.30619
0.39279
0.56346
0.79271
1.0627
1.3327
1.5696
1.7607
1.8804
1.9364
1.9262
1.832
1.6893
1.5136
1.3022
1.0958
0.88696
0.70101
0.54818
0.40553
0.30619
0.21448
0.14571
0.10495
0.069291
0.05146
0.038724
0.038724
0.038724
0.05146
0.071838
0.084574
0.11259
0.14061
0.1559
0.18137
0.21703
0.23741
0.27307
0.32402
0.41572
0.56346
0.76469
1.0143
1.264
1.4958
1.6741
1.7887
1.8294
1.7887
1.6919
1.5492
1.3557
1.1672
0.98121
0.81564
0.66026
0.54818
0.44119
0.36223
0.29854
0.25524
0.22213
0.2043
0.18392
0.18392
0.17373
0.17882
0.19411
0.20684
0.23232
0.2425
0.25779
0.27562
0.2909
0.30873
0.34185
0.37496
0.43864
0.54563
0.70865
0.94045
1.1977
1.4397
1.6613
1.804
1.888
1.8957
1.8371
1.7225
1.5492
1.3557
1.1773
0.98121
0.81054
0.67809
0.54563
0.44374
0.35713
0.2909
0.25269
0.20939
0.18137
0.16609
0.16354
0.16609
0.17882
0.18646
0.18901
0.21448
0.22467
0.24505
0.25524
0.28071
0.30364
0.32911
0.37496
0.48449
0.65261
0.89206
1.157
1.4321
1.6511
1.8294
1.9313
1.9645
1.9135
1.8116
1.6537
1.4525
1.2538
1.0347
0.84366
0.67554
0.53034
0.40808
0.30873
0.22722
0.17118
0.13297
0.11005
0.087122
0.07948
0.076933
0.07948
0.089669
0.097311
0.12024
0.13552
0.1559
0.18137
0.2043
0.22213
0.26034
0.29345
0.35204
0.45902
0.65261
0.92262
1.2105
1.483
1.7454
1.9313
2.0714
2.1173
2.1046
2.0128
1.8575
1.6588
1.427
1.2028
0.97357
0.77743
0.60676
0.45138
0.33166
0.22213
0.16354
0.10241
0.056555
0.028535
0.010704
0.0030622
0.0030622
0.013251
0.031082
0.041271
0.056555
0.087122
0.099858
0.13807
0.15335
0.18646
0.21194
0.25269
0.32911
0.45393
0.6628
0.92517
1.1926
1.455
1.6664
1.8244
1.9237
1.9211
1.8677
1.7428
1.5569
1.3658
1.1417
0.94555
0.7596
0.60422
0.46157
0.34439
0.26543
0.1992
0.14316
0.10495
0.094763
0.07948
0.064196
0.064196
0.084574
0.087122
0.1075
0.11514
0.13552
0.16354
0.19411
0.21448
0.24505
0.28326
0.31383
0.37751
0.49468
0.66535
0.91243
1.1875
1.455
1.6715
1.8396
1.9339
1.9568
1.9211
1.8014
1.6409
1.4474
1.2385
1.0449
0.85385
0.68827
0.55072
0.44119
0.35204
0.27307
0.22467
0.17882
0.14316
0.12024
0.11259
0.1075
0.11005
0.12278
0.13297
0.14826
0.16354
0.17628
0.1992
0.21194
0.23741
0.25015
0.28836
0.34694
0.45647
0.63733
0.88441
1.1544
1.4168
1.6511
1.8142
1.9364
1.9772
1.9441
1.8447
1.6944
1.5034
1.292
1.0755
0.87677
0.70356
0.55582
0.42591
0.32147
0.22977
0.16863
0.13807
0.10241
0.094763
0.082027
0.084574
0.082027
0.092216
0.10241
0.12278
0.14571
0.15844
0.17373
0.17882
0.2043
0.21958
0.24505
0.25779
0.296
0.37241
0.50232
0.70865
0.96593
1.2359
1.4703
1.6843
1.8218
1.8906
1.8957
1.8116
1.6817
1.5136
1.3098
1.1213
0.93281
0.76215
0.62714
0.50487
0.40808
0.31638
0.26543
0.22467
0.19156
0.17373
0.16863
0.16609
0.17118
0.17373
0.19411
0.2043
0.21448
0.24505
0.25779
0.27307
0.30109
0.31638
0.35204
0.36987
0.40808
0.45138
0.55327
0.71375
0.93791
1.1773
1.4372
1.6511
1.8091
1.8931
1.9135
1.8447
1.725
1.5594
1.3786
1.1799
1.0041
0.83347
0.70101
0.57365
0.4794
0.39789
0.33421
0.28836
0.2476
0.23486
0.21958
0.21448
0.20939
0.22213
0.21958
0.23996
0.25269
0.26034
0.27562
0.28836
0.30109
0.32147
0.34185
0.36223
0.3877
0.45902
0.57874
0.77233
1.0067
1.2614
1.5136
1.7148
1.8498
1.911
1.911
1.8244
1.6919
1.511
1.3225
1.1162
0.93536
0.7596
0.61695
0.49978
0.39534
0.31892
0.2476
0.20684
0.18646
0.16354
0.1508
0.15844
0.1559
0.16354
0.17373
0.18646
0.20939
0.21703
0.23996
0.26034
0.27562
0.28836
0.32147
0.34694
0.3826
0.47431
0.63733
0.86913
1.1417
1.4091
1.6588
1.8549
1.9848
2.0536
2.0383
1.9517
1.8116
1.618
1.4066
1.185
0.98121
0.80035
0.63478
0.48959
0.37496
0.28326
0.21448
0.16609
0.12533
0.1075
0.092216
0.082027
0.074385
0.089669
0.099858
0.11005
0.12024
0.14316
0.16609
0.17882
0.21448
0.22722
0.25269
0.28071
0.34694
0.45647
0.64242
0.91243
1.2028
1.4703
1.7123
1.9008
2.0281
2.0714
2.0536
1.9645
1.8142
1.6206
1.4066
1.1824
0.96847
0.77488
0.59403
0.44629
0.33421
0.24505
0.16354
0.11005
0.074385
0.05146
0.031082
0.028535
0.031082
0.043818
0.043818
0.059102
0.082027
0.099858
0.12533
0.14826
0.17118
0.18646
0.21703
0.25779
0.30109
0.39789
0.55582
0.8029
1.0856
1.3709
1.6282
1.8422
1.9797
2.0663
2.0663
1.9899
1.8524
1.6613
1.4474
1.2283
1.0092
0.8029
0.6195
0.47685
0.35204
0.26034
0.18137
0.12533
0.082027
0.054007
0.031082
0.028535
0.028535
0.033629
0.05146
0.056555
0.076933
0.092216
0.12024
0.14571
0.16354
0.19156
0.22977
0.25524
0.28581
0.35713
0.46921
0.64242
0.88696
1.1595
1.4142
1.6282
1.7989
1.8957
1.9135
1.8651
1.7377
1.5747
1.3862
1.1824
0.9863
0.81309
0.65261
0.52016
0.40553
0.31892
0.25269
0.2043
0.17628
0.14826
0.14316
0.13552
0.14316
0.14316
0.15335
0.16354
0.17628
0.1992
0.22467
0.23741
0.25779
0.28326
0.29854
0.32656
0.35458
0.43864
0.57874
0.78252
1.0576
1.3378
1.5976
1.8167
1.9695
2.0562
2.0663
1.9976
1.8829
1.7072
1.4958
1.2818
1.0602
0.86913
0.69337
0.54563
0.41827
0.31128
0.22977
0.17628
0.13043
0.10241
0.082027
0.076933
0.069291
0.082027
0.089669
0.10495
0.11259
0.14316
0.16354
0.18646
0.20684
0.22467
0.25015
0.28581
0.3393
0.44883
0.62969
0.87932
1.1697
1.4575
1.7301
1.9364
2.0867
2.158
2.158
2.0867
1.9466
1.7505
1.534
1.3022
1.0755
0.86149
0.67554
0.51251
0.37496
0.26288
0.16609
0.10495
0.05146
0.013251
-0.0096741
-0.030052
-0.024958
-0.014769
-0.019863
0.0081567
0.015798
0.038724
0.064196
0.087122
0.11514
0.13807
0.16863
0.21448
0.28326
0.41572
0.62205
0.90989
1.213
1.5238
1.7785
2.0001
2.1504
2.2243
2.2319
2.1606
2.0179
1.8218
1.5849
1.3429
1.0958
0.87422
0.65516
0.48959
0.33421
0.21194
0.11005
0.038724
-0.019863
-0.047883
-0.080997
-0.07845
-0.091186
-0.086092
-0.068261
-0.058072
-0.040241
-0.017316
0.015798
0.033629
0.061649
0.092216
0.11514
0.1559
0.21448
0.33421
0.50487
0.77233
1.0678
1.3658
1.6409
1.8702
2.0332
2.1122
2.1224
2.0562
1.9313
1.7403
1.5187
1.292
1.0551
0.84366
0.64497
0.47685
0.33675
0.22467
0.13552
0.064196
0.015798
-0.019863
-0.05043
-0.052978
-0.047883
-0.040241
-0.024958
-0.0045796
0.0056094
0.033629
0.056555
0.092216
0.11005
0.13807
0.16354
0.21448
0.25015
0.32402
0.46666
0.6679
0.93791
1.2181
1.4983
1.7276
1.9008
2.0078
2.0383
1.9925
1.8753
1.7225
1.5238
1.3047
1.0882
0.89715
0.7112
0.56091
0.42591
0.32402
0.23996
0.17118
0.12024
0.087122
0.066744
0.05146
0.054007
0.061649
0.064196
0.082027
0.11005
0.12533
0.14061
0.17118
0.20175
0.22722
0.25524
0.28326
0.32911
0.42591
0.59657
0.84875
1.129
1.4295
1.6919
1.9033
2.0663
2.1428
2.1529
2.0918
1.9517
1.7734
1.5467
1.3225
1.1009
0.88696
0.69592
0.53034
0.39025
0.27307
0.17628
0.11005
0.064196
0.020893
-0.0045796
-0.017316
-0.012221
-0.014769
0.0005149
0.020893
0.033629
0.05146
0.076933
0.094763
0.13297
0.1559
0.18392
0.21958
0.27562
0.3877
0.58129
0.8513
1.1646
1.4677
1.753
1.9823
2.1606
2.2548
2.2752
2.2115
2.0944
1.8982
1.6766
1.4244
1.1799
0.9481
0.72648
0.54053
0.3826
0.2476
0.13043
0.05146
-0.0020324
-0.05043
-0.080997
-0.10138
-0.096281
-0.10138
-0.096281
-0.063167
-0.052978
-0.040241
-0.0045796
0.02344
0.05146
0.082027
0.12278
0.14316
0.2043
0.28071
0.431
0.65007
0.92517
1.2334
1.5009
1.7479
1.9364
2.0434
2.0816
2.0383
1.939
1.7683
1.5543
1.3353
1.1086
0.8946
0.70611
0.52525
0.39789
0.27307
0.19156
0.11259
0.069291
0.033629
0.020893
0.0030622
0.0005149
0.010704
0.028535
0.038724
0.056555
0.069291
0.099858
0.12278
0.14316
0.17628
0.2043
0.23232
0.28836
0.35713
0.51506
0.73667
1.0296
1.3251
1.6078
1.8447
2.0103
2.1249
2.1631
2.1198
2.0001
1.8294
1.6257
1.3964
1.1621
0.93536
0.73158
0.55836
0.41827
0.30109
0.20175
0.13807
0.092216
0.048913
0.025987
0.015798
0.0081567
0.010704
0.018346
0.031082
0.046366
0.066744
0.087122
0.1075
0.14061
0.16609
0.19411
0.23232
0.296
0.41572
0.60931
0.88187
1.1875
1.4932
1.7581
1.9797
2.1402
2.2192
2.2345
2.1555
2.0205
1.8218
1.5926
1.348
1.1111
0.87677
0.67044
0.49978
0.35458
0.22213
0.13297
0.064196
-0.0020324
-0.030052
-0.05043
-0.068261
-0.070808
-0.065714
-0.052978
-0.032599
-0.014769
0.0056094
0.036177
0.048913
0.084574
0.11769
0.14571
0.19411
0.27562
0.43355
0.6679
0.96847
1.2945
1.6078
1.8728
2.0969
2.2497
2.3262
2.3338
2.2472
2.0995
1.9008
1.669
1.399
1.1493
0.90224
0.68063
0.50232
0.33675
0.20684
0.094763
0.018346
-0.05043
-0.086092
-0.1243
-0.14468
-0.14468
-0.14977
-0.14213
-0.1243
-0.10392
-0.080997
-0.047883
-0.024958
0.010704
0.036177
0.07948
0.11514
0.2043
0.34185
0.5711
0.85639
1.1646
1.4703
1.7301
1.9288
2.0816
2.1402
2.1275
2.0307
1.8906
1.6817
1.4474
1.2054
0.97866
0.76215
0.58129
0.41317
0.28071
0.17373
0.092216
0.031082
-0.012221
-0.032599
-0.047883
-0.058072
-0.060619
-0.040241
-0.024958
-0.012221
0.0081567
0.033629
0.059102
0.087122
0.11514
0.14571
0.18392
0.22467
0.31383
0.46412
0.69337
0.98121
1.2843
1.5594
1.804
1.9925
2.0995
2.1249
2.0867
1.9772
1.804
1.5926
1.3557
1.1315
0.91243
0.72139
0.55072
0.40298
0.28581
0.20684
0.13043
0.082027
0.041271
0.020893
0.015798
0.018346
0.015798
0.025987
0.046366
0.064196
0.082027
0.11005
0.13552
0.15335
0.18646
0.20939
0.26288
0.33166
0.4794
0.71375
1.0067
1.3098
1.6053
1.8626
2.0689
2.209
2.2625
2.2396
2.1377
1.9823
1.7836
1.5391
1.2945
1.0576
0.82837
0.64497
0.46921
0.32402
0.20939
0.11514
0.05146
-0.0045796
-0.037694
-0.055525
-0.070808
-0.063167
-0.05043
-0.042789
-0.032599
-0.0045796
0.015798
0.041271
0.076933
0.092216
0.12533
0.18392
0.27562
0.45393
0.72903
1.05
1.3862
1.6995
1.9695
2.1886
2.344
2.4179
2.4051
2.3287
2.1759
1.967
1.7199
1.4474
1.1901
0.93536
0.70356
0.49468
0.33166
0.18137
0.066744
-0.035147
-0.11156
-0.15996
-0.19308
-0.20327
-0.2211
-0.216
-0.20836
-0.19053
-0.1676
-0.14468
-0.11411
-0.086092
-0.047883
-0.0096741
0.028535
0.13043
0.28836
0.54818
0.86658
1.2156
1.5594
1.8753
2.13
2.3185
2.4459
2.479
2.4357
2.3058
2.102
1.86
1.5926
1.32
1.0398
0.77743
0.55072
0.35204
0.1992
0.054007
-0.055525
-0.14213
-0.19817
-0.23638
-0.27459
-0.28987
-0.29497
-0.29242
-0.28223
-0.2644
-0.24657
-0.21855
-0.18289
-0.14977
-0.11156
-0.075903
-0.017316
0.084574
0.27052
0.53799
0.86658
1.1952
1.5059
1.7836
2.0052
2.1479
2.2217
2.2141
2.1147
1.9594
1.7556
1.5263
1.2792
1.0398
0.8029
0.58893
0.41062
0.25779
0.14571
0.056555
-0.030052
-0.083545
-0.11411
-0.14213
-0.13958
-0.14213
-0.13704
-0.1243
-0.10902
-0.075903
-0.055525
-0.024958
-0.0020324
0.031082
0.076933
0.13297
0.23486
0.4361
0.70356
1.0169
1.3531
1.6562
1.9161
2.1275
2.2548
2.3262
2.288
2.2013
2.0332
1.8193
1.5849
1.3327
1.0882
0.86404
0.65007
0.47431
0.30619
0.19156
0.076933
-0.0020324
-0.060619
-0.093734
-0.12175
-0.13194
-0.13958
-0.13704
-0.1294
-0.10647
-0.091186
-0.065714
-0.032599
-0.0020324
0.028535
0.069291
0.14061
0.27052
0.49978
0.81054
1.1417
1.4881
1.804
2.0791
2.2981
2.4459
2.5096
2.4866
2.3746
2.1886
1.967
1.6944
1.4244
1.1493
0.88951
0.65516
0.44629
0.26543
0.12278
0.0030622
-0.086092
-0.16251
-0.20836
-0.22874
-0.25166
-0.25676
-0.25166
-0.24912
-0.23129
-0.20327
-0.18034
-0.14468
-0.1243
-0.083545
-0.042789
0.02344
0.13043
0.32147
0.62205
0.95828
1.3047
1.6384
1.9339
2.1784
2.3465
2.4357
2.4408
2.3567
2.2013
1.9797
1.7225
1.4397
1.1723
0.91753
0.67299
0.46412
0.28071
0.13297
0.0030622
-0.091186
-0.15996
-0.21091
-0.25166
-0.2644
-0.28478
-0.27714
-0.26185
-0.24912
-0.22364
-0.19817
-0.16251
-0.1294
-0.10138
-0.052978
-0.012221
0.064196
0.19411
0.42845
0.72139
1.0602
1.3913
1.6944
1.939
2.13
2.2447
2.2727
2.2217
2.0969
1.9161
1.6893
1.4346
1.1773
0.94045
0.72139
0.51761
0.35968
0.21703
0.1075
0.028535
-0.042789
-0.096281
-0.11156
-0.13449
-0.15232
-0.13958
-0.13194
-0.11666
-0.098828
-0.075903
-0.040241
-0.0096741
0.013251
0.061649
0.089669
0.16354
0.28326
0.4794
0.76724
1.0984
1.4448
1.7428
2.0205
2.2243
2.3542
2.3975
2.3669
2.2625
2.0944
1.8753
1.6104
1.3429
1.0882
0.84366
0.6195
0.42336
0.27562
0.13807
0.028535
-0.045336
-0.10138
-0.14723
-0.1727
-0.18289
-0.18798
-0.18798
-0.17015
-0.14977
-0.1294
-0.10647
-0.065714
-0.047883
-0.0045796
0.025987
0.071838
0.1508
0.30619
0.55072
0.86913
1.2181
1.5594
1.8855
2.1428
2.344
2.4663
2.5045
2.4561
2.3236
2.1224
1.8804
1.5951
1.3149
1.0449
0.78762
0.55327
0.35968
0.19156
0.056555
-0.05043
-0.1243
-0.18034
-0.22874
-0.25676
-0.25676
-0.26185
-0.24912
-0.22874
-0.20581
-0.18034
-0.15742
-0.1243
-0.096281
-0.058072
-0.019863
0.041271
0.099858
0.23486
0.44629
0.73158
1.0372
1.3608
1.6613
1.9161
2.0893
2.2064
2.2294
2.1835
2.0409
1.8626
1.6409
1.3862
1.1417
0.8997
0.69337
0.49978
0.33675
0.21703
0.11259
0.048913
-0.012221
-0.052978
-0.080997
-0.088639
-0.10647
-0.086092
-0.080997
-0.058072
-0.040241
-0.019863
0.0056094
0.048913
0.076933
0.10241
0.13297
0.18901
0.25269
0.40298
0.62205
0.90734
1.2359
1.5492
1.8218
2.0485
2.2039
2.2905
2.293
2.2115
2.0714
1.8728
1.6384
1.3837
1.1391
0.90224
0.70356
0.5227
0.36477
0.22977
0.13297
0.054007
0.0005149
-0.030052
-0.055525
-0.075903
-0.073356
-0.073356
-0.055525
-0.047883
-0.030052
-0.0096741
0.015798
0.048913
0.066744
0.10495
0.14061
0.19411
0.28581
0.46157
0.73158
1.0449
1.3658
1.6766
1.9339
2.1402
2.2854
2.3389
2.3236
2.2268
2.0612
1.8447
1.5976
1.3378
1.0806
0.85385
0.63733
0.44883
0.28836
0.17118
0.064196
-0.012221
-0.068261
-0.11156
-0.14213
-0.14213
-0.15232
-0.14468
-0.13704
-0.11411
-0.093734
-0.065714
-0.042789
0.0005149
0.031082
0.061649
0.10241
0.1508
0.24505
0.41062
0.67044
0.9914
1.3098
1.6231
1.9059
2.1351
2.2803
2.3567
2.3465
2.2599
2.0944
1.8855
1.6384
1.3786
1.1162
0.87168
0.64752
0.46412
0.30109
0.16354
0.056555
-0.017316
-0.07845
-0.11921
-0.14468
-0.1676
-0.16251
-0.15742
-0.15232
-0.13958
-0.11156
-0.080997
-0.065714
-0.027505
0.013251
0.038724
0.069291
0.11769
0.18901
0.31128
0.49978
0.76724
1.0831
1.3862
1.6537
1.8778
2.0332
2.1249
2.1275
2.0409
1.911
1.7123
1.4856
1.2385
1.0143
0.79526
0.60167
0.431
0.30109
0.18901
0.11259
0.043818
-0.0045796
-0.032599
-0.060619
-0.065714
-0.058072
-0.047883
-0.035147
-0.02241
-0.0096741
0.028535
0.043818
0.066744
0.099858
0.13297
0.17373
0.20939
0.27307
0.37496
0.56346
0.81564
1.1111
1.3913
1.6639
1.86
2.0128
2.0791
2.074
1.995
1.8575
1.6639
1.4499
1.2334
1.0118
0.81309
0.64752
0.49978
0.39025
0.29345
0.22467
0.16609
0.13297
0.10495
0.094763
0.092216
0.094763
0.10241
0.11005
0.14061
0.15335
0.17118
0.19156
0.21703
0.23486
0.25524
0.27307
0.30873
0.37496
0.50232
0.70865
0.97866
1.2614
1.5492
1.7963
1.9797
2.0995
2.1529
2.1249
2.0205
1.8549
1.646
1.4244
1.1952
0.97357
0.77233
0.58893
0.44629
0.32147
0.22722
0.16354
0.11005
0.082027
0.056555
0.031082
0.031082
0.028535
0.033629
0.046366
0.05146
0.076933
0.097311
0.12788
0.14571
0.16863
0.20175
0.22467
0.27562
0.33421
0.44374
0.64497
0.8946
1.1952
1.4856
1.7377
1.939
2.0791
2.1402
2.1275
2.046
1.8829
1.6792
1.4474
1.2156
0.98885
0.77743
0.59657
0.45138
0.32147
0.22467
0.14061
0.082027
0.054007
0.020893
0.013251
0.010704
0.015798
0.025987
0.033629
0.05146
0.076933
0.11259
0.13297
0.16099
0.17882
0.20939
0.22722
0.26543
0.30619
0.37241
0.50997
0.70611
0.96083
1.2385
1.5009
1.7123
1.8753
1.9568
1.9695
1.9084
1.7887
1.6129
1.4142
1.2156
1.0194
0.83347
0.6628
0.54053
0.42081
0.32147
0.2476
0.20175
0.15335
0.12533
0.12024
0.097311
0.097311
0.11005
0.11259
0.13297
0.14316
0.16863
0.18901
0.21958
0.22722
0.25779
0.28326
0.30619
0.35713
0.44119
0.58129
0.79781
1.0653
1.3455
1.6078
1.8193
1.9695
2.0536
2.0663
1.9976
1.8626
1.6766
1.4677
1.2665
1.0398
0.85385
0.68063
0.53034
0.41317
0.31638
0.24505
0.18646
0.14571
0.11769
0.094763
0.084574
0.097311
0.10241
0.1075
0.12024
0.14061
0.16609
0.19411
0.21703
0.24505
0.26543
0.27562
0.30364
0.35713
0.45393
0.62459
0.87677
1.1493
1.427
1.6792
1.8753
2.0103
2.0663
2.0612
1.9772
1.832
1.6308
1.4168
1.185
0.98121
0.78507
0.59912
0.45902
0.33675
0.25269
0.17628
0.12533
0.082027
0.069291
0.05146
0.054007
0.05146
0.061649
0.061649
0.071838
0.087122
0.11005
0.12533
0.14571
0.17628
0.20175
0.23232
0.25524
0.32911
0.45138
0.64752
0.92517
1.2028
1.4805
1.7199
1.9059
2.0281
2.0791
2.0434
1.9492
1.7938
1.5849
1.3684
1.1391
0.93281
0.73413
0.5762
0.431
0.30873
0.22467
0.1508
0.099858
0.064196
0.038724
0.025987
0.015798
0.025987
0.028535
0.038724
0.059102
0.084574
0.10495
0.12024
0.1508
0.17118
0.1992
0.22213
0.27562
0.33421
0.47176
0.67044
0.93536
1.2334
1.5034
1.7428
1.9262
2.0434
2.0791
2.0485
1.939
1.7734
1.5798
1.3608
1.1315
0.92262
0.73413
0.57365
0.4361
0.31638
0.22977
0.16099
0.11769
0.066744
0.056555
0.041271
0.041271
0.041271
0.054007
0.061649
0.074385
0.099858
0.12278
0.14061
0.17118
0.19411
0.22213
0.2476
0.29345
0.37496
0.51251
0.72903
1.0016
1.2818
1.5416
1.781
1.9364
2.0307
2.0612
2.0078
1.888
1.7199
1.5161
1.292
1.0882
0.87677
0.69592
0.53799
0.41062
0.29854
0.21448
0.1508
0.10495
0.066744
0.046366
0.031082
0.028535
0.048913
0.05146
0.061649
0.084574
0.11005
0.12024
0.14826
0.17882
0.19156
0.21958
0.24505
0.28836
0.34949
0.47176
0.64752
0.8946
1.1773
1.4244
1.6588
1.8116
1.9008
1.9084
1.8524
1.7352
1.562
1.3658
1.157
0.96847
0.79017
0.63224
0.49468
0.3877
0.30619
0.2476
0.19411
0.15844
0.14061
0.13043
0.11005
0.11259
0.12533
0.13807
0.1559
0.17628
0.18901
0.21194
0.22467
0.25524
0.26798
0.29854
0.33166
0.36732
0.44119
0.5711
0.76724
1.0398
1.3098
1.5645
1.7836
1.9364
2.0052
2.0179
1.9441
1.8116
1.6333
1.4295
1.2308
1.0423
0.85385
0.69846
0.55582
0.44629
0.35713
0.296
0.23486
0.19411
0.17118
0.1508
0.14316
0.14571
0.14316
0.1508
0.16609
0.17882
0.1992
0.22213
0.2425
0.25779
0.28071
0.29854
0.34185
0.39534
0.51761
0.7112
0.95574
1.2461
1.5365
1.7836
1.9645
2.0995
2.1428
2.1147
2.0205
1.8651
1.669
1.4474
1.2181
0.99649
0.79017
0.61695
0.46921
0.34694
0.2425
0.16609
0.10241
0.048913
0.02344
0.0056094
-0.0020324
0.0005149
0.010704
0.02344
0.046366
0.059102
0.074385
0.094763
0.12024
0.14316
0.17882
0.21194
0.26543
0.36987
0.56346
0.82583
1.1366
1.4346
1.7199
1.9492
2.1096
2.2039
2.2345
2.1784
2.046
1.8549
1.6409
1.3964
1.1519
0.91753
0.70356
0.52525
0.36477
0.23996
0.13297
0.056555
-0.0071269
-0.040241
-0.060619
-0.083545
-0.088639
-0.083545
-0.073356
-0.058072
-0.052978
-0.024958
0.0005149
0.031082
0.064196
0.099858
0.13552
0.18137
0.2476
0.37751
0.59912
0.88441
1.1799
1.4805
1.753
1.9594
2.0969
2.1708
2.158
2.0714
1.9186
1.7199
1.4881
1.2563
1.0245
0.808
0.6144
0.44883
0.30364
0.19156
0.1075
0.041271
-0.0096741
-0.035147
-0.060619
-0.068261
-0.073356
-0.055525
-0.052978
-0.037694
-0.017316
0.015798
0.041271
0.069291
0.087122
0.12024
0.1559
0.2043
0.26798
0.39025
0.60676
0.88441
1.185
1.4652
1.7174
1.911
2.0383
2.0816
2.0485
1.9568
1.8091
1.6104
1.3862
1.1621
0.9481
0.7596
0.58893
0.44374
0.32402
0.22977
0.15335
0.10241
0.069291
0.043818
0.028535
0.018346
0.015798
0.02344
0.036177
0.059102
0.071838
0.097311
0.12024
0.14826
0.17628
0.20939
0.23232
0.28836
0.38515
0.56601
0.81819
1.1162
1.4091
1.6944
1.9364
2.1071
2.2039
2.2294
2.1708
2.0332
1.8549
1.6486
1.3939
1.1672
0.93791
0.73413
0.54308
0.39534
0.26798
0.16863
0.089669
0.031082
-0.0096741
-0.042789
-0.045336
-0.063167
-0.055525
-0.042789
-0.037694
-0.027505
0.0005149
0.018346
0.056555
0.07948
0.10241
0.14061
0.17628
0.24505
0.36477
0.57365
0.86149
1.185
1.4881
1.7836
2.0281
2.2115
2.3109
2.3389
2.2905
2.1657
1.9797
1.753
1.4958
1.241
0.9914
0.76724
0.56855
0.3877
0.24505
0.12788
0.031082
-0.040241
-0.086092
-0.11156
-0.13449
-0.14468
-0.14213
-0.13194
-0.11156
-0.086092
-0.065714
-0.047883
-0.014769
0.010704
0.041271
0.07948
0.11259
0.16354
0.2476
0.40808
0.6628
0.97102
1.2894
1.59
1.8524
2.0562
2.1963
2.2523
2.2217
2.1198
1.9543
1.7428
1.5085
1.2614
1.0194
0.79271
0.59148
0.42591
0.29345
0.17373
0.087122
0.015798
-0.019863
-0.060619
-0.073356
-0.073356
-0.080997
-0.068261
-0.060619
-0.030052
-0.0071269
0.0081567
0.028535
0.059102
0.084574
0.11259
0.1508
0.18392
0.25015
0.36223
0.56346
0.83856
1.1442
1.4652
1.7428
1.9823
2.1682
2.2778
2.2905
2.237
2.102
1.9186
1.7021
1.4575
1.2079
0.96593
0.75196
0.55327
0.39279
0.25779
0.15335
0.059102
-0.0096741
-0.05043
-0.07845
-0.086092
-0.10138
-0.098828
-0.098828
-0.086092
-0.068261
-0.047883
-0.0096741
0.0081567
0.028535
0.074385
0.097311
0.13807
0.18392
0.27052
0.431
0.67044
0.97102
1.2869
1.5773
1.8345
2.0307
2.1504
2.1886
2.158
2.0485
1.8957
1.6817
1.455
1.2105
0.98121
0.77488
0.58893
0.41317
0.2909
0.18392
0.099858
0.038724
-0.0096741
-0.030052
-0.047883
-0.058072
-0.052978
-0.045336
-0.027505
-0.014769
0.018346
0.041271
0.056555
0.092216
0.11769
0.1508
0.17373
0.21448
0.26798
0.37751
0.56601
0.81819
1.1188
1.427
1.697
1.9161
2.0791
2.1631
2.158
2.0842
1.9492
1.7607
1.5467
1.3047
1.0729
0.86404
0.67554
0.50487
0.36477
0.2476
0.16609
0.10241
0.043818
0.013251
-0.012221
-0.017316
-0.019863
-0.017316
-0.0071269
0.010704
0.033629
0.05146
0.071838
0.10495
0.12533
0.15335
0.18646
0.20939
0.25779
0.31892
0.44119
0.63224
0.91243
1.2054
1.4907
1.7403
1.9364
2.0587
2.1096
2.074
1.967
1.8116
1.6129
1.3888
1.1773
0.96083
0.76979
0.59657
0.45138
0.33675
0.24505
0.17118
0.11259
0.069291
0.041271
0.036177
0.028535
0.038724
0.046366
0.046366
0.071838
0.089669
0.11259
0.13552
0.16354
0.19411
0.22213
0.24505
0.28326
0.32147
0.40298
0.54053
0.75196
1.0194
1.3098
1.5773
1.7836
1.9492
2.0332
2.0383
1.9848
1.8575
1.6766
1.4677
1.2563
1.05
0.85639
0.69337
0.55072
0.42336
0.32402
0.23741
0.18137
0.14316
0.10495
0.07948
0.07948
0.076933
0.076933
0.076933
0.099858
0.11769
0.13807
0.15335
0.18646
0.21194
0.23486
0.2476
0.28581
0.31383
0.37751
0.46921
0.64242
0.87677
1.1621
1.4295
1.6664
1.8447
1.9594
1.9976
1.967
1.8651
1.6995
1.5187
1.3225
1.1111
0.92517
0.75196
0.59148
0.46412
0.36732
0.27052
0.21958
0.16354
0.13043
0.11514
0.099858
0.099858
0.099858
0.11005
0.11769
0.13807
0.15844
0.17373
0.19156
0.21958
0.23996
0.26288
0.27562
0.31128
0.38006
0.48704
0.68063
0.93791
1.2232
1.511
1.753
1.9492
2.0765
2.1224
2.0944
2.0001
1.8447
1.6486
1.4295
1.2003
0.98121
0.79017
0.62714
0.47685
0.35458
0.25779
0.18646
0.13807
0.092216
0.064196
0.048913
0.048913
0.046366
0.048913
0.059102
0.071838
0.092216
0.12024
0.13552
0.1559
0.18646
0.22722
0.26798
0.31383
0.40298
0.53544
0.76979
1.0551
1.4091
1.7479
2.0587
2.2829
2.4204
2.4688
2.423
2.293
2.1479
1.9619
1.7428
1.4856
1.2105
0.92517
0.67809
0.45647
0.2909
0.15335
0.031082
-0.019863
-0.070808
-0.080997
-0.10392
-0.1243
-0.15232
-0.1727
-0.19053
-0.17779
-0.18034
-0.15996
-0.1243
-0.096281
-0.060619
-0.017316
0.025987
0.12278
0.22722
0.33675
0.54053
0.79781
1.0755
1.348
1.6333
1.8957
2.0689
2.1733
2.1963
2.1377
2.023
1.8753
1.6486
1.4142
1.1824
0.92517
0.71375
0.52525
0.34439
0.21448
0.094763
0.0081567
-0.058072
-0.096281
-0.12685
-0.14213
-0.13958
-0.10647
-0.086092
-0.073356
-0.052978
-0.027505
-0.0096741
0.020893
0.046366
0.082027
0.1075
0.14061
0.18392
0.25779
0.3877
0.59657
0.87168
1.1799
1.4728
1.7352
1.939
2.0816
2.158
2.1377
2.0562
1.9059
1.6995
1.4652
1.2359
1.0067
0.79017
0.60931
0.44374
0.30873
0.21703
0.12788
0.066744
0.010704
-0.014769
-0.035147
-0.02241
-0.014769
-0.0096741
0.0081567
0.02344
0.071838
0.092216
0.1508
0.18646
0.2043
0.21703
0.22722
0.25524
0.28581
0.36223
0.50742
0.74941
1.0372
1.3531
1.6486
1.9033
2.1046
2.237
2.288
2.2523
2.1529
1.9976
1.781
1.5492
1.2996
1.0627
0.83602
0.64497
0.47431
0.32656
0.21194
0.11769
0.048913
0.0056094
-0.032599
-0.055525
-0.05043
-0.042789
-0.042789
-0.024958
-0.02241
-0.0020324
0.010704
0.048913
0.069291
0.084574
0.11769
0.14316
0.17882
0.22213
0.29345
0.42591
0.63733
0.92008
1.2232
1.5161
1.7683
1.9721
2.0969
2.1377
2.1071
1.9976
1.8447
1.6333
1.4015
1.1799
0.96338
0.76215
0.58384
0.44119
0.32402
0.23741
0.1559
0.094763
0.056555
0.041271
0.02344
0.013251
0.028535
0.036177
0.041271
0.056555
0.074385
0.099858
0.11514
0.14571
0.16863
0.18646
0.21958
0.25269
0.29345
0.37751
0.51506
0.73667
1.0296
1.3276
1.5976
1.832
2.0103
2.1071
2.1377
2.0867
1.967
1.7912
1.5773
1.3455
1.1188
0.89715
0.71375
0.54563
0.40298
0.2909
0.19156
0.13043
0.082027
0.036177
0.015798
0.015798
0.015798
0.018346
0.031082
0.038724
0.059102
0.061649
0.092216
0.11769
0.14061
0.16099
0.19411
0.22213
0.25524
0.296
0.36732
0.48704
0.71375
0.98885
1.2894
1.5722
1.8218
2.0027
2.1173
2.1631
2.1377
2.0434
1.8855
1.6792
1.4474
1.2181
0.99904
0.79781
0.60931
0.45902
0.33421
0.2425
0.15844
0.10241
0.066744
0.036177
0.025987
0.0030622
0.013251
0.018346
0.028535
0.046366
0.061649
0.084574
0.099858
0.12278
0.1508
0.18392
0.20684
0.22977
0.27562
0.31128
0.41317
0.58638
0.83347
1.1315
1.4193
1.6944
1.9161
2.0765
2.1657
2.1861
2.1147
2.0001
1.804
1.59
1.3557
1.1162
0.90734
0.70101
0.53544
0.39534
0.27817
0.19665
0.13043
0.076933
0.036177
0.015798
0.0030622
0.0056094
-0.0020324
0.018346
0.031082
0.036177
0.064196
0.092216
0.10241
0.13552
0.16099
0.17882
0.20684
0.23996
0.27562
0.32656
0.40808
0.5711
0.79526
1.078
1.3608
1.618
1.8193
1.967
2.0383
2.0383
1.9619
1.8269
1.6537
1.4525
1.2334
1.0271
0.83092
0.6628
0.50487
0.37496
0.28071
0.19411
0.13552
0.10495
0.082027
0.061649
0.046366
0.059102
0.064196
0.074385
0.094763
0.11005
0.13297
0.16354
0.19156
0.2043
0.22467
0.24505
0.27307
0.28836
0.31638
0.35713
0.41827
0.54308
0.71629
0.95828
1.2181
1.4601
1.6562
1.8091
1.8728
1.8549
1.781
1.6384
1.4677
1.2894
1.106
0.91753
0.7596
0.63224
0.51251
0.42081
0.34694
0.29854
0.26543
0.22977
0.2043
0.20175
0.1992
0.1992
0.20939
0.21958
0.23741
0.2476
0.26288
0.27562
0.296
0.32147
0.34185
0.35968
0.36732
0.40553
0.42591
0.47431
0.56091
0.69082
0.90224
1.1468
1.4041
1.6359
1.8091
1.9161
1.9568
1.9161
1.8244
1.6588
1.4881
1.2894
1.0933
0.91753
0.76215
0.62714
0.51506
0.41827
0.34694
0.28581
0.2476
0.22722
0.2043
0.1992
0.2043
0.19665
0.1992
0.20175
0.22722
0.23232
0.25269
0.26034
0.27817
0.29854
0.31892
0.34185
0.36477
0.39789
0.43355
0.49468
0.62205
0.79781
1.0372
1.3124
1.5594
1.7683
1.911
1.9848
1.9874
1.9211
1.7912
1.6231
1.427
1.2207
1.0245
0.83602
0.68063
0.54818
0.42591
0.3393
0.26798
0.20684
0.17628
0.14826
0.13552
0.12278
0.12024
0.12533
0.14061
0.14061
0.1559
0.17373
0.1992
0.21194
0.22977
0.25269
0.27817
0.30364
0.32147
0.35458
0.41062
0.51761
0.70356
0.93536
1.2207
1.4779
1.7072
1.8804
1.9797
2.023
1.9823
1.888
1.7327
1.5442
1.3353
1.129
0.92008
0.75705
0.59657
0.47176
0.36732
0.28071
0.21194
0.16863
0.13297
0.099858
0.097311
0.082027
0.097311
0.10495
0.10495
0.12278
0.13807
0.16354
0.18646
0.20175
0.22722
0.24505
0.26798
0.28836
0.32147
0.37241
0.4361
0.56346
0.76215
1.0016
1.264
1.5085
1.7123
1.8396
1.911
1.9084
1.8269
1.6944
1.5059
1.32
1.1213
0.93791
0.75705
0.61695
0.48959
0.38006
0.30364
0.2425
0.19665
0.16354
0.13807
0.13807
0.12788
0.13807
0.13807
0.14826
0.16099
0.18901
0.19411
0.22213
0.23486
0.27052
0.28071
0.30873
0.32656
0.34949
0.38515
0.44119
0.5278
0.6628
0.86658
1.1162
1.348
1.5543
1.7072
1.7938
1.8142
1.7632
1.6511
1.5059
1.32
1.1519
0.98121
0.82328
0.68063
0.56601
0.47685
0.40043
0.35204
0.30619
0.27562
0.26288
0.24505
0.23996
0.23996
0.24505
0.25524
0.25524
0.27307
0.2909
0.29345
0.31383
0.32656
0.34949
0.36477
0.39025
0.40808
0.43864
0.50232
0.59657
0.77233
0.9914
1.2512
1.4881
1.6893
1.8371
1.9135
1.9084
1.8447
1.7301
1.5543
1.3735
1.1748
1.0041
0.82583
0.69082
0.55582
0.46157
0.38006
0.31128
0.26543
0.22722
0.20939
0.19411
0.17628
0.17882
0.18646
0.19156
0.20175
0.20939
0.23486
0.24505
0.25779
0.28581
0.29345
0.32402
0.33166
0.36987
0.41062
0.49468
0.63733
0.86149
1.1239
1.3939
1.6384
1.8218
1.9568
2.0154
1.9976
1.9135
1.7658
1.5926
1.3837
1.1748
0.97357
0.79526
0.62969
0.48449
0.38006
0.2909
0.22722
0.16863
0.14316
0.11769
0.10495
0.097311
0.097311
0.11259
0.12024
0.13807
0.14826
0.1559
0.18392
0.20939
0.22977
0.24505
0.27052
0.28836
0.32656
0.3877
0.49723
0.67044
0.91753
1.1952
1.4779
1.7072
1.8931
2.0052
2.0511
2.0383
1.9364
1.7912
1.6002
1.3862
1.1621
0.95828
0.77233
0.59912
0.46666
0.35713
0.26543
0.18392
0.14316
0.10495
0.069291
0.061649
0.054007
0.056555
0.059102
0.069291
0.084574
0.11514
0.13043
0.14316
0.17118
0.18646
0.21703
0.23232
0.26543
0.2909
0.3393
0.42845
0.59403
0.81819
1.0831
1.3327
1.5671
1.7428
1.8728
1.9059
1.8753
1.7836
1.6308
1.4397
1.241
1.0449
0.85894
0.70356
0.55582
0.4361
0.34694
0.26798
0.21448
0.17882
0.15335
0.13043
0.12788
0.13297
0.13807
0.14571
0.16099
0.18137
0.18392
0.20939
0.22722
0.24505
0.26543
0.28836
0.30619
0.34185
0.37751
0.45138
0.58638
0.78507
1.0347
1.3047
1.5391
1.753
1.8906
1.9543
1.9594
1.8753
1.7505
1.5798
1.3888
1.1799
0.99649
0.81054
0.6679
0.53544
0.42336
0.33675
0.27052
0.21958
0.18901
0.16609
0.14061
0.14316
0.14061
0.13807
0.14826
0.16609
0.18646
0.20175
0.21448
0.2425
0.25779
0.27817
0.29854
0.31892
0.36732
0.42591
0.5711
0.76724
1.0372
1.3098
1.5747
1.7887
1.9466
2.0256
2.046
1.9899
1.8728
1.6944
1.4983
1.2843
1.078
0.87677
0.69337
0.54563
0.42336
0.31638
0.2425
0.16863
0.13552
0.089669
0.071838
0.071838
0.061649
0.071838
0.07948
0.094763
0.11259
0.12533
0.14571
0.16099
0.19156
0.21194
0.23996
0.26034
0.30109
0.34949
0.46412
0.64242
0.89715
1.1977
1.4754
1.7505
1.9492
2.0995
2.181
2.1631
2.0867
1.9441
1.7632
1.5391
1.3098
1.0678
0.86404
0.6679
0.49978
0.35204
0.2476
0.15335
0.087122
0.038724
0.0081567
-0.0096741
-0.019863
-0.019863
-0.019863
0.0005149
0.018346
0.033629
0.056555
0.076933
0.097311
0.12278
0.14571
0.17373
0.19411
0.23996
0.296
0.40553
0.58638
0.83602
1.129
1.4015
1.6562
1.8524
1.9874
2.0409
2.0307
1.9339
1.781
1.59
1.3862
1.1723
0.96083
0.76979
0.60167
0.45902
0.34185
0.2425
0.17118
0.11769
0.076933
0.05146
0.036177
0.031082
0.031082
0.036177
0.05146
0.069291
0.082027
0.11005
0.13297
0.15844
0.19156
0.21194
0.24505
0.27817
0.32911
0.42081
0.58638
0.81819
1.0831
1.3684
1.618
1.8269
1.9746
2.0281
2.0332
1.9517
1.8116
1.6409
1.4346
1.2283
1.022
0.82583
0.65771
0.5227
0.40808
0.30873
0.22977
0.17373
0.13297
0.11005
0.07948
0.069291
0.059102
0.064196
0.084574
0.10241
0.11769
0.13297
0.14826
0.17628
0.20939
0.22722
0.25015
0.28581
0.33675
0.42081
0.5762
0.82328
1.1162
1.4091
1.669
1.8829
2.0409
2.1173
2.1224
2.0562
1.9237
1.7479
1.5442
1.3174
1.0958
0.89715
0.70356
0.54053
0.39789
0.27562
0.20684
0.14316
0.089669
0.059102
0.031082
0.018346
0.010704
-0.0045796
0.0005149
0.015798
0.031082
0.05146
0.069291
0.094763
0.1075
0.13043
0.15844
0.20175
0.25779
0.34694
0.52016
0.77233
1.0678
1.3837
1.6715
1.9161
2.0944
2.2115
2.2523
2.1988
2.0918
1.9135
1.7225
1.4856
1.2436
0.99904
0.79526
0.60931
0.44629
0.30109
0.18901
0.089669
0.020893
-0.032599
-0.060619
-0.07845
-0.088639
-0.098828
-0.080997
-0.063167
-0.05043
-0.014769
0.0056094
0.038724
0.061649
0.084574
0.11259
0.14061
0.18392
0.25524
0.3877
0.60931
0.88441
1.2003
1.4983
1.7556
1.9721
2.1071
2.181
2.1657
2.0944
1.9517
1.7581
1.5365
1.2894
1.0525
0.82583
0.63224
0.45902
0.31383
0.20175
0.12024
0.054007
0.010704
-0.019863
-0.05043
-0.052978
-0.047883
-0.045336
-0.030052
-0.017316
0.010704
0.025987
0.05146
0.076933
0.094763
0.12024
0.1508
0.19411
0.23486
0.32402
0.46921
0.69337
0.97357
1.2665
1.5391
1.7607
1.9288
2.0256
2.0511
2.0052
1.8778
1.6995
1.5009
1.2818
1.0755
0.86404
0.69082
0.53544
0.40808
0.30873
0.21958
0.16354
0.1075
0.076933
0.064196
0.038724
0.043818
0.048913
0.066744
0.074385
0.099858
0.11514
0.14061
0.15844
0.17628
0.20684
0.23996
0.25524
0.29854
0.37751
0.50997
0.71884
0.99395
1.2971
1.5849
1.8345
2.0281
2.1377
2.1708
2.13
2.0256
1.8753
1.6715
1.4525
1.2232
0.9863
0.78762
0.60931
0.45902
0.32402
0.23741
0.14316
0.097311
0.05146
0.020893
0.0030622
0.0030622
-0.0020324
0.0005149
0.0081567
0.031082
0.05146
0.07948
0.097311
0.12533
0.14571
0.16609
0.2043
0.24505
0.31383
0.44374
0.67044
0.94555
1.2436
1.5442
1.8091
2.0179
2.1606
2.2243
2.2064
2.1122
1.9645
1.753
1.5238
1.2843
1.0449
0.81564
0.62714
0.45647
0.31128
0.20939
0.11005
0.05146
-0.0020324
-0.017316
-0.047883
-0.055525
-0.042789
-0.042789
-0.024958
-0.019863
0.010704
0.028535
0.05146
0.071838
0.097311
0.12788
0.16099
0.18646
0.24505
0.3393
0.49723
0.73922
1.0296
1.3302
1.6129
1.8549
2.0307
2.1453
2.1708
2.1224
2.0052
1.8371
1.6129
1.3837
1.1468
0.93281
0.73158
0.54818
0.39534
0.28071
0.17882
0.11514
0.054007
0.015798
-0.0045796
-0.02241
-0.032599
-0.024958
-0.02241
0.0005149
0.0081567
0.036177
0.064196
0.084574
0.11259
0.14571
0.17118
0.19411
0.24505
0.30619
0.42845
0.61695
0.87422
1.1672
1.455
1.7097
1.911
2.0434
2.102
2.0791
1.9925
1.8473
1.6384
1.4193
1.2028
0.98121
0.78507
0.61186
0.45902
0.34185
0.2425
0.17118
0.11005
0.059102
0.043818
0.020893
0.020893
0.0081567
0.028535
0.028535
0.059102
0.076933
0.094763
0.11769
0.14316
0.16609
0.19156
0.21703
0.25269
0.31638
0.41572
0.59403
0.84111
1.1468
1.4346
1.7046
1.9288
2.0816
2.1453
2.1555
2.0663
1.9313
1.7327
1.5136
1.292
1.0525
0.8462
0.66535
0.49723
0.36477
0.25269
0.16354
0.1075
0.059102
0.02344
0.010704
-0.012221
-0.0096741
-0.0071269
0.0005149
0.02344
0.043818
0.061649
0.092216
0.11259
0.13807
0.17373
0.19411
0.23486
0.28071
0.37751
0.54563
0.80545
1.1009
1.4066
1.6995
1.9237
2.1046
2.209
2.2294
2.1682
2.0485
1.8677
1.6333
1.4066
1.1621
0.93281
0.72394
0.53799
0.39025
0.26543
0.16099
0.082027
0.031082
-0.0096741
-0.032599
-0.047883
-0.058072
-0.055525
-0.032599
-0.02241
-0.0045796
0.018346
0.038724
0.082027
0.11005
0.13807
0.16354
0.20175
0.23486
0.30619
0.44629
0.6679
0.95574
1.264
1.5594
1.8218
2.0383
2.1733
2.2268
2.2064
2.102
1.9517
1.7403
1.5059
1.2665
1.0271
0.81054
0.62205
0.44629
0.31638
0.20175
0.11259
0.059102
0.0081567
-0.02241
-0.037694
-0.05043
-0.045336
-0.042789
-0.032599
-0.0096741
0.010704
0.025987
0.048913
0.082027
0.11259
0.14316
0.16099
0.2043
0.25524
0.32911
0.48704
0.72394
1.0016
1.2996
1.5696
1.8014
1.9594
2.0562
2.0765
2.0128
1.8829
1.7046
1.5034
1.2792
1.0627
0.86149
0.67809
0.52525
0.39789
0.28581
0.19665
0.14061
0.094763
0.059102
0.033629
0.031082
0.025987
0.025987
0.048913
0.071838
0.092216
0.11005
0.12024
0.14316
0.16354
0.20175
0.22213
0.25779
0.31128
0.40043
