2.8407
3.2686
3.5565
3.6456
3.6456
3.6507
3.638
3.5539
3.3909
3.1719
2.9375
2.6726
2.4051
2.1351
1.8524
1.5722
1.3073
1.0449
0.77233
0.51506
0.27052
0.038724
-0.18034
-0.3612
-0.51913
-0.66432
-0.77895
-0.87065
-0.93942
-0.99801
-1.0158
-1.0362
-1.0362
-1.0209
-1.0031
-0.95216
-0.92159
-0.87065
-0.80442
-0.75093
-0.69234
-0.62611
-0.56498
-0.50639
-0.43761
-0.36884
-0.30516
-0.24912
-0.17525
-0.098828
-0.019863
0.20939
0.68573
1.3124
1.9925
2.5962
3.1082
3.503
3.6558
3.6482
3.6456
3.6507
3.6482
3.5718
3.4291
3.233
2.991
2.7337
2.4765
2.209
1.9466
1.7021
1.4423
1.2054
0.96593
0.71375
0.47431
0.23486
0.0005149
-0.2211
-0.41724
-0.60828
-0.75347
-0.88593
-0.99292
-1.0642
-1.1305
-1.1585
-1.1789
-1.1763
-1.1534
-1.1203
-1.0948
-1.0413
-0.99292
-0.92159
-0.86555
-0.79423
-0.72545
-0.66177
-0.5879
-0.53186
-0.46054
-0.39176
-0.3128
-0.23638
-0.12175
0.13043
0.62969
1.2665
1.939
2.5427
3.0419
3.4393
3.6482
3.6533
3.6584
3.6431
3.6304
3.5208
3.3603
3.1336
2.8815
2.614
2.3465
2.0918
1.8447
1.6002
1.3888
1.185
0.98885
0.82328
0.65007
0.48959
0.32911
0.18901
0.046366
-0.093734
-0.23383
-0.36884
-0.49875
-0.62866
-0.75093
-0.85027
-0.93688
-1.0209
-1.0617
-1.105
-1.1203
-1.1254
-1.1177
-1.0948
-1.0617
-1.0133
-0.95725
-0.89867
-0.84772
-0.78149
-0.71017
-0.63375
-0.55733
-0.47582
-0.38412
-0.22874
0.14316
0.70865
1.3735
2.0281
2.586
3.0394
3.3884
3.6151
3.6507
3.6558
3.6431
3.5667
3.4189
3.2253
2.9884
2.7363
2.4714
2.2217
1.9645
1.7301
1.5136
1.3022
1.1137
0.93536
0.77998
0.62205
0.46157
0.30364
0.13297
-0.040241
-0.22364
-0.3994
-0.57007
-0.71272
-0.83499
-0.94707
-1.0286
-1.0923
-1.133
-1.1534
-1.1585
-1.1483
-1.1228
-1.0897
-1.0388
-0.98782
-0.92669
-0.87065
-0.80442
-0.74074
-0.66177
-0.60064
-0.51658
-0.44016
-0.37138
-0.28478
-0.17779
0.07948
0.56091
1.1926
1.8371
2.4204
2.9044
3.2814
3.5488
3.6507
3.6482
3.638
3.5743
3.4164
3.233
2.9986
2.749
2.4917
2.2192
1.9746
1.7148
1.4728
1.2181
0.97866
0.72903
0.4794
0.22467
0.0081567
-0.216
-0.40959
-0.56243
-0.70253
-0.82734
-0.91395
-0.98018
-1.0107
-1.0362
-1.0464
-1.0311
-1.0107
-0.97254
-0.92414
-0.88084
-0.8197
-0.75857
-0.70253
-0.63885
-0.57007
-0.5013
-0.42997
-0.36884
-0.30516
-0.23893
-0.17779
-0.10647
-0.045336
0.025987
0.099858
0.27307
0.68318
1.264
1.9135
2.5198
3.0318
3.4189
3.6507
3.6533
3.6482
3.6533
3.6023
3.4877
3.2967
3.0572
2.7974
2.5376
2.265
2.0179
1.7683
1.5416
1.3276
1.1239
0.92517
0.70356
0.48449
0.27562
0.059102
-0.13194
-0.32299
-0.47328
-0.60828
-0.71272
-0.80697
-0.87574
-0.92414
-0.95216
-0.97254
-0.96235
-0.95471
-0.9165
-0.89103
-0.84008
-0.79168
-0.74328
-0.67196
-0.61592
-0.54969
-0.4962
-0.42488
-0.36374
-0.29751
-0.24402
-0.17525
-0.11666
-0.040241
0.043818
0.18392
0.5278
1.0704
1.6944
2.3083
2.8484
3.2712
3.5972
3.6507
3.6482
3.6456
3.6431
3.5438
3.3603
3.1158
2.828
2.5172
2.1835
1.86
1.5263
1.213
0.91498
0.63224
0.37751
0.1559
-0.037694
-0.19817
-0.34591
-0.46054
-0.54969
-0.62611
-0.67706
-0.73055
-0.75093
-0.76876
-0.7713
-0.75857
-0.74074
-0.72545
-0.69489
-0.67451
-0.62611
-0.60319
-0.54969
-0.50894
-0.46563
-0.41978
-0.38157
-0.32808
-0.27714
-0.22364
-0.18034
-0.13194
-0.070808
-0.019863
0.046366
0.13043
0.25524
0.46921
0.86913
1.4041
1.9746
2.5172
2.991
3.3578
3.5947
3.6482
3.6456
3.6456
3.5514
3.3807
3.1413
2.8636
2.5656
2.2548
1.9237
1.6027
1.292
0.99649
0.71375
0.45902
0.22213
0.015798
-0.14977
-0.30006
-0.42488
-0.51913
-0.59809
-0.66177
-0.70508
-0.72291
-0.7331
-0.74328
-0.7331
-0.71017
-0.69489
-0.66432
-0.62356
-0.59554
-0.55479
-0.5013
-0.4478
-0.40195
-0.34337
-0.29242
-0.24912
-0.19817
-0.14213
-0.10138
-0.055525
0.015798
0.076933
0.16354
0.32147
0.6679
1.2028
1.8091
2.4077
2.9171
3.3196
3.61
3.6507
3.6558
3.6482
3.5922
3.4495
3.2355
2.9859
2.7032
2.372
2.0383
1.7046
1.3684
1.05
0.75196
0.46921
0.22213
0.0005149
-0.17525
-0.33572
-0.47328
-0.57517
-0.65668
-0.72545
-0.76366
-0.78914
-0.79423
-0.80442
-0.79932
-0.76876
-0.74838
-0.71781
-0.6796
-0.64394
-0.59554
-0.5395
-0.4962
-0.43761
-0.38412
-0.33318
-0.28478
-0.22364
-0.18544
-0.13449
-0.07845
-0.027505
0.02344
0.071838
0.1075
0.15844
0.19411
0.24505
0.28326
0.32147
0.35713
0.38515
0.42081
0.45647
0.4794
0.51251
0.53034
0.55327
0.58129
0.59912
0.62205
0.63224
0.65771
0.6679
0.69592
0.70611
0.73158
0.73413
0.76215
0.79526
0.83347
0.87932
0.96847
1.0551
1.1799
1.3353
1.4932
1.6613
1.8396
2.0154
2.1275
2.2166
2.2599
2.2396
2.1886
2.1096
1.9925
1.8753
1.753
1.6027
1.4677
1.3353
1.2003
1.0704
0.96338
0.84111
0.7545
0.65007
0.5762
0.50487
0.43864
0.39025
0.34949
0.30619
0.27817
0.2476
0.22722
0.22213
0.20684
0.21194
0.20175
0.21194
0.22467
0.22467
0.23741
0.26034
0.27307
0.28836
0.31128
0.31383
0.34439
0.35458
0.36732
0.39279
0.41572
0.42336
0.44883
0.47176
0.48449
0.49468
0.51251
0.53289
0.55582
0.56091
0.58129
0.59657
0.61186
0.62459
0.63478
0.65771
0.66026
0.67809
0.69337
0.69846
0.70865
0.71884
0.73667
0.74177
0.76469
0.8029
0.84366
0.91753
1.0347
1.2181
1.4958
1.8702
2.2803
2.6879
3.0088
3.2712
3.4113
3.4724
3.424
3.2992
3.1285
2.9171
2.6675
2.4026
2.1377
1.8753
1.6231
1.3811
1.1621
0.9481
0.76215
0.59148
0.43864
0.30619
0.18137
0.082027
-0.0096741
-0.093734
-0.15487
-0.21091
-0.25421
-0.28223
-0.32299
-0.34082
-0.33572
-0.35101
-0.34337
-0.33572
-0.32553
-0.3077
-0.28987
-0.27459
-0.24657
-0.21345
-0.19053
-0.15232
-0.11921
-0.093734
-0.060619
-0.030052
0.010704
0.043818
0.069291
0.11005
0.14571
0.21703
0.28326
0.38006
0.5227
0.7112
1.0194
1.3964
1.832
2.2268
2.5783
2.8331
3.0063
3.0929
3.0852
2.9986
2.856
2.6649
2.451
2.2013
1.9466
1.6843
1.4448
1.2028
0.97102
0.76724
0.58384
0.41572
0.25269
0.12533
0.013251
-0.086092
-0.1676
-0.23893
-0.29751
-0.34082
-0.38412
-0.4045
-0.41469
-0.42997
-0.42997
-0.42742
-0.42233
-0.40195
-0.37648
-0.3561
-0.32808
-0.29751
-0.27459
-0.23129
-0.19817
-0.15232
-0.1243
-0.083545
-0.045336
-0.0096741
0.028535
0.059102
0.10241
0.14571
0.18392
0.23232
0.28581
0.36477
0.4794
0.6679
0.98885
1.4372
1.9339
2.4204
2.8662
3.2024
3.4444
3.5539
3.582
3.4928
3.3323
3.1031
2.8433
2.5452
2.2294
1.9262
1.6206
1.3251
1.05
0.8029
0.5711
0.37241
0.20175
0.038724
-0.07845
-0.19308
-0.29497
-0.3561
-0.42233
-0.47582
-0.49875
-0.53696
-0.53696
-0.54969
-0.5446
-0.53186
-0.51658
-0.4962
-0.47073
-0.4478
-0.4045
-0.36629
-0.33063
-0.28223
-0.23638
-0.20581
-0.15996
-0.11666
-0.070808
-0.040241
0.0081567
0.046366
0.082027
0.12788
0.16609
0.21448
0.27817
0.38006
0.63224
1.0653
1.6308
2.2217
2.7668
3.2203
3.5412
3.6558
3.6431
3.6482
3.6253
3.5055
3.2992
3.0267
2.721
2.3771
2.0383
1.6792
1.3429
1.0067
0.71375
0.44119
0.1992
-0.019863
-0.19562
-0.35355
-0.46818
-0.57262
-0.64904
-0.71017
-0.7331
-0.76876
-0.7764
-0.75602
-0.74583
-0.728
-0.69489
-0.65668
-0.62356
-0.57262
-0.52167
-0.47582
-0.44271
-0.38667
-0.33318
-0.28478
-0.23893
-0.19562
-0.15232
-0.10138
-0.063167
-0.014769
0.028535
0.066744
0.10495
0.16099
0.21448
0.29345
0.38515
0.50997
0.63988
0.81054
0.98376
1.1824
1.4066
1.6435
1.8473
2.0383
2.1835
2.2523
2.2752
2.2523
2.1682
2.046
1.9135
1.753
1.5951
1.4142
1.2563
1.106
0.96338
0.81564
0.69592
0.58129
0.48449
0.3826
0.31128
0.22722
0.17118
0.12533
0.071838
0.043818
0.013251
-0.0020324
-0.0020324
-0.012221
-0.012221
-0.0020324
-0.0020324
0.010704
0.020893
0.046366
0.059102
0.094763
0.11514
0.14571
0.16099
0.19156
0.20939
0.2476
0.26034
0.296
0.32402
0.34439
0.39534
0.46666
0.56601
0.72394
1.0576
1.511
2.0409
2.5707
3.0368
3.424
3.6431
3.6482
3.6507
3.638
3.559
3.3654
3.1133
2.8229
2.4917
2.158
1.8193
1.5009
1.185
0.90224
0.63988
0.39025
0.18901
0.010704
-0.15232
-0.27714
-0.38412
-0.47073
-0.54205
-0.5879
-0.6363
-0.65413
-0.66177
-0.67196
-0.66941
-0.64394
-0.62866
-0.60828
-0.57007
-0.53696
-0.49875
-0.45544
-0.41978
-0.37393
-0.32553
-0.28478
-0.24402
-0.18798
-0.14213
-0.10138
-0.045336
0.0005149
0.061649
0.12533
0.23232
0.43864
0.82328
1.3327
1.8931
2.4331
2.9018
3.2712
3.5208
3.6482
3.6482
3.6023
3.4622
3.2483
2.9859
2.6599
2.3364
1.995
1.646
1.3251
1.0041
0.7112
0.45138
0.21958
0.020893
-0.14723
-0.30006
-0.41724
-0.51403
-0.5879
-0.63885
-0.6847
-0.70762
-0.71526
-0.728
-0.71017
-0.70253
-0.6847
-0.65158
-0.62356
-0.58281
-0.54205
-0.49111
-0.45035
-0.4045
-0.3561
-0.30006
-0.25421
-0.20072
-0.16506
-0.10138
-0.052978
-0.0020324
0.056555
0.12788
0.2476
0.46412
0.8513
1.4066
1.995
2.5656
3.0445
3.4164
3.6558
3.6482
3.6558
3.6482
3.5972
3.447
3.2355
2.9604
2.6395
2.3134
1.9543
1.6257
1.2843
0.97866
0.68318
0.41317
0.16354
-0.05043
-0.23129
-0.38412
-0.51913
-0.63121
-0.71272
-0.77385
-0.82734
-0.85027
-0.86555
-0.8681
-0.86046
-0.84518
-0.81206
-0.79168
-0.75347
-0.70253
-0.65923
-0.61083
-0.56243
-0.50384
-0.45544
-0.40705
-0.34846
-0.29751
-0.24657
-0.19308
-0.1294
-0.063167
0.0030622
0.10241
0.23486
0.48959
0.92517
1.4703
2.0358
2.5554
3.0037
3.3451
3.5769
3.6507
3.6507
3.6202
3.4903
3.2865
3.0139
2.7184
2.3822
2.0358
1.7046
1.3557
1.0449
0.75196
0.47431
0.22977
0.015798
-0.16506
-0.31789
-0.45035
-0.54715
-0.6363
-0.69743
-0.73564
-0.77385
-0.78149
-0.79168
-0.76621
-0.75602
-0.728
-0.68979
-0.64904
-0.61083
-0.57771
-0.51913
-0.47328
-0.42488
-0.37903
-0.32044
-0.26949
-0.216
-0.1727
-0.12175
-0.065714
-0.0096741
0.031082
0.094763
0.18901
0.30873
0.59148
1.0551
1.6359
2.2268
2.7668
3.2075
3.5361
3.6456
3.6507
3.6482
3.638
3.5081
3.3247
3.0623
2.7668
2.4357
2.0842
1.7403
1.399
1.0653
0.76724
0.48704
0.2425
0.025987
-0.1676
-0.31535
-0.44016
-0.55224
-0.62866
-0.70508
-0.74328
-0.77895
-0.78659
-0.78404
-0.78914
-0.76366
-0.74838
-0.71017
-0.67196
-0.63121
-0.58026
-0.5395
-0.4962
-0.44271
-0.3994
-0.33827
-0.28223
-0.23383
-0.18798
-0.13449
-0.070808
-0.0071269
0.071838
0.18392
0.34439
0.64497
1.0907
1.618
2.1504
2.6369
3.019
3.317
3.5055
3.5845
3.5692
3.4648
3.2737
3.0343
2.749
2.4331
2.1147
1.7938
1.4703
1.1723
0.88696
0.63224
0.38515
0.18901
0.0056094
-0.15487
-0.27204
-0.38412
-0.47582
-0.53696
-0.58535
-0.63121
-0.64394
-0.66687
-0.65413
-0.65413
-0.6363
-0.61337
-0.593
-0.54969
-0.51403
-0.46563
-0.42742
-0.37138
-0.33572
-0.27968
-0.22619
-0.18034
-0.13704
-0.083545
-0.035147
0.0056094
0.064196
0.12533
0.2043
0.31892
0.56091
1.0118
1.5696
2.1835
2.7414
3.1999
3.5565
3.6507
3.6482
3.6507
3.6507
3.5922
3.4368
3.2177
2.9375
2.6038
2.2523
1.9059
1.5543
1.2207
0.8946
0.59657
0.33421
0.099858
-0.10392
-0.27968
-0.42997
-0.55224
-0.64139
-0.71526
-0.78659
-0.81716
-0.84263
-0.86046
-0.85791
-0.84518
-0.82734
-0.79168
-0.75857
-0.728
-0.67196
-0.62356
-0.58281
-0.51913
-0.47328
-0.41724
-0.36374
-0.3128
-0.24657
-0.20072
-0.14213
-0.098828
-0.040241
0.013251
0.084574
0.16609
0.32656
0.63478
1.1442
1.7505
2.3542
2.8866
3.3221
3.6329
3.6482
3.6482
3.6558
3.6253
3.531
3.3323
3.0878
2.8
2.4765
2.1402
1.7785
1.4423
1.1009
0.78252
0.49978
0.23741
0.0030622
-0.18798
-0.34591
-0.5013
-0.60828
-0.69743
-0.76621
-0.80442
-0.84772
-0.85282
-0.85282
-0.85027
-0.8248
-0.80187
-0.76366
-0.73564
-0.68979
-0.64139
-0.59554
-0.5446
-0.48346
-0.43507
-0.37903
-0.32553
-0.2644
-0.21091
-0.16251
-0.10647
-0.042789
0.025987
0.12533
0.26543
0.49214
0.85385
1.3353
1.8524
2.3236
2.7465
3.0521
3.261
3.3654
3.3553
3.2737
3.1056
2.8993
2.6267
2.3491
2.0587
1.7556
1.455
1.185
0.92517
0.68063
0.46412
0.27052
0.10495
-0.037694
-0.15996
-0.25931
-0.33827
-0.39686
-0.4529
-0.48856
-0.51913
-0.52422
-0.52677
-0.51403
-0.50894
-0.48856
-0.47073
-0.42997
-0.40705
-0.36374
-0.32553
-0.28223
-0.24402
-0.20072
-0.14468
-0.10647
-0.060619
-0.012221
0.020893
0.07948
0.12788
0.17882
0.2476
0.34185
0.4794
0.72903
1.1213
1.618
2.1249
2.5911
2.9961
3.2916
3.4724
3.5641
3.559
3.4648
3.2941
3.0802
2.8178
2.5198
2.2294
1.9237
1.6206
1.3251
1.0551
0.79526
0.54818
0.34949
0.15844
0.0030622
-0.12685
-0.24402
-0.34082
-0.40959
-0.47582
-0.51913
-0.55733
-0.58535
-0.5879
-0.593
-0.58026
-0.55733
-0.54205
-0.51148
-0.49111
-0.44271
-0.40959
-0.36884
-0.32553
-0.28223
-0.24147
-0.19053
-0.14468
-0.093734
-0.047883
-0.0045796
0.041271
0.097311
0.16609
0.26034
0.40553
0.69337
1.1417
1.6893
2.2523
2.7643
3.1795
3.5055
3.6456
3.6482
3.6558
3.5922
3.4444
3.2203
2.9451
2.6242
2.2778
1.9262
1.59
1.2614
0.95319
0.66535
0.39789
0.17628
-0.02241
-0.19817
-0.33827
-0.45035
-0.54205
-0.61592
-0.66432
-0.70762
-0.73055
-0.73819
-0.74328
-0.728
-0.71272
-0.68979
-0.65158
-0.62102
-0.57007
-0.52422
-0.48346
-0.42742
-0.37903
-0.33572
-0.28478
-0.22874
-0.17525
-0.12685
-0.080997
-0.014769
0.043818
0.12024
0.24505
0.41317
0.72903
1.1672
1.6613
2.1555
2.5758
2.9069
3.1387
3.2585
3.2712
3.2024
3.0547
2.8534
2.6013
2.3338
2.0358
1.753
1.4677
1.2028
0.943
0.72394
0.51251
0.31638
0.16099
0.031082
-0.091186
-0.18798
-0.26695
-0.33063
-0.38667
-0.41978
-0.4478
-0.46054
-0.46309
-0.46054
-0.44526
-0.43252
-0.41469
-0.37648
-0.34591
-0.31535
-0.28223
-0.24402
-0.20072
-0.15996
-0.11921
-0.080997
-0.037694
0.0030622
0.041271
0.094763
0.14316
0.2043
0.296
0.43864
0.64752
1.0041
1.455
1.967
2.4459
2.8534
3.1795
3.3833
3.4928
3.4954
3.4215
3.2737
3.0598
2.8152
2.535
2.2319
1.9441
1.6409
1.3506
1.0882
0.82583
0.59148
0.38006
0.1992
0.033629
-0.10392
-0.22619
-0.3128
-0.39686
-0.46054
-0.50639
-0.53441
-0.57007
-0.57262
-0.57771
-0.57262
-0.55988
-0.53441
-0.50894
-0.47837
-0.43761
-0.40705
-0.3612
-0.32553
-0.27714
-0.23893
-0.19308
-0.14977
-0.10138
-0.063167
-0.02241
0.028535
0.071838
0.11514
0.14316
0.19156
0.22722
0.27052
0.30109
0.33675
0.39534
0.45138
0.52016
0.62969
0.78507
0.98885
1.3047
1.6995
2.1173
2.5172
2.8585
3.1133
3.2737
3.3349
3.3221
3.2177
3.0598
2.8534
2.6038
2.3389
2.0663
1.7887
1.5187
1.2741
1.0372
0.81564
0.62459
0.44374
0.2909
0.15335
0.043818
-0.05043
-0.13194
-0.20327
-0.2644
-0.30261
-0.33572
-0.35101
-0.37138
-0.38412
-0.37648
-0.36629
-0.35355
-0.34337
-0.30261
-0.28478
-0.24657
-0.2211
-0.18544
-0.15487
-0.10902
-0.075903
-0.047883
-0.012221
0.036177
0.066744
0.097311
0.14826
0.17373
0.21703
0.25524
0.28581
0.32147
0.35713
0.39279
0.44629
0.52525
0.62205
0.76469
0.943
1.1723
1.4856
1.8116
2.1453
2.4357
2.6624
2.8076
2.8789
2.8866
2.8127
2.6802
2.507
2.316
2.1096
1.8855
1.6588
1.4525
1.2436
1.0627
0.87677
0.71884
0.57365
0.44629
0.32911
0.22722
0.14316
0.071838
-0.0071269
-0.060619
-0.10138
-0.1294
-0.16251
-0.18289
-0.19308
-0.19308
-0.19562
-0.19562
-0.17779
-0.16251
-0.13958
-0.11411
-0.093734
-0.073356
-0.037694
0.0005149
0.015798
0.059102
0.07948
0.11514
0.15335
0.18392
0.20939
0.2476
0.28581
0.32911
0.39789
0.49468
0.6144
0.8029
1.0449
1.3811
1.7912
2.1912
2.5656
2.8662
3.0827
3.2152
3.2559
3.2126
3.1082
2.9451
2.7337
2.4943
2.2523
1.9797
1.7327
1.4703
1.2207
1.0041
0.78252
0.59403
0.42336
0.26034
0.12533
0.013251
-0.088639
-0.1676
-0.24657
-0.30261
-0.35101
-0.40195
-0.42488
-0.43761
-0.45035
-0.45035
-0.44271
-0.42997
-0.41214
-0.38667
-0.37138
-0.32808
-0.29751
-0.27714
-0.22619
-0.19817
-0.16506
-0.11921
-0.07845
-0.042789
-0.0045796
0.041271
0.084574
0.11769
0.16609
0.21448
0.28071
0.37751
0.51506
0.70611
1.0449
1.4805
1.9645
2.4331
2.8433
3.1566
3.368
3.475
3.4775
3.3858
3.2177
3.0114
2.749
2.4561
2.1606
1.8651
1.5798
1.292
1.0372
0.78762
0.56855
0.37751
0.2043
0.054007
-0.075903
-0.18289
-0.27459
-0.34846
-0.40705
-0.45035
-0.47837
-0.51403
-0.52167
-0.52422
-0.52932
-0.51148
-0.49365
-0.47073
-0.44526
-0.41724
-0.38922
-0.34082
-0.3128
-0.26695
-0.22619
-0.18289
-0.14977
-0.11156
-0.060619
-0.030052
0.020893
0.059102
0.099858
0.17628
0.2476
0.36477
0.52525
0.76724
1.0933
1.5059
1.9262
2.3007
2.6242
2.8534
2.9884
3.0368
2.9961
2.884
2.7286
2.5147
2.2829
2.0383
1.7912
1.5391
1.3149
1.0831
0.86913
0.68573
0.51506
0.35968
0.21958
0.1075
0.010704
-0.086092
-0.15232
-0.216
-0.25676
-0.29242
-0.32553
-0.34337
-0.33827
-0.35355
-0.34337
-0.32553
-0.32299
-0.29497
-0.26949
-0.23383
-0.20836
-0.17525
-0.14213
-0.10647
-0.068261
-0.040241
0.0030622
0.038724
0.074385
0.10241
0.1508
0.19156
0.25015
0.33166
0.431
0.57365
0.77743
1.0856
1.4652
1.9008
2.3211
2.693
2.963
3.1617
3.261
3.2712
3.2024
3.0674
2.8917
2.6649
2.4179
2.158
1.9084
1.6384
1.3837
1.1366
0.91753
0.7112
0.51251
0.34185
0.18646
0.066744
-0.060619
-0.15232
-0.22874
-0.30006
-0.3561
-0.3994
-0.44016
-0.4529
-0.47837
-0.47582
-0.47073
-0.46054
-0.44526
-0.41978
-0.40705
-0.37903
-0.33572
-0.30516
-0.27714
-0.23129
-0.19308
-0.15232
-0.11411
-0.07845
-0.032599
0.0081567
0.054007
0.11005
0.18137
0.28326
0.42591
0.66026
1.0398
1.5187
2.0205
2.4943
2.8942
3.1999
3.3986
3.4954
3.4775
3.3858
3.2126
2.9935
2.7312
2.4408
2.1377
1.8422
1.5442
1.2665
0.99649
0.7596
0.52525
0.33675
0.16609
0.020893
-0.10138
-0.21091
-0.30261
-0.37648
-0.43761
-0.47837
-0.51403
-0.5395
-0.55733
-0.55479
-0.55224
-0.54205
-0.52422
-0.49875
-0.47837
-0.4478
-0.40959
-0.37903
-0.34082
-0.30261
-0.25931
-0.21091
-0.17525
-0.1294
-0.073356
-0.027505
0.05146
0.13297
0.26034
0.42591
0.6628
1.0092
1.4168
1.8294
2.2268
2.5376
2.7719
2.9273
2.9783
2.9604
2.8764
2.7414
2.558
2.3338
2.1046
1.8728
1.6206
1.3837
1.1544
0.94555
0.74177
0.55327
0.38515
0.24505
0.11769
0.013251
-0.083545
-0.16506
-0.23638
-0.28987
-0.32553
-0.3561
-0.37648
-0.39176
-0.39686
-0.39176
-0.37903
-0.36374
-0.34591
-0.32553
-0.29242
-0.26695
-0.23129
-0.19308
-0.16506
-0.13194
-0.10138
-0.058072
-0.017316
0.028535
0.094763
0.17373
0.27307
0.43864
0.65007
0.97102
1.399
1.8524
2.2803
2.6573
2.9375
3.1336
3.2483
3.2661
3.1948
3.0776
2.9018
2.6904
2.4408
2.1963
1.9339
1.6537
1.4041
1.1519
0.91243
0.69846
0.49978
0.32402
0.1559
0.02344
-0.096281
-0.20581
-0.28478
-0.3612
-0.41724
-0.45799
-0.5013
-0.52932
-0.53441
-0.5395
-0.52932
-0.52422
-0.50894
-0.49111
-0.4529
-0.42233
-0.39431
-0.35865
-0.3128
-0.27204
-0.23383
-0.19308
-0.14723
-0.10392
-0.037694
0.038724
0.1508
0.36477
0.74177
1.2843
1.8728
2.4281
2.9146
3.2865
3.5667
3.6507
3.6482
3.6482
3.5463
3.3807
3.1387
2.8611
2.5554
2.2268
1.9008
1.5671
1.2589
0.95574
0.67554
0.42591
0.18901
0.0005149
-0.1727
-0.32299
-0.43507
-0.5446
-0.61847
-0.67706
-0.7331
-0.75857
-0.77385
-0.79168
-0.78404
-0.77385
-0.75857
-0.72036
-0.70253
-0.65923
-0.61847
-0.58281
-0.5446
-0.49875
-0.4529
-0.39686
-0.34846
-0.29242
-0.22874
-0.14213
-0.040241
0.11259
0.33421
0.70611
1.1824
1.6893
2.1759
2.5987
2.9171
3.1362
3.2483
3.2814
3.233
3.1031
2.9146
2.6955
2.4408
2.1759
1.8855
1.6206
1.3429
1.0907
0.8462
0.60931
0.40808
0.21958
0.061649
-0.096281
-0.21345
-0.31535
-0.40705
-0.46818
-0.51913
-0.55224
-0.593
-0.60064
-0.61337
-0.61337
-0.60319
-0.58535
-0.56752
-0.54205
-0.51148
-0.48092
-0.42997
-0.39431
-0.3561
-0.29751
-0.2644
-0.20836
-0.15742
-0.10138
-0.040241
0.041271
0.15844
0.33166
0.61186
1.0347
1.5442
2.0587
2.535
2.9095
3.2101
3.3807
3.4852
3.4724
3.3909
3.2457
3.0445
2.8152
2.5376
2.2676
1.9899
1.697
1.4168
1.1519
0.90734
0.65771
0.45138
0.2476
0.071838
-0.07845
-0.2211
-0.33572
-0.41469
-0.49365
-0.56498
-0.60573
-0.63375
-0.66432
-0.66687
-0.67706
-0.65668
-0.65158
-0.62356
-0.5879
-0.56243
-0.52167
-0.48346
-0.43507
-0.3994
-0.3612
-0.3077
-0.25676
-0.20581
-0.15232
-0.091186
-0.017316
0.099858
0.28836
0.63224
1.1391
1.7072
2.2599
2.7414
3.1362
3.4113
3.5998
3.6558
3.638
3.5438
3.3782
3.1464
2.8687
2.5682
2.2447
1.9186
1.6104
1.2996
1.0143
0.74941
0.48704
0.26798
0.074385
-0.096281
-0.26185
-0.38667
-0.48601
-0.56752
-0.64649
-0.69743
-0.73055
-0.75602
-0.76366
-0.75602
-0.75347
-0.73819
-0.72036
-0.6847
-0.64904
-0.61337
-0.57007
-0.50894
-0.47328
-0.41724
-0.36629
-0.31789
-0.26949
-0.20581
-0.12685
-0.040241
0.089669
0.30619
0.68318
1.1773
1.7327
2.2625
2.7261
3.0852
3.3323
3.4903
3.5514
3.5132
3.3909
3.1973
2.9655
2.6802
2.3746
2.0587
1.7479
1.4321
1.1442
0.85385
0.60422
0.35968
0.15335
-0.042789
-0.19053
-0.33827
-0.44271
-0.53186
-0.60064
-0.65413
-0.69743
-0.71526
-0.728
-0.72545
-0.72036
-0.70253
-0.67196
-0.65158
-0.61592
-0.57262
-0.52167
-0.47837
-0.42997
-0.38667
-0.34082
-0.27459
-0.22874
-0.17525
-0.12175
-0.060619
0.020893
0.11259
0.26798
0.5711
1.0602
1.646
2.2447
2.7872
3.2457
3.5769
3.6482
3.6482
3.6558
3.6482
3.582
3.4164
3.1948
2.9044
2.5834
2.2421
1.8906
1.5569
1.2283
0.8997
0.6144
0.33675
0.1075
-0.098828
-0.27968
-0.43761
-0.56752
-0.66687
-0.75857
-0.80697
-0.85536
-0.88848
-0.90121
-0.90886
-0.89357
-0.87574
-0.85282
-0.8197
-0.77385
-0.72291
-0.68215
-0.61847
-0.58026
-0.51913
-0.46309
-0.40959
-0.34591
-0.28733
-0.2211
-0.15487
-0.052978
0.082027
0.32656
0.73667
1.2843
1.8575
2.3975
2.8585
3.205
3.4597
3.5871
3.6278
3.5641
3.4113
3.1948
2.9324
2.6318
2.316
1.9925
1.669
1.3557
1.0551
0.77998
0.51761
0.28071
0.071838
-0.10647
-0.2644
-0.39176
-0.49875
-0.57771
-0.65158
-0.70762
-0.73819
-0.75347
-0.75857
-0.76112
-0.73564
-0.72036
-0.69998
-0.66432
-0.61847
-0.57262
-0.52677
-0.47837
-0.42997
-0.37138
-0.31535
-0.2644
-0.21855
-0.15232
-0.088639
0.0030622
0.11769
0.29345
0.65261
1.1697
1.7607
2.3287
2.8356
3.2355
3.5412
3.6558
3.6558
3.6482
3.6049
3.4622
3.2483
2.9757
2.67
2.3211
1.9848
1.6409
1.3098
0.99395
0.69592
0.41827
0.18137
-0.042789
-0.21855
-0.37393
-0.50894
-0.62102
-0.70508
-0.76366
-0.81206
-0.83499
-0.84518
-0.85536
-0.84263
-0.80951
-0.79423
-0.74583
-0.71017
-0.67196
-0.61337
-0.56498
-0.51148
-0.46054
-0.3994
-0.34591
-0.28478
-0.23383
-0.18034
-0.12175
-0.035147
0.066744
0.22467
0.46412
0.88951
1.4142
1.9848
2.5096
2.963
3.3145
3.559
3.6482
3.6456
3.6278
3.503
3.3043
3.0623
2.7694
2.4561
2.1453
1.832
1.511
1.2207
0.92262
0.65516
0.41572
0.19156
-0.0020324
-0.17015
-0.32553
-0.45035
-0.54969
-0.63121
-0.69743
-0.74838
-0.78149
-0.79678
-0.80951
-0.79168
-0.78404
-0.76621
-0.73819
-0.70508
-0.65923
-0.60828
-0.57262
-0.50894
-0.46818
-0.40195
-0.34846
-0.29751
-0.24147
-0.17779
-0.11411
-0.05043
0.059102
0.19156
0.42845
0.8513
1.4015
1.9721
2.507
2.9808
3.3298
3.5667
3.6456
3.6456
3.6202
3.4954
3.3094
3.0368
2.7388
2.423
2.0893
1.7581
1.4295
1.1315
0.84366
0.57365
0.34694
0.12533
-0.05043
-0.21345
-0.34591
-0.46054
-0.54715
-0.62356
-0.68215
-0.72036
-0.73819
-0.76366
-0.75347
-0.75093
-0.7331
-0.70508
-0.6847
-0.63885
-0.60319
-0.55733
-0.51148
-0.46818
-0.41214
-0.36629
-0.31025
-0.25421
-0.216
-0.14977
-0.093734
-0.019863
0.082027
0.21958
0.39789
0.67299
1.078
1.5391
2.0205
2.4459
2.7974
3.0572
3.1999
3.2712
3.2432
3.1387
2.9935
2.7974
2.5631
2.3058
2.0511
1.776
1.5238
1.2716
1.0347
0.79526
0.59657
0.40043
0.23486
0.071838
-0.045336
-0.1676
-0.25421
-0.33063
-0.39176
-0.44271
-0.47582
-0.50639
-0.51403
-0.51403
-0.51403
-0.50384
-0.48092
-0.46054
-0.43761
-0.40705
-0.37393
-0.33827
-0.29497
-0.25931
-0.2211
-0.17525
-0.12685
-0.091186
-0.032599
0.025987
0.11769
0.22977
0.39534
0.63988
0.99649
1.4525
1.9543
2.4281
2.8127
3.1285
3.3196
3.4189
3.4342
3.3705
3.2432
3.0776
2.8458
2.6115
2.344
2.0714
1.7938
1.5314
1.2792
1.0296
0.78762
0.5711
0.37751
0.18392
0.036177
-0.098828
-0.22619
-0.32044
-0.40705
-0.47328
-0.53696
-0.57517
-0.59809
-0.62102
-0.62356
-0.63375
-0.62102
-0.59809
-0.58281
-0.55479
-0.52932
-0.48856
-0.44016
-0.3994
-0.35865
-0.3128
-0.27459
-0.23383
-0.17525
-0.1243
-0.065714
0.02344
0.1508
0.31892
0.56855
0.96338
1.4499
1.9517
2.423
2.8127
3.1082
3.3018
3.3858
3.3909
3.3069
3.1566
2.9579
2.7235
2.4612
2.1886
1.9059
1.6409
1.376
1.1264
0.88187
0.6628
0.46157
0.27052
0.11259
-0.030052
-0.15487
-0.2644
-0.34591
-0.42488
-0.48601
-0.52932
-0.55733
-0.59045
-0.59809
-0.59809
-0.58026
-0.57262
-0.55988
-0.52932
-0.50384
-0.46309
-0.42997
-0.37903
-0.34082
-0.31025
-0.26185
-0.22364
-0.15996
-0.10138
-0.017316
0.10241
0.26543
0.48195
0.81564
1.2436
1.7123
2.1606
2.5554
2.8407
3.0521
3.1591
3.1948
3.1515
3.0368
2.8764
2.6802
2.4535
2.2192
1.967
1.7199
1.4703
1.2359
0.99649
0.78507
0.5762
0.3877
0.21194
0.074385
-0.065714
-0.17525
-0.26949
-0.34337
-0.40705
-0.46818
-0.51403
-0.53696
-0.55988
-0.55479
-0.55733
-0.55224
-0.5446
-0.51913
-0.49111
-0.46309
-0.41978
-0.39431
-0.35101
-0.31025
-0.27204
-0.21855
-0.18034
-0.13194
-0.068261
0.020893
0.14061
0.31638
0.54818
0.89715
1.3225
1.8065
2.2472
2.6471
2.9553
3.154
3.2814
3.312
3.2763
3.1744
3.0063
2.8152
2.5834
2.3465
2.0944
1.8422
1.5849
1.3302
1.1035
0.87677
0.66026
0.45393
0.26543
0.099858
-0.060619
-0.18798
-0.30261
-0.40705
-0.47582
-0.54715
-0.59045
-0.63121
-0.65668
-0.66432
-0.66177
-0.64904
-0.63375
-0.61083
-0.57517
-0.5446
-0.50894
-0.46563
-0.42742
-0.38667
-0.33827
-0.28478
-0.24147
-0.18544
-0.12685
-0.058072
0.028535
0.15844
0.35968
0.71629
1.213
1.7836
2.3364
2.8254
3.1999
3.4852
3.6533
3.6507
3.6304
3.5285
3.3629
3.1336
2.856
2.5554
2.2345
1.9211
1.6155
1.3225
1.0474
0.78762
0.54818
0.32911
0.12278
-0.042789
-0.20327
-0.32553
-0.44271
-0.52932
-0.61592
-0.66687
-0.71017
-0.73564
-0.75857
-0.76621
-0.75093
-0.73819
-0.71781
-0.6796
-0.64649
-0.61083
-0.56752
-0.52932
-0.47582
-0.43252
-0.37903
-0.32553
-0.2644
-0.20581
-0.11666
-0.0020324
0.17118
0.40553
0.77488
1.2308
1.725
2.1861
2.5911
2.8866
3.1031
3.2024
3.2432
3.1795
3.0725
2.9044
2.7057
2.4688
2.2115
1.9645
1.7123
1.455
1.213
0.97866
0.75705
0.55582
0.35713
0.18901
0.033629
-0.11156
-0.21855
-0.31789
-0.41214
-0.46818
-0.52932
-0.56498
-0.60319
-0.61592
-0.62356
-0.61592
-0.61592
-0.59045
-0.57007
-0.5446
-0.5013
-0.46563
-0.42742
-0.38667
-0.33827
-0.29751
-0.24657
-0.20836
-0.13194
-0.055525
0.056555
0.22722
0.44883
0.79017
1.2257
1.7097
2.1759
2.5885
2.9095
3.1464
3.2763
3.34
3.3196
3.2355
3.0827
2.9069
2.6802
2.4459
2.1886
1.9364
1.6817
1.427
1.185
0.95319
0.73413
0.53034
0.34439
0.16354
0.015798
-0.11411
-0.23893
-0.34591
-0.42742
-0.49365
-0.56243
-0.59809
-0.63121
-0.65413
-0.65923
-0.65668
-0.64904
-0.64394
-0.61337
-0.593
-0.55988
-0.52677
-0.48856
-0.45035
-0.3994
-0.3612
-0.32299
-0.26949
-0.21091
-0.14468
-0.024958
0.10495
0.30873
0.60167
1.0169
1.5085
2.0078
2.4637
2.8407
3.1209
3.2916
3.3833
3.3884
3.3196
3.1719
2.9859
2.7541
2.5147
2.2421
1.9695
1.697
1.4372
1.185
0.93791
0.7112
0.50742
0.31128
0.14316
-0.0071269
-0.14213
-0.2644
-0.35865
-0.44271
-0.51913
-0.57007
-0.61337
-0.62866
-0.65413
-0.66177
-0.65923
-0.65158
-0.62866
-0.61337
-0.58535
-0.55988
-0.52167
-0.47073
-0.43507
-0.38667
-0.33827
-0.29242
-0.23383
-0.1727
-0.093734
0.02344
0.19156
0.41317
0.7596
1.2232
1.7046
2.1657
2.5605
2.8687
3.0878
3.2075
3.2355
3.1897
3.0725
2.9044
2.7032
2.4637
2.2166
1.967
1.7148
1.4703
1.2334
0.99649
0.77743
0.57365
0.39534
0.21703
0.069291
-0.070808
-0.18544
-0.27714
-0.36629
-0.43252
-0.49111
-0.53186
-0.55479
-0.57517
-0.57517
-0.58026
-0.57517
-0.55479
-0.53441
-0.50639
-0.48092
-0.43507
-0.40705
-0.36629
-0.31789
-0.27714
-0.23383
-0.18544
-0.13704
-0.075903
0.020893
0.16354
0.36987
0.64497
1.0092
1.455
1.8982
2.316
2.6726
2.9375
3.1235
3.2228
3.2534
3.205
3.0954
2.9451
2.7516
2.5274
2.288
2.046
1.7989
1.5467
1.32
1.0856
0.86658
0.65261
0.46157
0.28071
0.12788
-0.0071269
-0.13194
-0.24402
-0.34082
-0.41469
-0.47073
-0.52932
-0.55479
-0.57517
-0.60064
-0.60064
-0.59045
-0.5879
-0.57262
-0.54715
-0.52932
-0.50639
-0.47582
-0.43252
-0.39686
-0.3612
-0.31535
-0.2644
-0.2211
-0.17779
-0.13449
-0.091186
-0.037694
0.0030622
0.061649
0.11005
0.15335
0.21194
0.2909
0.39534
0.56855
0.78507
1.1009
1.5009
1.939
2.372
2.7745
3.0954
3.3298
3.4673
3.5336
3.5157
3.4113
3.2712
3.0725
2.8484
2.5962
2.3313
2.0714
1.7989
1.5416
1.2894
1.0551
0.81564
0.60931
0.42081
0.2425
0.082027
-0.045336
-0.1676
-0.26185
-0.34591
-0.41978
-0.47582
-0.52167
-0.55733
-0.58026
-0.593
-0.59554
-0.593
-0.58026
-0.55988
-0.53186
-0.49875
-0.47328
-0.42997
-0.39431
-0.36629
-0.31535
-0.27968
-0.22619
-0.18544
-0.14468
-0.098828
-0.055525
-0.0020324
0.043818
0.087122
0.13297
0.16863
0.22213
0.30619
0.39789
0.5278
0.72139
0.97866
1.3225
1.7505
2.1835
2.5987
2.9324
3.1744
3.3349
3.4037
3.3807
3.2865
3.1413
2.9451
2.7108
2.4612
2.2039
1.9492
1.6995
1.4372
1.2028
0.97866
0.76215
0.56091
0.38515
0.22467
0.089669
-0.032599
-0.1294
-0.22364
-0.28478
-0.35865
-0.39686
-0.42997
-0.4478
-0.46054
-0.47582
-0.47328
-0.47073
-0.4529
-0.42997
-0.41214
-0.39176
-0.36629
-0.32808
-0.29497
-0.2644
-0.22874
-0.18034
-0.14213
-0.10138
-0.055525
-0.019863
0.020893
0.069291
0.11769
0.2043
0.31892
0.48449
0.70101
1.0194
1.4041
1.8498
2.2701
2.6548
2.9655
3.1948
3.3323
3.3986
3.3782
3.3043
3.154
2.9808
2.7592
2.5172
2.2599
2.0052
1.7428
1.4805
1.2257
0.99904
0.77998
0.5711
0.39025
0.21958
0.064196
-0.063167
-0.17015
-0.26949
-0.34337
-0.41978
-0.47582
-0.51658
-0.55224
-0.57517
-0.593
-0.59045
-0.593
-0.58281
-0.57007
-0.5446
-0.52422
-0.49365
-0.47073
-0.41978
-0.39431
-0.34591
-0.31025
-0.2644
-0.22364
-0.1727
-0.14213
-0.083545
-0.05043
0.0030622
0.071838
0.15335
0.27562
0.45902
0.70101
1.0271
1.427
1.8575
2.2727
2.6395
2.9248
3.1413
3.2686
3.3094
3.2916
3.1973
3.0521
2.8687
2.6395
2.4
2.1555
1.8957
1.6359
1.3888
1.1519
0.91753
0.71884
0.51761
0.34694
0.19156
0.043818
-0.070808
-0.17525
-0.2644
-0.33827
-0.40195
-0.4529
-0.49875
-0.52422
-0.52932
-0.54205
-0.55733
-0.5446
-0.54205
-0.51403
-0.49875
-0.46818
-0.44016
-0.40705
-0.37903
-0.34082
-0.30006
-0.25676
-0.22364
-0.17015
-0.1294
-0.088639
-0.040241
0.018346
0.10495
0.22722
0.38006
0.59148
0.85894
1.2054
1.6129
2.0052
2.3746
2.6879
2.9044
3.0572
3.1209
3.1082
3.019
2.8866
2.7108
2.5019
2.2803
2.0383
1.7963
1.5594
1.3251
1.1009
0.88441
0.69082
0.52016
0.35458
0.21958
0.082027
-0.02241
-0.11666
-0.19308
-0.25676
-0.31789
-0.35865
-0.39431
-0.41724
-0.42997
-0.43507
-0.44016
-0.44016
-0.42742
-0.40705
-0.39176
-0.3561
-0.33572
-0.30261
-0.27204
-0.22874
-0.19562
-0.15232
-0.1243
-0.070808
-0.035147
0.036177
0.1075
0.21958
0.3877
0.61186
0.91243
1.2971
1.7174
2.1402
2.535
2.8407
3.0725
3.2152
3.2712
3.261
3.1769
3.047
2.8636
2.6497
2.4255
2.1759
1.9237
1.6766
1.4295
1.1952
0.96338
0.74431
0.54563
0.35713
0.1992
0.061649
-0.058072
-0.1727
-0.2644
-0.34337
-0.40705
-0.45799
-0.48856
-0.51913
-0.55224
-0.55224
-0.55479
-0.55988
-0.54969
-0.53441
-0.51658
-0.49111
-0.46309
-0.43252
-0.39176
-0.35865
-0.31789
-0.27459
-0.23383
-0.18544
-0.13958
-0.080997
-0.02241
0.082027
0.22467
0.41317
0.68827
1.0474
1.4677
1.8982
2.3007
2.6471
2.9171
3.1005
3.1999
3.2355
3.1897
3.0802
2.9171
2.7184
2.4968
2.2752
2.0256
1.776
1.5238
1.2843
1.05
0.83602
0.62969
0.45393
0.27817
0.12533
-0.012221
-0.12685
-0.23893
-0.32044
-0.38922
-0.45544
-0.4962
-0.53186
-0.55479
-0.57007
-0.57771
-0.57007
-0.56243
-0.54715
-0.53696
-0.50384
-0.46563
-0.43761
-0.4045
-0.3612
-0.31535
-0.28478
-0.23893
-0.19817
-0.14213
-0.063167
0.038724
0.17118
0.37496
0.6679
1.0831
1.5696
2.0485
2.4765
2.8127
3.0623
3.2101
3.2763
3.2457
3.1566
3.0037
2.8254
2.5911
2.3618
2.102
1.86
1.5951
1.3608
1.1111
0.89206
0.68827
0.50232
0.32147
0.16609
0.031082
-0.091186
-0.19308
-0.28733
-0.37138
-0.43507
-0.4962
-0.53186
-0.55479
-0.57771
-0.58281
-0.58535
-0.5879
-0.57007
-0.55988
-0.53441
-0.5013
-0.46818
-0.43761
-0.38667
-0.35101
-0.30516
-0.27459
-0.22619
-0.18034
-0.10647
-0.019863
0.10495
0.28071
0.54308
0.95574
1.4474
1.9848
2.4714
2.8891
3.205
3.424
3.5412
3.5641
3.5106
3.3833
3.2101
2.9783
2.7286
2.4586
2.1759
1.8982
1.6308
1.3633
1.1213
0.87677
0.65516
0.45647
0.26288
0.092216
-0.058072
-0.19817
-0.32553
-0.41469
-0.50894
-0.57517
-0.64139
-0.67196
-0.70762
-0.73055
-0.74328
-0.73055
-0.728
-0.71781
-0.68215
-0.66687
-0.62866
-0.593
-0.55733
-0.5013
-0.46309
-0.41978
-0.37393
-0.32044
-0.25421
-0.1727
-0.065714
0.097311
0.31383
0.6679
1.1417
1.6715
2.1886
2.6395
2.9961
3.2585
3.4087
3.475
3.4444
3.3502
3.1871
2.9783
2.7414
2.4739
2.2013
1.9262
1.6486
1.3811
1.1264
0.88696
0.6628
0.45138
0.25524
0.092216
-0.07845
-0.20836
-0.33063
-0.42742
-0.51148
-0.58026
-0.63885
-0.67451
-0.69743
-0.71781
-0.73055
-0.71781
-0.70253
-0.68979
-0.67451
-0.6363
-0.61083
-0.55733
-0.52932
-0.47837
-0.42997
-0.38412
-0.32808
-0.28223
-0.22874
-0.1676
-0.083545
0.025987
0.19665
0.44374
0.87422
1.4066
1.9645
2.4866
2.912
3.2406
3.447
3.5667
3.582
3.5132
3.3578
3.1591
2.9146
2.6395
2.3516
2.0587
1.7734
1.4932
1.2207
0.95574
0.71375
0.48704
0.28836
0.10495
-0.042789
-0.18798
-0.31535
-0.40705
-0.50384
-0.56752
-0.61592
-0.66941
-0.6847
-0.69998
-0.70253
-0.69998
-0.6796
-0.66941
-0.64394
-0.61083
-0.58026
-0.54969
-0.50894
-0.46309
-0.41978
-0.37138
-0.33827
-0.28478
-0.23383
-0.16506
-0.075903
0.059102
0.23486
0.49468
0.85385
1.3022
1.7938
2.2599
2.6573
2.9783
3.1973
3.3272
3.3553
3.317
3.2152
3.047
2.8534
2.6191
2.3669
2.1147
1.8626
1.6104
1.3633
1.1239
0.88951
0.67554
0.48449
0.29854
0.13552
-0.0096741
-0.13704
-0.24657
-0.34082
-0.41978
-0.48601
-0.53696
-0.57771
-0.60828
-0.61847
-0.64139
-0.63375
-0.63375
-0.61847
-0.59809
-0.56498
-0.52932
-0.5013
-0.46818
-0.42742
-0.37903
-0.34337
-0.29751
-0.25166
-0.19308
-0.1243
-0.0045796
0.13807
0.34185
0.64752
1.0602
1.5492
2.0485
2.4892
2.8433
3.1158
3.2686
3.34
3.3349
3.2483
3.1107
2.9197
2.7006
2.4663
2.2115
1.9441
1.6817
1.4244
1.1697
0.93281
0.71884
0.50232
0.31638
0.1508
0.018346
-0.11666
-0.22364
-0.32553
-0.41214
-0.47582
-0.51913
-0.57771
-0.60064
-0.61083
-0.6363
-0.63121
-0.62102
-0.61337
-0.58026
-0.57007
-0.52932
-0.5013
-0.47073
-0.43252
-0.39176
-0.34591
-0.30516
-0.25931
-0.216
-0.15742
-0.07845
0.02344
0.17882
0.3826
0.67809
1.0627
1.5263
1.9976
2.4153
2.7516
3.0063
3.1566
3.2152
3.2101
3.1285
2.9834
2.8076
2.5936
2.3618
2.1147
1.8702
1.6257
1.3786
1.1544
0.93026
0.72903
0.53289
0.35458
0.1992
0.056555
-0.065714
-0.17525
-0.2644
-0.33827
-0.3994
-0.45544
-0.48856
-0.50894
-0.53696
-0.53441
-0.53441
-0.53186
-0.50894
-0.49875
-0.46309
-0.43252
-0.40705
-0.36629
-0.32808
-0.28478
-0.24402
-0.20581
-0.1676
-0.13194
-0.065714
0.02344
0.1559
0.34185
0.60167
0.96847
1.4041
1.8728
2.3007
2.6751
2.9604
3.1566
3.261
3.2916
3.2508
3.1413
2.9859
2.7949
2.5682
2.3389
2.0944
1.8498
1.6027
1.3633
1.1264
0.8997
0.68573
0.50487
0.31383
0.16099
0.020893
-0.10647
-0.21855
-0.31535
-0.38922
-0.4478
-0.51148
-0.5395
-0.58026
-0.59809
-0.60828
-0.60064
-0.5879
-0.58535
-0.56752
-0.54205
-0.50639
-0.47837
-0.43252
-0.39686
-0.35355
-0.32044
-0.26949
-0.23383
-0.1727
-0.11921
-0.052978
0.041271
0.17628
0.3877
0.6679
1.0551
1.4932
1.9568
2.3567
2.7108
2.9757
3.1515
3.2432
3.2686
3.2126
3.0878
2.935
2.7388
2.5172
2.288
2.0358
1.7938
1.5391
1.2971
1.0653
0.84111
0.64242
0.44629
0.27307
0.12024
-0.030052
-0.14468
-0.24912
-0.33572
-0.42233
-0.47073
-0.52422
-0.56752
-0.58026
-0.59554
-0.61083
-0.61592
-0.59554
-0.59045
-0.55479
-0.53186
-0.49111
-0.46054
-0.42997
-0.38667
-0.34082
-0.30516
-0.25676
-0.20581
-0.16251
-0.10138
-0.032599
0.074385
0.23486
0.44374
0.76469
1.1901
1.6919
2.1606
2.5962
2.935
3.1719
3.3145
3.3603
3.3247
3.2177
3.0547
2.8534
2.6166
2.3618
2.102
1.8498
1.5926
1.3455
1.1111
0.88696
0.67554
0.46921
0.296
0.14061
-0.012221
-0.13449
-0.24147
-0.33572
-0.40705
-0.47582
-0.51913
-0.55733
-0.58281
-0.60064
-0.593
-0.59554
-0.58026
-0.57007
-0.5446
-0.50894
-0.47073
-0.44526
-0.40959
-0.36374
-0.32553
-0.27459
-0.22874
-0.18034
-0.10647
-0.017316
0.12024
0.31383
0.59403
0.97612
1.4168
1.8651
2.2625
2.6166
2.8789
3.0496
3.1464
3.1617
3.1209
2.9961
2.8509
2.6522
2.4484
2.2039
1.9695
1.7225
1.4805
1.241
1.0143
0.8029
0.60676
0.43864
0.26798
0.11514
-0.014769
-0.12175
-0.22619
-0.3077
-0.36884
-0.42997
-0.47328
-0.51403
-0.52677
-0.54969
-0.54969
-0.55479
-0.55224
-0.53186
-0.51658
-0.4962
-0.46818
-0.43761
-0.3994
-0.36374
-0.33063
-0.28987
-0.25421
-0.20072
-0.14213
-0.055525
0.076933
0.25779
0.5278
0.90479
1.3506
1.7989
2.2243
2.5911
2.8764
3.0827
3.1973
3.2381
3.205
3.1133
2.9732
2.7872
2.5809
2.3567
2.1275
1.8804
1.646
1.4117
1.1799
0.96083
0.76215
0.55836
0.39025
0.23741
0.087122
-0.045336
-0.15996
-0.25421
-0.33827
-0.41214
-0.47328
-0.51148
-0.5446
-0.58026
-0.593
-0.59554
-0.60319
-0.59809
-0.58535
-0.56752
-0.53696
-0.51658
-0.48856
-0.45035
-0.41214
-0.36884
-0.33318
-0.28478
-0.24147
-0.17015
-0.073356
0.082027
0.31128
0.62459
1.0474
1.4983
1.9415
2.3338
2.6649
2.8942
3.0496
3.1336
3.1362
3.0776
2.963
2.8025
2.6166
2.4051
2.181
1.9441
1.7123
1.4703
1.2487
1.0194
0.82837
0.63224
0.45138
0.30109
0.15844
0.031082
-0.086092
-0.18798
-0.27968
-0.36629
-0.42233
-0.46818
-0.51658
-0.54205
-0.56752
-0.57517
-0.58026
-0.57262
-0.57007
-0.54969
-0.52167
-0.5013
-0.47837
-0.43252
-0.40959
-0.36884
-0.32553
-0.30261
-0.24402
-0.19308
-0.11666
-0.0020324
0.16609
0.39789
0.73667
1.1391
1.5951
2.0307
2.4051
2.7108
2.9222
3.0725
3.1362
3.1184
3.0445
2.9171
2.7541
2.5503
2.3414
2.0995
1.8626
1.618
1.3837
1.1595
0.95319
0.7545
0.55836
0.39534
0.25524
0.1075
-0.0045796
-0.11411
-0.216
-0.28987
-0.3612
-0.41724
-0.45035
-0.48601
-0.51403
-0.52932
-0.53441
-0.5395
-0.53186
-0.50894
-0.49875
-0.46818
-0.44016
-0.40705
-0.37648
-0.34337
-0.3128
-0.26695
-0.216
-0.15996
-0.065714
0.074385
0.27307
0.5711
0.94555
1.376
1.8091
2.1988
2.5198
2.7694
2.9299
3.0139
3.0241
2.9706
2.8585
2.7083
2.5045
2.3032
2.0765
1.8422
1.6002
1.3709
1.1442
0.93791
0.73413
0.55072
0.37751
0.23232
0.094763
-0.027505
-0.12685
-0.216
-0.28987
-0.34337
-0.39431
-0.43761
-0.45035
-0.47837
-0.48346
-0.49875
-0.48092
-0.48346
-0.46563
-0.43761
-0.40705
-0.38667
-0.3561
-0.32553
-0.29242
-0.25676
-0.21855
-0.17525
-0.10392
0.0005149
0.15844
0.37241
0.67299
1.0576
1.5059
1.9313
2.3211
2.6344
2.8738
3.0088
3.0776
3.0547
2.9859
2.8382
2.6624
2.4688
2.2447
2.0154
1.781
1.5543
1.32
1.0907
0.88696
0.69082
0.50997
0.34694
0.20684
0.076933
-0.045336
-0.14213
-0.23129
-0.29751
-0.3561
-0.3994
-0.44271
-0.46818
-0.48346
-0.49365
-0.4962
-0.48856
-0.47328
-0.46818
-0.44526
-0.42233
-0.39431
-0.36374
-0.33063
-0.29751
-0.2644
-0.21855
-0.14977
-0.075903
0.05146
0.21958
0.4794
0.8513
1.2894
1.7479
2.1784
2.5452
2.8331
3.0445
3.154
3.205
3.1795
3.0852
2.9604
2.7821
2.5783
2.3644
2.13
1.8778
1.6511
1.399
1.185
0.95319
0.75705
0.5711
0.3877
0.22722
0.076933
-0.040241
-0.16251
-0.26695
-0.34337
-0.42742
-0.47582
-0.53186
-0.56498
-0.59045
-0.60573
-0.60319
-0.61083
-0.59554
-0.59045
-0.57007
-0.55479
-0.51403
-0.49875
-0.45799
-0.42742
-0.38412
-0.35101
-0.31025
-0.26185
-0.2211
-0.17525
-0.1243
-0.088639
-0.055525
-0.012221
0.038724
0.082027
0.12278
0.16099
0.20939
0.25015
0.2909
0.32911
0.36223
0.40043
0.44629
0.50997
0.61695
0.76979
0.98885
1.2971
1.7072
2.1606
2.6089
3.0088
3.3323
3.5667
3.6482
3.6507
3.6405
3.5616
3.4164
3.2203
3.0012
2.7465
2.4815
2.1988
1.9313
1.6639
1.4091
1.1646
0.93791
0.72903
0.54563
0.36732
0.21194
0.074385
-0.040241
-0.14468
-0.24912
-0.32044
-0.37903
-0.44271
-0.47837
-0.51403
-0.52932
-0.54205
-0.54969
-0.54205
-0.5395
-0.52677
-0.51403
-0.47837
-0.46818
-0.42742
-0.4045
-0.37138
-0.33063
-0.30261
-0.26695
-0.22619
-0.18034
-0.14723
-0.10392
-0.060619
-0.0096741
0.031082
0.071838
0.11259
0.14826
0.20684
0.25779
0.32656
0.43864
0.59657
0.81309
1.1086
1.4983
1.9186
2.3414
2.7083
3.0114
3.2432
3.3705
3.4189
3.3833
3.2839
3.1362
2.9375
2.7108
2.4586
2.2039
1.9466
1.6843
1.4423
1.2079
0.98885
0.78507
0.59403
0.431
0.27817
0.14316
0.036177
-0.060619
-0.16251
-0.23893
-0.29242
-0.35101
-0.3994
-0.42742
-0.44526
-0.47328
-0.47073
-0.48346
-0.46818
-0.45799
-0.4478
-0.42233
-0.40705
-0.37903
-0.34846
-0.31535
-0.27968
-0.23893
-0.20836
-0.17015
-0.13704
-0.083545
-0.052978
0.0056094
0.059102
0.13807
0.27307
0.45647
0.71629
1.0958
1.5289
1.9874
2.4204
2.7796
3.0572
3.2585
3.3731
3.4011
3.3527
3.2559
3.1082
2.9044
2.6853
2.4561
2.2064
1.9415
1.6792
1.4346
1.1977
0.96593
0.74686
0.55327
0.37751
0.21703
0.066744
-0.052978
-0.17015
-0.26695
-0.34591
-0.42233
-0.47582
-0.52677
-0.56243
-0.58281
-0.61337
-0.61592
-0.61592
-0.61337
-0.60319
-0.58026
-0.57007
-0.53441
-0.50894
-0.48092
-0.44016
-0.40195
-0.36884
-0.32044
-0.27714
-0.23383
-0.18544
-0.14213
-0.070808
0.013251
0.13297
0.30873
0.55072
0.87677
1.292
1.7301
2.1402
2.507
2.8152
3.0165
3.1387
3.1897
3.1617
3.0725
2.9324
2.7541
2.5452
2.3211
2.0791
1.8396
1.5976
1.3633
1.1391
0.91498
0.72139
0.53544
0.37241
0.21194
0.07948
-0.037694
-0.13958
-0.2211
-0.29242
-0.35101
-0.40705
-0.44526
-0.47328
-0.49365
-0.50639
-0.50894
-0.51148
-0.49365
-0.47328
-0.4529
-0.42997
-0.40705
-0.38412
-0.34591
-0.31535
-0.28987
-0.24402
-0.20327
-0.1676
-0.1294
-0.058072
0.033629
0.18392
0.38515
0.68573
1.0729
1.5212
1.9492
2.344
2.6853
2.9222
3.0802
3.1566
3.1668
3.1133
2.991
2.8254
2.6395
2.423
2.1912
1.9568
1.7072
1.4805
1.2538
1.0296
0.83602
0.63988
0.46666
0.30364
0.16354
0.048913
-0.073356
-0.16251
-0.25421
-0.31789
-0.38157
-0.42742
-0.46309
-0.50639
-0.51913
-0.53696
-0.5395
-0.53441
-0.53186
-0.51658
-0.5013
-0.47328
-0.45799
-0.42997
-0.39686
-0.36374
-0.32808
-0.28733
-0.25421
-0.20327
-0.16251
-0.10902
-0.012221
0.11514
0.31892
0.6144
1.0169
1.4677
1.9237
2.3491
2.7083
2.9783
3.1591
3.2636
3.2916
3.261
3.1591
3.0165
2.828
2.6318
2.4
2.1631
1.9237
1.6817
1.4372
1.2181
0.99395
0.79017
0.59912
0.42336
0.26798
0.12278
-0.012221
-0.11411
-0.22874
-0.32044
-0.38667
-0.45544
-0.50894
-0.54969
-0.59045
-0.60828
-0.61592
-0.62102
-0.63121
-0.60828
-0.59809
-0.58281
-0.54205
-0.52422
-0.47837
-0.4478
-0.40959
-0.36629
-0.32553
-0.29497
-0.24147
-0.18034
-0.10138
0.031082
0.20684
0.46412
0.83856
1.3302
1.8294
2.2981
2.7057
3.0063
3.2177
3.3247
3.3603
3.317
3.1999
3.0419
2.8382
2.6064
2.3644
2.1275
1.8829
1.6333
1.3964
1.1723
0.95828
0.7545
0.56601
0.39025
0.23232
0.084574
-0.05043
-0.18034
-0.27714
-0.36884
-0.43761
-0.5013
-0.54969
-0.593
-0.62356
-0.6363
-0.63885
-0.65158
-0.63375
-0.61592
-0.60319
-0.57771
-0.55224
-0.51403
-0.47837
-0.43761
-0.39686
-0.36884
-0.31789
-0.26695
-0.18289
-0.070808
0.092216
0.32656
0.68318
1.129
1.6231
2.0995
2.5274
2.8585
3.0852
3.2304
3.2967
3.2916
3.2152
3.0878
2.9171
2.721
2.4943
2.2523
2.0256
1.7836
1.5314
1.2996
1.0831
0.86913
0.6679
0.48449
0.30873
0.13807
-0.0020324
-0.13958
-0.25676
-0.3612
-0.44271
-0.52167
-0.58281
-0.63121
-0.66687
-0.69489
-0.70762
-0.70762
-0.71272
-0.69743
-0.67451
-0.65668
-0.63121
-0.593
-0.55224
-0.51403
-0.47073
-0.42488
-0.37648
-0.34082
-0.27714
-0.18798
-0.060619
0.12278
0.3877
0.76979
1.2538
1.7734
2.2523
2.67
3.0063
3.2508
3.3986
3.4521
3.4444
3.3782
3.2406
3.0547
2.8534
2.6267
2.3746
2.1326
1.8702
1.6333
1.3913
1.1595
0.94045
0.72903
0.53289
0.35204
0.18646
0.038724
-0.10392
-0.22364
-0.34337
-0.44271
-0.52677
-0.60064
-0.65923
-0.70253
-0.74074
-0.75857
-0.7764
-0.78149
-0.76366
-0.76366
-0.728
-0.71017
-0.66432
-0.62866
-0.593
-0.55733
-0.51148
-0.46054
-0.41724
-0.35355
-0.30006
-0.20581
-0.083545
0.11005
0.40808
0.8029
1.2843
1.753
2.1861
2.558
2.8407
3.0292
3.1489
3.1846
3.1642
3.0954
2.963
2.8101
2.6191
2.4051
2.1937
1.9695
1.753
1.5238
1.3098
1.1035
0.8946
0.71375
0.53289
0.36732
0.21194
0.082027
-0.052978
-0.18034
-0.28987
-0.38667
-0.48601
-0.55479
-0.61083
-0.66177
-0.69234
-0.71781
-0.72291
-0.71781
-0.70508
-0.68215
-0.66177
-0.62611
-0.593
-0.56752
-0.51658
-0.47837
-0.42742
-0.39176
-0.34082
-0.28478
-0.22874
-0.15742
-0.040241
0.13297
0.39025
0.74941
1.185
1.6486
2.102
2.4841
2.7872
3.0063
3.1438
3.2075
3.1948
3.1209
2.991
2.8127
2.6115
2.3949
2.1657
1.939
1.7021
1.4779
1.264
1.05
0.85894
0.67044
0.50487
0.34185
0.1992
0.076933
-0.045336
-0.14977
-0.25166
-0.34082
-0.41214
-0.47328
-0.50894
-0.55224
-0.58026
-0.593
-0.593
-0.59554
-0.58026
-0.56498
-0.54205
-0.51913
-0.48601
-0.45544
-0.41469
-0.38412
-0.33572
-0.28987
-0.24402
-0.17525
-0.075903
0.084574
0.31383
0.65007
1.0856
1.5569
2.0307
2.4331
2.7694
3.0063
3.1769
3.2636
3.2763
3.2203
3.1158
2.9655
2.7796
2.5682
2.3491
2.1147
1.8804
1.6308
1.4066
1.1824
0.97612
0.76724
0.58893
0.40808
0.2425
0.1075
-0.035147
-0.15487
-0.25931
-0.3612
-0.44526
-0.51148
-0.57007
-0.62102
-0.65413
-0.67706
-0.69234
-0.69743
-0.69234
-0.67196
-0.66432
-0.63121
-0.60064
-0.56498
-0.52677
-0.48092
-0.42997
-0.38157
-0.34337
-0.28987
-0.24147
-0.16251
-0.05043
0.10495
0.35204
0.72139
1.1773
1.669
2.1351
2.5401
2.8764
3.1133
3.261
3.3374
3.3425
3.289
3.1871
3.0368
2.8534
2.6395
2.4
2.1657
1.9211
1.6741
1.4423
1.213
0.98885
0.80035
0.59912
0.431
0.27052
0.13043
-0.0045796
-0.13194
-0.23893
-0.33827
-0.43252
-0.51148
-0.58026
-0.6363
-0.67196
-0.71017
-0.73564
-0.73055
-0.728
-0.71272
-0.70253
-0.67196
-0.64649
-0.60319
-0.57007
-0.52932
-0.48856
-0.44526
-0.39686
-0.34846
-0.29751
-0.24657
-0.1676
-0.047883
0.12024
0.37751
0.73667
1.1977
1.6664
2.1122
2.507
2.8178
3.0496
3.1922
3.261
3.2559
3.1897
3.0776
2.9222
2.7312
2.5198
2.288
2.0587
1.8142
1.5773
1.3557
1.129
0.92262
0.72903
0.55072
0.39025
0.2425
0.10495
-0.017316
-0.13704
-0.23893
-0.32553
-0.39686
-0.48092
-0.52932
-0.58281
-0.60319
-0.63375
-0.63885
-0.65413
-0.63121
-0.61847
-0.60573
-0.58281
-0.5446
-0.51658
-0.47073
-0.43761
-0.39686
-0.34591
-0.30516
-0.25166
-0.16506
-0.042789
0.13807
0.44119
0.8513
1.3098
1.7887
2.2217
2.5885
2.8789
3.0649
3.182
3.2228
3.205
3.1184
2.9935
2.8152
2.6267
2.3975
2.1759
1.9339
1.7021
1.4652
1.2436
1.0398
0.83856
0.65516
0.48704
0.3393
0.19665
0.054007
-0.055525
-0.17015
-0.27459
-0.3612
-0.44016
-0.50639
-0.56498
-0.59809
-0.63121
-0.65668
-0.66432
-0.66177
-0.65158
-0.64904
-0.62611
-0.59554
-0.57007
-0.52167
-0.4962
-0.4478
-0.40705
-0.3561
-0.31535
-0.26695
-0.20581
-0.13194
-0.0096741
0.16609
0.45647
0.86658
1.3531
1.8498
2.3083
2.6904
2.991
3.1948
3.3221
3.3731
3.3553
3.289
3.1668
3.0063
2.8127
2.5885
2.3669
2.1198
1.8677
1.6333
1.3964
1.1901
0.97102
0.79017
0.61186
0.4361
0.28326
0.1559
0.013251
-0.10647
-0.21091
-0.30516
-0.4045
-0.49365
-0.55224
-0.61592
-0.66177
-0.70253
-0.71526
-0.7331
-0.74328
-0.7331
-0.71781
-0.69489
-0.67196
-0.63121
-0.60319
-0.55224
-0.50894
-0.47328
-0.43507
-0.38667
-0.34337
-0.27968
-0.20581
-0.093734
0.069291
0.32402
0.70356
1.1697
1.6588
2.1147
2.5198
2.8305
3.0572
3.1999
3.2636
3.2686
3.2152
3.0954
2.9451
2.7694
2.5529
2.3262
2.0944
1.86
1.6333
1.3913
1.1875
0.9914
0.79526
0.62205
0.46666
0.31892
0.18137
0.056555
-0.065714
-0.17015
-0.26695
-0.35865
-0.42488
-0.5013
-0.54715
-0.593
-0.62866
-0.65413
-0.66177
-0.67196
-0.66177
-0.64649
-0.62102
-0.60573
-0.56752
-0.53186
-0.49111
-0.46054
-0.40705
-0.37393
-0.31535
-0.25166
-0.15742
-0.017316
0.20175
0.54563
0.98121
1.4499
1.9135
2.3313
2.6649
2.9146
3.0776
3.1591
3.1719
3.1336
3.0368
2.8891
2.7133
2.5223
2.2956
2.0689
1.8447
1.618
1.3913
1.1875
0.99904
0.8029
0.63224
0.4794
0.33421
0.19411
0.076933
-0.040241
-0.14468
-0.24402
-0.33063
-0.41724
-0.47328
-0.54205
-0.58026
-0.60828
-0.63885
-0.65158
-0.65413
-0.65158
-0.64139
-0.61592
-0.60573
-0.55988
-0.53696
-0.48856
-0.4478
-0.40705
-0.36374
-0.32553
-0.26949
-0.21855
-0.14213
-0.027505
0.16099
0.44629
0.86404
1.3557
1.8549
2.2905
2.6828
2.9604
3.1769
3.289
3.3374
3.3272
3.261
3.1362
2.9783
2.777
2.5631
2.3287
2.0918
1.8498
1.618
1.4041
1.1952
0.9914
0.80545
0.63478
0.47685
0.32656
0.19156
0.061649
-0.063167
-0.17779
-0.27714
-0.37903
-0.46054
-0.53186
-0.593
-0.64139
-0.6796
-0.70508
-0.71781
-0.72291
-0.72036
-0.71272
-0.69743
-0.66177
-0.6363
-0.60828
-0.56752
-0.51913
-0.47073
-0.43507
-0.39176
-0.34082
-0.28478
-0.20072
-0.080997
0.10241
0.3826
0.78252
1.264
1.7403
2.1886
2.5529
2.8458
3.0521
3.1744
3.2126
3.205
3.1184
2.9986
2.8331
2.6471
2.4382
2.2039
1.9645
1.7454
1.5085
1.3047
1.0958
0.91243
0.73158
0.56091
0.41572
0.27562
0.14826
0.02344
-0.080997
-0.18289
-0.27968
-0.35101
-0.43252
-0.48856
-0.53696
-0.57771
-0.60319
-0.62356
-0.63885
-0.63121
-0.62102
-0.60573
-0.58535
-0.56243
-0.51913
-0.49111
-0.4529
-0.42742
-0.38157
-0.33827
-0.29242
-0.23383
-0.1294
0.0056094
0.22722
0.58129
1.022
1.5187
1.9874
2.3949
2.7184
2.9732
3.1158
3.205
3.2024
3.1566
3.0445
2.9044
2.7184
2.5172
2.2905
2.0536
1.8269
1.6155
1.3939
1.2003
1.0016
0.81564
0.65771
0.50742
0.35204
0.21448
0.084574
-0.042789
-0.14213
-0.25421
-0.34846
-0.41978
-0.49365
-0.54205
-0.5879
-0.62611
-0.64649
-0.66432
-0.65668
-0.66177
-0.65158
-0.62356
-0.59554
-0.58026
-0.53186
-0.49875
-0.46309
-0.41214
-0.38667
-0.32553
-0.28478
-0.22619
-0.16506
-0.05043
0.11259
0.36477
0.76215
1.241
1.7428
2.2141
2.6216
2.9273
3.1591
3.2916
3.368
3.3603
3.2967
3.1769
3.0241
2.8331
2.6166
2.3771
2.1402
1.8931
1.6639
1.4346
1.2207
1.0169
0.83092
0.65771
0.49468
0.34439
0.20939
0.071838
-0.05043
-0.1727
-0.26949
-0.36374
-0.45035
-0.52932
-0.58026
-0.63121
-0.66941
-0.69998
-0.72545
-0.71781
-0.72036
-0.70762
-0.68725
-0.66941
-0.6363
-0.59045
-0.55988
-0.51403
-0.47073
-0.42488
-0.37903
-0.33827
-0.27204
-0.19308
-0.088639
0.089669
0.34949
0.73158
1.1977
1.6817
2.1428
2.5198
2.8254
3.0343
3.1642
3.2126
3.1973
3.1362
2.9986
2.8458
2.6471
2.4433
2.209
1.9874
1.7556
1.5212
1.3047
1.1137
0.91753
0.73413
0.57874
0.4361
0.28836
0.16354
0.043818
-0.065714
-0.1676
-0.25421
-0.34337
-0.40195
-0.48092
-0.52422
-0.55988
-0.59554
-0.61592
-0.62611
-0.62356
-0.61337
-0.59809
-0.59045
-0.55224
-0.52167
-0.49875
-0.4529
-0.41978
-0.37903
-0.33063
-0.28733
-0.21855
-0.11921
0.013251
0.25269
0.60931
1.0831
1.5849
2.0587
2.4688
2.7872
3.0318
3.1897
3.261
3.2661
3.2177
3.1133
2.9553
2.7694
2.558
2.3313
2.0969
1.86
1.6308
1.4091
1.2054
1.0067
0.81819
0.65007
0.48959
0.34949
0.21448
0.089669
-0.042789
-0.14213
-0.24912
-0.34337
-0.42997
-0.5013
-0.55988
-0.59554
-0.64649
-0.66432
-0.6796
-0.6847
-0.67706
-0.67706
-0.65668
-0.62102
-0.59045
-0.55733
-0.51913
-0.47837
-0.44271
-0.39686
-0.3612
-0.31789
-0.26695
-0.19308
-0.10138
0.054007
0.28836
0.6679
1.129
1.6384
2.1198
2.5376
2.8687
3.0954
3.2559
3.34
3.3451
3.2839
3.1795
3.0216
2.8382
2.6267
2.3949
2.158
1.911
1.6741
1.4499
1.2308
1.0372
0.85385
0.67299
0.52525
0.36987
0.21958
0.099858
-0.032599
-0.14213
-0.24147
-0.33572
-0.42997
-0.49875
-0.56243
-0.60828
-0.65923
-0.68979
-0.69998
-0.70762
-0.69998
-0.69743
-0.67706
-0.65668
-0.62356
-0.59045
-0.56498
-0.51403
-0.48601
-0.43507
-0.38667
-0.34846
-0.29751
-0.24402
-0.1727
-0.073356
0.087122
0.34694
0.71375
1.185
1.6741
2.13
2.5223
2.8305
3.0598
3.1871
3.2483
3.2457
3.1795
3.0547
2.8967
2.7057
2.4917
2.2778
2.0485
1.8091
1.5849
1.3709
1.157
0.97102
0.79017
0.62205
0.46412
0.32656
0.19411
0.066744
-0.042789
-0.14213
-0.24657
-0.33827
-0.40705
-0.47073
-0.53186
-0.55988
-0.59809
-0.61592
-0.62611
-0.62611
-0.62611
-0.60573
-0.58281
-0.55479
-0.53186
-0.48601
-0.4478
-0.41469
-0.37393
-0.33063
-0.28733
-0.23129
-0.15487
-0.032599
0.15844
0.45647
0.87168
1.3633
1.8524
2.2956
2.6548
2.9324
3.1311
3.2355
3.2814
3.2534
3.1642
3.0267
2.8662
2.6599
2.4281
2.2039
1.9619
1.7352
1.5059
1.2945
1.1009
0.90734
0.72903
0.56091
0.40298
0.26543
0.12024
0.0030622
-0.11921
-0.22364
-0.32044
-0.3994
-0.48346
-0.54715
-0.59809
-0.6363
-0.66432
-0.6847
-0.69998
-0.69234
-0.68215
-0.66177
-0.63885
-0.61592
-0.57771
-0.5395
-0.51148
-0.46818
-0.42488
-0.38667
-0.33318
-0.28223
-0.22874
-0.13449
-0.014769
0.19156
0.50997
0.96083
1.4499
1.9415
2.3822
2.749
3.019
3.1948
3.3018
3.3298
3.2967
3.205
3.07
2.8891
2.693
2.4663
2.2319
1.9874
1.7607
1.5365
1.3174
1.1035
0.92008
0.73413
0.55836
0.40553
0.26288
0.12533
0.0081567
-0.10647
-0.21855
-0.31535
-0.3994
-0.48092
-0.54715
-0.59045
-0.6363
-0.67196
-0.69743
-0.70253
-0.70253
-0.68979
-0.67451
-0.64394
-0.61847
-0.59045
-0.55733
-0.52422
-0.47328
-0.42997
-0.38157
-0.33827
-0.29751
-0.23638
-0.14723
-0.014769
0.16863
0.47685
0.87677
1.3557
1.8345
2.2701
2.6216
2.8967
3.0929
3.1973
3.2355
3.1999
3.1158
2.9732
2.7949
2.5911
2.3771
2.1377
1.911
1.6766
1.4677
1.2538
1.0474
0.86404
0.68827
0.5278
0.3877
0.2425
0.12278
0.010704
-0.10647
-0.20327
-0.28987
-0.37648
-0.4478
-0.49365
-0.54715
-0.58026
-0.61592
-0.62356
-0.62611
-0.62866
-0.61337
-0.593
-0.57517
-0.53186
-0.50894
-0.46563
-0.42997
-0.40195
-0.35355
-0.3077
-0.26695
-0.216
-0.12685
-0.014769
0.17118
0.46921
0.8946
1.3786
1.8804
2.3262
2.7108
2.9859
3.1922
3.3094
3.3603
3.3221
3.2432
3.1056
2.9324
2.7286
2.507
2.2676
2.0103
1.776
1.534
1.3124
1.1137
0.90224
0.72139
0.55327
0.38515
0.23996
0.099858
-0.030052
-0.15232
-0.2644
-0.37648
-0.45035
-0.52422
-0.59809
-0.6363
-0.68725
-0.70762
-0.72036
-0.71781
-0.71781
-0.70508
-0.68979
-0.66177
-0.63375
-0.593
-0.55988
-0.50894
-0.46818
-0.42488
-0.37903
-0.33318
-0.28478
-0.2211
-0.15742
-0.040241
0.13552
0.39534
0.79526
1.2716
1.776
2.2421
2.6497
2.9681
3.1871
3.3272
3.3807
3.3705
3.2992
3.1871
3.0063
2.8178
2.5834
2.3465
2.102
1.8473
1.618
1.3811
1.157
0.95574
0.76724
0.58638
0.431
0.27562
0.13552
0.0005149
-0.12685
-0.22364
-0.32299
-0.41724
-0.4962
-0.56498
-0.61337
-0.66432
-0.68725
-0.70508
-0.71526
-0.71526
-0.71017
-0.69234
-0.67451
-0.63885
-0.59809
-0.57007
-0.52167
-0.48346
-0.42742
-0.38412
-0.34082
-0.28223
-0.22619
-0.15996
-0.047883
0.1075
0.34694
0.70101
1.1519
1.6333
2.0893
2.5019
2.8152
3.0598
3.2024
3.2712
3.261
3.1973
3.0802
2.9095
2.7133
2.4917
2.2599
2.0154
1.7887
1.5467
1.3276
1.1162
0.90989
0.72648
0.55072
0.39534
0.25524
0.12024
-0.0020324
-0.10392
-0.21345
-0.30261
-0.38922
-0.4529
-0.50639
-0.55733
-0.57771
-0.60064
-0.62356
-0.61592
-0.61083
-0.59554
-0.58026
-0.55733
-0.52932
-0.49875
-0.46054
-0.42742
-0.38157
-0.34591
-0.30006
-0.25166
-0.19562
-0.11921
0.018346
0.20175
0.50742
0.92772
1.4193
1.9161
2.3771
2.7516
3.0343
3.2279
3.3323
3.3603
3.3349
3.2406
3.1031
2.9197
2.7006
2.4637
2.2192
1.9645
1.7148
1.4754
1.2436
1.022
0.83347
0.65771
0.48704
0.33166
0.19156
0.056555
-0.05043
-0.15996
-0.26695
-0.35101
-0.42488
-0.49875
-0.54969
-0.593
-0.62611
-0.64649
-0.66432
-0.65158
-0.66177
-0.64139
-0.62611
-0.61083
-0.57517
-0.54969
-0.5013
-0.47073
-0.43507
-0.39686
-0.3561
-0.31025
-0.26949
-0.21091
-0.1243
0.0030622
0.17628
0.48449
0.89715
1.3811
1.8906
2.3414
2.721
3.0139
3.2203
3.3323
3.3654
3.3476
3.2661
3.126
2.9553
2.7388
2.5147
2.288
2.0307
1.7836
1.5594
1.3302
1.0984
0.90224
0.70356
0.53289
0.36732
0.23232
0.089669
-0.035147
-0.15742
-0.25421
-0.33827
-0.41978
-0.49875
-0.55733
-0.60573
-0.64139
-0.67451
-0.68725
-0.68215
-0.68725
-0.6796
-0.65668
-0.63885
-0.60573
-0.57517
-0.53441
-0.50894
-0.46054
-0.41978
-0.36884
-0.31789
-0.27714
-0.20581
-0.1243
-0.0096741
0.17373
0.46921
0.86913
1.3353
1.8244
2.2625
2.6293
2.9069
3.0903
3.1973
3.2279
3.1922
3.098
2.9579
2.777
2.5732
2.3491
2.1224
1.888
1.6537
1.4397
1.2283
1.0296
0.8462
0.67299
0.51251
0.36987
0.22722
0.1075
-0.019863
-0.12175
-0.2211
-0.3077
-0.38412
-0.45799
-0.50384
-0.54715
-0.57771
-0.5879
-0.59554
-0.59554
-0.58535
-0.57262
-0.55224
-0.52932
-0.50384
-0.46818
-0.43507
-0.39686
-0.3612
-0.32299
-0.27968
-0.23893
-0.18289
-0.093734
0.036177
0.25779
0.58384
1.0398
1.5365
2.0154
2.4408
2.7821
3.0343
3.2024
3.289
3.2992
3.2559
3.1438
2.9935
2.805
2.5885
2.3644
2.1224
1.8855
1.6511
1.4372
1.2257
1.0169
0.83092
0.67044
0.50232
0.35458
0.21194
0.076933
-0.035147
-0.14977
-0.25166
-0.34591
-0.42233
-0.4962
-0.54715
-0.59045
-0.62356
-0.64649
-0.65923
-0.66177
-0.66177
-0.64139
-0.63121
-0.61083
-0.58026
-0.55733
-0.52167
-0.47837
-0.43252
-0.39686
-0.3561
-0.31789
-0.25931
-0.20072
-0.10902
0.028535
0.24505
0.58893
1.0372
1.5416
2.0332
2.4663
2.8025
3.0649
3.2304
3.312
3.3323
3.2814
3.1719
3.0292
2.8433
2.6191
2.3949
2.158
1.9237
1.6893
1.4575
1.2385
1.0372
0.8462
0.67044
0.51761
0.35713
0.21448
0.084574
-0.042789
-0.15742
-0.2644
-0.34591
-0.43761
-0.50894
-0.56243
-0.60828
-0.64139
-0.67196
-0.67196
-0.6847
-0.66687
-0.66941
-0.65158
-0.62866
-0.59554
-0.55988
-0.51913
-0.48856
-0.45035
-0.39431
-0.35101
-0.3128
-0.26695
-0.20581
-0.12685
-0.0096741
0.16863
0.43864
0.84366
1.3174
1.7963
2.237
2.6064
2.8789
3.0649
3.1846
3.2279
3.1897
3.098
2.9655
2.7847
2.5732
2.3644
2.13
1.8957
1.6741
1.4499
1.2461
1.0474
0.86404
0.68827
0.53544
0.3877
0.25779
0.12024
0.010704
-0.093734
-0.18798
-0.27714
-0.36374
-0.42742
-0.47837
-0.52167
-0.54969
-0.58026
-0.59045
-0.593
-0.58281
-0.57517
-0.55733
-0.53186
-0.50894
-0.47073
-0.43252
-0.40195
-0.36629
-0.32553
-0.30006
-0.24402
-0.19562
-0.13449
-0.019863
0.15844
0.43355
0.83092
1.3124
1.8091
2.2676
2.6471
2.9451
3.1438
3.261
3.3018
3.2814
3.1948
3.0598
2.8942
2.6904
2.4637
2.2243
1.9848
1.7454
1.5289
1.3047
1.1035
0.91243
0.73413
0.5762
0.41827
0.26543
0.13807
0.0081567
-0.10392
-0.22364
-0.31025
-0.39686
-0.47328
-0.52932
-0.58026
-0.61847
-0.63885
-0.65923
-0.66432
-0.66432
-0.65668
-0.64394
-0.62356
-0.59554
-0.55733
-0.51658
-0.49111
-0.44271
-0.40195
-0.36629
-0.32299
-0.27714
-0.22619
-0.16251
-0.065714
0.061649
0.28071
0.63478
1.0984
1.6002
2.0969
2.5274
2.8611
3.1133
3.2839
3.3654
3.3731
3.312
3.205
3.0496
2.8534
2.6344
2.4026
2.1504
1.911
1.6817
1.4474
1.2385
1.0423
0.84366
0.6679
0.50742
0.36223
0.21448
0.087122
-0.037694
-0.15232
-0.24912
-0.3561
-0.42742
-0.49875
-0.55479
-0.60064
-0.63375
-0.65923
-0.6796
-0.6796
-0.66941
-0.66687
-0.65413
-0.61592
-0.60319
-0.55733
-0.52932
-0.48856
-0.44271
-0.40195
-0.36374
-0.31535
-0.27968
-0.21345
-0.14977
-0.045336
0.11514
0.35713
0.74431
1.1926
1.6868
2.1479
2.535
2.8382
3.0572
3.1871
3.2457
3.233
3.1489
3.0114
2.8433
2.642
2.4102
2.1784
1.9517
1.7225
1.4983
1.2869
1.0882
0.89715
0.72139
0.57365
0.42081
0.27562
0.15335
0.05146
-0.070808
-0.16251
-0.24912
-0.32808
-0.4045
-0.4478
-0.50639
-0.52932
-0.55479
-0.58281
-0.57517
-0.57771
-0.57517
-0.54715
-0.53186
-0.50639
-0.48092
-0.45035
-0.40705
-0.36629
-0.32808
-0.29497
-0.24657
-0.20327
-0.11921
0.0056094
0.1992
0.50742
0.93791
1.4244
1.9084
2.344
2.6981
2.9579
3.1464
3.2304
3.2559
3.2024
3.1031
2.9553
2.7719
2.5605
2.3287
2.102
1.8728
1.6435
1.427
1.2181
1.0347
0.8462
0.67554
0.51506
0.37496
0.23486
0.10241
-0.017316
-0.11921
-0.21855
-0.30516
-0.39686
-0.45799
-0.51148
-0.55988
-0.593
-0.60828
-0.62356
-0.62866
-0.62356
-0.61337
-0.593
-0.57007
-0.54205
-0.50639
-0.47837
-0.44271
-0.40195
-0.37138
-0.32808
-0.28478
-0.23383
-0.16506
-0.052978
0.12024
0.40298
0.81309
1.3047
1.804
2.2701
2.6573
2.9477
3.1591
3.2839
3.3298
3.3018
3.2203
3.0878
2.9171
2.7184
2.4943
2.265
2.0205
1.7836
1.562
1.3302
1.1315
0.94045
0.7545
0.59403
0.43864
0.2909
0.1508
0.038724
-0.080997
-0.19308
-0.28987
-0.36629
-0.4529
-0.50894
-0.57007
-0.61337
-0.64649
-0.66687
-0.67451
-0.67451
-0.66177
-0.65668
-0.6363
-0.60828
-0.58281
-0.5446
-0.50894
-0.47073
-0.43252
-0.39176
-0.3561
-0.30516
-0.21855
-0.11411
0.048913
0.32656
0.71375
1.1773
1.6639
2.0995
2.4739
2.7566
2.9706
3.0802
3.1336
3.1133
3.0343
2.8993
2.7337
2.5427
2.3287
2.1046
1.8753
1.669
1.4423
1.2461
1.0474
0.87677
0.70865
0.55836
0.40808
0.27817
0.1508
0.038724
-0.063167
-0.1676
-0.25166
-0.34591
-0.40705
-0.47073
-0.52677
-0.55988
-0.57771
-0.60319
-0.60319
-0.59809
-0.58026
-0.57262
-0.54205
-0.51913
-0.47837
-0.4478
-0.40959
-0.37138
-0.33318
-0.29242
-0.2211
-0.1243
0.031082
0.29345
0.67299
1.1417
1.6308
2.0816
2.4663
2.7592
2.9783
3.1031
3.154
3.1464
3.0598
2.9451
2.7821
2.5834
2.3771
2.1453
1.9262
1.7123
1.4983
1.2818
1.0933
0.91498
0.73667
0.58129
0.41827
0.27817
0.1508
0.02344
-0.096281
-0.20581
-0.3077
-0.38157
-0.46818
-0.52167
-0.58026
-0.61083
-0.6363
-0.65923
-0.66432
-0.64649
-0.63375
-0.62102
-0.59554
-0.56498
-0.54205
-0.49875
-0.47073
-0.42997
-0.38412
-0.34846
-0.28478
-0.216
-0.10647
0.066744
0.35458
0.77998
1.2741
1.7658
2.2268
2.5962
2.8891
3.0929
3.2177
3.2559
3.2355
3.1566
3.0292
2.8662
2.6649
2.4408
2.2166
1.9772
1.7556
1.5314
1.32
1.1162
0.92517
0.74941
0.58893
0.43355
0.2909
0.15844
0.028535
-0.086092
-0.19308
-0.28478
-0.37648
-0.45544
-0.52677
-0.58026
-0.62866
-0.66687
-0.68979
-0.70508
-0.70508
-0.70508
-0.68979
-0.65923
-0.63121
-0.60319
-0.55988
-0.51913
-0.47328
-0.43761
-0.39686
-0.33827
-0.25421
-0.13194
0.069291
0.36732
0.79271
1.2792
1.7428
2.1657
2.5147
2.7847
2.9502
3.0547
3.0802
3.0419
2.9528
2.8152
2.6369
2.4357
2.2217
2.0027
1.7836
1.5594
1.3557
1.1595
0.97357
0.79781
0.63224
0.4794
0.34439
0.21448
0.082027
-0.024958
-0.14468
-0.23893
-0.33572
-0.40195
-0.48601
-0.53696
-0.58281
-0.61083
-0.6363
-0.65413
-0.64139
-0.6363
-0.61847
-0.60064
-0.55988
-0.53186
-0.49365
-0.46054
-0.41214
-0.36884
-0.32044
-0.2644
-0.15996
-0.024958
0.20175
0.54563
1.0041
1.4983
1.9721
2.3847
2.7286
2.963
3.1209
3.1999
3.2177
3.1617
3.047
2.9018
2.721
2.507
2.2778
2.0434
1.8091
1.5722
1.3557
1.1468
0.95574
0.77233
0.60676
0.44119
0.30109
0.16354
0.036177
-0.080997
-0.18798
-0.30261
-0.39176
-0.48346
-0.54205
-0.60064
-0.65668
-0.68725
-0.70253
-0.70762
-0.70762
-0.69234
-0.67196
-0.63885
-0.61337
-0.56752
-0.52932
-0.49111
-0.45035
-0.40195
-0.36884
-0.3077
-0.23638
-0.12685
0.033629
0.296
0.68063
1.1723
1.7046
2.181
2.5962
2.9044
3.1387
3.2814
3.3527
3.3425
3.2686
3.1413
2.9884
2.7872
2.5631
2.3338
2.0918
1.8498
1.6104
1.3862
1.1773
0.96847
0.79017
0.6144
0.44883
0.30619
0.14571
0.018346
-0.11156
-0.21345
-0.32044
-0.42488
-0.50639
-0.58026
-0.62866
-0.68215
-0.71272
-0.72545
-0.74583
-0.74583
-0.73819
-0.72291
-0.68979
-0.65158
-0.62102
-0.57517
-0.53441
-0.4962
-0.45544
-0.40705
-0.34337
-0.26185
-0.13449
0.046366
0.34949
0.76469
1.2461
1.7403
2.1759
2.5427
2.8305
3.0165
3.1184
3.1566
3.1336
3.0496
2.9095
2.7312
2.5401
2.3211
2.0816
1.8549
1.6308
1.4219
1.2105
1.0169
0.84366
0.67809
0.51251
0.38006
0.22722
0.11259
-0.014769
-0.1294
-0.22619
-0.32808
-0.40705
-0.47837
-0.54205
-0.58281
-0.61592
-0.63885
-0.64649
-0.64904
-0.63885
-0.63121
-0.61083
-0.58281
-0.54205
-0.50639
-0.46563
-0.41978
-0.38667
-0.33063
-0.24657
-0.12685
0.061649
0.3826
0.81054
1.3149
1.7938
2.2396
2.586
2.8636
3.0394
3.1464
3.1668
3.1387
3.0445
2.912
2.7414
2.5299
2.3058
2.0791
1.8524
1.6308
1.4193
1.2232
1.0296
0.85385
0.68318
0.5278
0.37751
0.24505
0.1075
-0.02241
-0.12685
-0.23893
-0.33063
-0.42233
-0.49875
-0.56243
-0.60828
-0.65413
-0.67706
-0.69489
-0.70253
-0.68725
-0.66941
-0.64139
-0.61592
-0.5879
-0.55479
-0.51658
-0.47582
-0.43761
-0.38667
-0.32553
-0.24402
-0.098828
0.14061
0.49978
0.96847
1.4907
1.9797
2.4077
2.7312
2.9859
3.1387
3.2304
3.2508
3.1922
3.098
2.9579
2.7796
2.5707
2.3338
2.1173
1.8855
1.6562
1.4423
1.2283
1.0372
0.8513
0.68573
0.53034
0.3826
0.23741
0.10495
-0.024958
-0.14213
-0.24912
-0.33827
-0.43252
-0.51913
-0.58026
-0.63885
-0.68725
-0.72291
-0.75093
-0.75602
-0.75602
-0.74074
-0.7331
-0.70508
-0.67196
-0.63375
-0.59809
-0.55733
-0.50639
-0.47328
-0.4045
-0.33318
-0.22364
-0.05043
0.25269
0.65261
1.1544
1.6486
2.1096
2.4994
2.7872
2.9859
3.1184
3.1744
3.1464
3.0802
2.9604
2.7949
2.5987
2.3822
2.1708
1.9313
1.7225
1.4932
1.2971
1.1035
0.91753
0.7545
0.60167
0.44629
0.30873
0.18137
0.048913
-0.052978
-0.1676
-0.26695
-0.3561
-0.44016
-0.50894
-0.57007
-0.61083
-0.64649
-0.67196
-0.68215
-0.67706
-0.67451
-0.65158
-0.62866
-0.593
-0.56498
-0.53186
-0.48601
-0.43761
-0.39686
-0.33318
-0.23383
-0.091186
0.15335
0.52016
0.97612
1.4575
1.9033
2.2854
2.5936
2.8152
2.9604
3.0216
3.0165
2.9579
2.8585
2.7032
2.5223
2.3134
2.0995
1.8855
1.669
1.4601
1.2716
1.0831
0.90479
0.73922
0.58384
0.43864
0.30109
0.17628
0.048913
-0.060619
-0.15996
-0.26185
-0.34846
-0.42488
-0.49111
-0.55479
-0.60064
-0.63121
-0.65923
-0.66941
-0.66432
-0.65668
-0.63375
-0.61083
-0.58281
-0.5446
-0.50639
-0.46563
-0.41978
-0.3612
-0.28733
-0.1676
0.020893
0.33421
0.76724
1.2741
1.7632
2.2192
2.5834
2.8687
3.0623
3.1642
3.2101
3.1897
3.1107
2.9808
2.8152
2.6089
2.4
2.158
1.9237
1.7046
1.4805
1.2792
1.0729
0.89715
0.71884
0.55836
0.40298
0.27562
0.13552
0.0030622
-0.10647
-0.21345
-0.31535
-0.40959
-0.49365
-0.56498
-0.62356
-0.67451
-0.71781
-0.73564
-0.75347
-0.74583
-0.74583
-0.72291
-0.70253
-0.66941
-0.62611
-0.5879
-0.5446
-0.49875
-0.44526
-0.38667
-0.32808
-0.21855
-0.060619
0.21703
0.6195
1.1188
1.6257
2.102
2.5121
2.8229
3.0496
3.1999
3.261
3.2585
3.1973
3.0852
2.9248
2.7261
2.5172
2.288
2.0485
1.8244
1.59
1.3684
1.1723
0.97866
0.8029
0.63478
0.4794
0.3393
0.20175
0.071838
-0.055525
-0.16506
-0.28478
-0.37138
-0.45799
-0.54715
-0.60828
-0.65413
-0.70253
-0.7331
-0.75347
-0.75347
-0.75347
-0.7331
-0.71017
-0.67196
-0.64139
-0.59554
-0.55224
-0.50894
-0.46818
-0.41724
-0.33318
-0.22619
-0.073356
0.20175
0.59148
1.0551
1.5442
2.0052
2.3873
2.693
2.9069
3.0394
3.098
3.0852
3.0165
2.8967
2.7286
2.5478
2.3364
2.1096
1.888
1.669
1.4575
1.2589
1.078
0.88951
0.72648
0.5711
0.42591
0.28581
0.16354
0.054007
-0.060619
-0.17015
-0.2644
-0.34591
-0.41724
-0.48346
-0.5446
-0.5879
-0.62611
-0.63885
-0.65668
-0.65158
-0.63885
-0.62356
-0.59045
-0.55988
-0.52167
-0.49365
-0.44271
-0.4045
-0.34846
-0.28223
-0.1727
0.0081567
0.28326
0.7112
1.2003
1.6893
2.1428
2.5198
2.8152
3.019
3.1311
3.1846
3.1591
3.0751
2.9451
2.7872
2.5834
2.3644
2.1529
1.9211
1.6944
1.4805
1.2843
1.0907
0.8997
0.73158
0.5711
0.4361
0.296
0.1559
0.041271
-0.080997
-0.18544
-0.29242
-0.39176
-0.47073
-0.53441
-0.593
-0.64139
-0.6796
-0.68979
-0.71017
-0.70253
-0.69489
-0.67706
-0.65158
-0.61847
-0.58535
-0.54715
-0.50894
-0.46309
-0.41469
-0.35355
-0.27459
-0.13958
0.089669
0.44374
0.90734
1.4219
1.9161
2.3414
2.6955
2.9451
3.1184
3.1999
3.2253
3.1897
3.0878
2.9426
2.7617
2.5503
2.3364
2.0969
1.8753
1.6435
1.4295
1.2232
1.0347
0.8462
0.68318
0.5278
0.3826
0.23741
0.11005
-0.012221
-0.12685
-0.24402
-0.33827
-0.42742
-0.50639
-0.56752
-0.62866
-0.67196
-0.70508
-0.71781
-0.73564
-0.73564
-0.73055
-0.71272
-0.68979
-0.66177
-0.62611
-0.5879
-0.5446
-0.5013
-0.45544
-0.40705
-0.3612
-0.31789
-0.2644
-0.21091
-0.17015
-0.10138
-0.0071269
0.12788
0.32911
0.67299
1.134
1.6486
2.1428
2.5834
2.9324
3.1871
3.368
3.4393
3.4546
3.3858
3.2814
3.1158
2.9146
2.7032
2.4663
2.2294
1.9976
1.7607
1.5442
1.3302
1.1315
0.95574
0.78507
0.61186
0.46157
0.32911
0.19665
0.071838
-0.040241
-0.15996
-0.25676
-0.33572
-0.41469
-0.48092
-0.53186
-0.58281
-0.61337
-0.64139
-0.65158
-0.65413
-0.65413
-0.63375
-0.61083
-0.5879
-0.57262
-0.53441
-0.50639
-0.47073
-0.43252
-0.38412
-0.34337
-0.29497
-0.25421
-0.20836
-0.1676
-0.1294
-0.075903
-0.040241
0.0056094
0.048913
0.092216
0.13297
0.18137
0.23996
0.30873
0.40808
0.59403
0.87422
1.3124
1.8345
2.3669
2.8611
3.2636
3.5794
3.6456
3.6507
3.6558
3.6482
3.5998
3.4775
3.2916
3.07
2.8203
2.5605
2.3007
2.0434
1.7887
1.5492
1.3276
1.1239
0.93536
0.74177
0.56091
0.39534
0.23996
0.10241
-0.032599
-0.15232
-0.26949
-0.37393
-0.47073
-0.53441
-0.60319
-0.66177
-0.68979
-0.72291
-0.7331
-0.7331
-0.73819
-0.72291
-0.70508
-0.69234
-0.66177
-0.62356
-0.60064
-0.55733
-0.51658
-0.47837
-0.42997
-0.38412
-0.34337
-0.29497
-0.24147
-0.20327
-0.15487
-0.10392
-0.063167
0.010704
0.097311
0.24505
0.46666
0.83602
1.3073
1.8345
2.3491
2.7847
3.1413
3.4087
3.5565
3.638
3.638
3.5616
3.4368
3.2585
3.0547
2.8178
2.5631
2.3134
2.0612
1.8091
1.5722
1.3531
1.1315
0.92772
0.75196
0.5711
0.40298
0.26288
0.12278
-0.014769
-0.13449
-0.24147
-0.34846
-0.44016
-0.51913
-0.59045
-0.63885
-0.68215
-0.70508
-0.71781
-0.73564
-0.7331
-0.71272
-0.69998
-0.68725
-0.65923
-0.63121
-0.58026
-0.54969
-0.50384
-0.46054
-0.41469
-0.37648
-0.31789
-0.28223
-0.22364
-0.16506
-0.07845
0.059102
0.26543
0.59148
1.0245
1.5161
2.0001
2.4408
2.7821
3.0419
3.2126
3.2916
3.3069
3.2432
3.126
2.963
2.7719
2.5376
2.3185
2.0689
1.8371
1.6257
1.4041
1.2003
0.99904
0.82328
0.65261
0.48704
0.33675
0.19665
0.071838
-0.047883
-0.16251
-0.2644
-0.35355
-0.42997
-0.4962
-0.54205
-0.58281
-0.61592
-0.62866
-0.65158
-0.63375
-0.63375
-0.62356
-0.60064
-0.56752
-0.53696
-0.50639
-0.45799
-0.42233
-0.38412
-0.33572
-0.29497
-0.25421
-0.20327
-0.1294
-0.02241
0.13297
0.41572
0.81564
1.3098
1.8244
2.3058
2.7159
3.0343
3.261
3.3909
3.4521
3.4495
3.3731
3.2508
3.0827
2.884
2.6599
2.4204
2.1708
1.9313
1.6919
1.4677
1.2563
1.0474
0.86404
0.70611
0.53799
0.39025
0.24505
0.12024
-0.0045796
-0.1243
-0.22619
-0.31789
-0.40705
-0.48601
-0.55988
-0.61847
-0.67196
-0.70508
-0.72291
-0.728
-0.74583
-0.74328
-0.72291
-0.69998
-0.67706
-0.64394
-0.61337
-0.58535
-0.54969
-0.4962
-0.46563
-0.41724
-0.37138
-0.31025
-0.24402
-0.11666
0.061649
0.36732
0.79781
1.292
1.7963
2.2548
2.6395
2.9248
3.1387
3.2534
3.3043
3.2788
3.205
3.0751
2.8917
2.6955
2.4663
2.2217
1.9925
1.753
1.5187
1.3022
1.1009
0.90734
0.72648
0.56091
0.40553
0.26543
0.13807
0.0081567
-0.11156
-0.21345
-0.31025
-0.39431
-0.47837
-0.55224
-0.60064
-0.64139
-0.67706
-0.70508
-0.70508
-0.70762
-0.70508
-0.68215
-0.65668
-0.62102
-0.59809
-0.54969
-0.50894
-0.46818
-0.41978
-0.37393
-0.32553
-0.27714
-0.22619
-0.15996
-0.060619
0.084574
0.33421
0.70865
1.1697
1.6613
2.1275
2.5299
2.8484
3.0725
3.2152
3.289
3.2865
3.2203
3.1056
2.9248
2.7312
2.4968
2.2701
2.023
1.7912
1.5569
1.3353
1.1366
0.9481
0.78252
0.61186
0.45902
0.32402
0.19665
0.071838
-0.047883
-0.15232
-0.24402
-0.34082
-0.40705
-0.47837
-0.53186
-0.57771
-0.60319
-0.61847
-0.63885
-0.64394
-0.62866
-0.62356
-0.60064
-0.56752
-0.54969
-0.50639
-0.47073
-0.43252
-0.3994
-0.35355
-0.30516
-0.25931
-0.19562
-0.07845
0.092216
0.38515
0.79017
1.2945
1.8167
2.2803
2.6777
2.9732
3.1897
3.3196
3.3756
3.3527
3.2839
3.1489
2.991
2.7923
2.5631
2.3389
2.0944
1.8575
1.6231
1.4066
1.2028
1.0092
0.83092
0.66535
0.50742
0.36223
0.22977
0.087122
-0.032599
-0.15232
-0.25421
-0.35101
-0.44526
-0.51658
-0.5879
-0.64904
-0.68725
-0.71272
-0.73819
-0.74583
-0.74583
-0.74328
-0.71781
-0.68979
-0.67196
-0.6363
-0.58535
-0.54969
-0.51403
-0.46309
-0.41724
-0.3612
-0.29751
-0.19562
-0.058072
0.19156
0.56601
1.0398
1.5671
2.0434
2.4612
2.7898
3.0368
3.1922
3.2763
3.289
3.2304
3.1184
2.9757
2.7974
2.5783
2.3516
2.1224
1.8906
1.6562
1.4321
1.2257
1.0372
0.85385
0.67809
0.52016
0.38006
0.2425
0.10495
-0.014769
-0.1294
-0.22874
-0.32299
-0.41214
-0.49365
-0.54969
-0.61083
-0.65668
-0.6847
-0.71781
-0.72291
-0.73055
-0.728
-0.70253
-0.69234
-0.65158
-0.63121
-0.5879
-0.55733
-0.51403
-0.46563
-0.41978
-0.37393
-0.31025
-0.22619
-0.11156
0.097311
0.41572
0.83856
1.3302
1.8193
2.2574
2.6216
2.8866
3.0725
3.1795
3.2152
3.1668
3.0878
2.9401
2.7541
2.5503
2.3211
2.0969
1.8677
1.6409
1.4346
1.2359
1.0449
0.87168
0.71629
0.56601
0.4361
0.30873
0.19411
0.076933
-0.042789
-0.14468
-0.22874
-0.32808
-0.41214
-0.48346
-0.52932
-0.58281
-0.62611
-0.64139
-0.65158
-0.64904
-0.64139
-0.63375
-0.60828
-0.58281
-0.55479
-0.51913
-0.49111
-0.45035
-0.39686
-0.3561
-0.30261
-0.23129
-0.13194
0.018346
0.28071
0.65771
1.1468
1.6511
2.13
2.5299
2.8534
3.0827
3.2279
3.2916
3.2967
3.2406
3.1336
2.9808
2.7898
2.5834
2.3491
2.1147
1.8855
1.6613
1.455
1.2512
1.0576
0.88187
0.71375
0.55072
0.40298
0.26543
0.13552
0.018346
-0.088639
-0.19562
-0.29751
-0.37903
-0.46563
-0.53696
-0.59045
-0.64139
-0.6796
-0.70508
-0.71781
-0.71781
-0.71526
-0.69489
-0.68215
-0.65413
-0.62356
-0.58535
-0.55224
-0.50894
-0.47073
-0.42233
-0.37903
-0.31789
-0.23383
-0.12175
0.056555
0.37241
0.80035
1.3149
1.8269
2.2905
2.6802
2.9706
3.1719
3.3018
3.3476
3.3298
3.2508
3.1362
2.963
2.7796
2.558
2.3262
2.0969
1.8626
1.6231
1.4142
1.2079
1.022
0.83092
0.67044
0.51761
0.36732
0.22722
0.10495
-0.012221
-0.12175
-0.23893
-0.33063
-0.42742
-0.49365
-0.56498
-0.62102
-0.67706
-0.70508
-0.74074
-0.74074
-0.74583
-0.74583
-0.73055
-0.70762
-0.68215
-0.64139
-0.60319
-0.56752
-0.51148
-0.47328
-0.43252
-0.38667
-0.32044
-0.23383
-0.096281
0.11514
0.47685
0.92008
1.4219
1.9033
2.3211
2.6777
2.9248
3.0954
3.1846
3.205
3.1617
3.0572
2.9197
2.7388
2.5478
2.3313
2.0995
1.8753
1.6613
1.4397
1.2487
1.0627
0.87677
0.71629
0.55836
0.42845
0.28326
0.16609
0.048913
-0.068261
-0.16506
-0.26185
-0.35101
-0.42742
-0.49111
-0.55479
-0.60064
-0.63375
-0.66177
-0.67451
-0.67706
-0.67196
-0.65158
-0.63375
-0.61337
-0.57517
-0.5395
-0.5013
-0.46054
-0.41978
-0.37903
-0.31025
-0.24657
-0.11921
0.066744
0.3877
0.82583
1.3276
1.8371
2.3032
2.6751
2.9553
3.1489
3.2661
3.3145
3.2839
3.205
3.0751
2.8993
2.7083
2.4866
2.2574
2.0179
1.7887
1.5798
1.3658
1.1672
0.98121
0.80035
0.64497
0.48449
0.34439
0.21958
0.084574
-0.032599
-0.14213
-0.24657
-0.34082
-0.42742
-0.50639
-0.56243
-0.62356
-0.66432
-0.69489
-0.71781
-0.74074
-0.74074
-0.728
-0.71781
-0.69489
-0.66432
-0.63121
-0.593
-0.54969
-0.5013
-0.47073
-0.41978
-0.37903
-0.31025
-0.24402
-0.11411
0.082027
0.39789
0.85639
1.3633
1.8753
2.3287
2.7133
3.0037
3.1999
3.317
3.3603
3.3323
3.2483
3.1336
2.9579
2.7541
2.5478
2.3083
2.0791
1.8422
1.6206
1.4041
1.1977
1.0194
0.83092
0.67554
0.50742
0.37496
0.22722
0.11005
-0.017316
-0.1294
-0.24147
-0.32808
-0.41469
-0.49111
-0.55988
-0.61083
-0.66432
-0.69489
-0.72291
-0.74328
-0.74328
-0.7331
-0.73055
-0.69489
-0.67451
-0.6363
-0.60319
-0.55988
-0.51913
-0.47837
-0.42997
-0.38412
-0.33318
-0.27204
-0.19308
-0.065714
0.14316
0.47431
0.91753
1.4117
1.911
2.344
2.693
2.9604
3.1387
3.2457
3.2585
3.2228
3.1336
2.9961
2.8203
2.614
2.3975
2.1682
1.9441
1.7199
1.5085
1.3047
1.1162
0.93026
0.7596
0.59912
0.46666
0.32656
0.1992
0.084574
-0.032599
-0.1294
-0.23893
-0.31025
-0.39686
-0.46818
-0.52422
-0.58535
-0.62102
-0.64904
-0.66177
-0.6796
-0.66941
-0.65668
-0.6363
-0.61592
-0.57517
-0.54969
-0.49875
-0.46563
-0.42742
-0.39176
-0.33827
-0.26949
-0.18289
-0.024958
0.23486
0.6195
1.1009
1.6078
2.0944
2.5096
2.8305
3.0598
3.2177
3.289
3.3018
3.2432
3.1362
2.9859
2.7923
2.586
2.3491
2.1198
1.8957
1.6613
1.4397
1.2436
1.0551
0.86913
0.70865
0.54053
0.39025
0.25269
0.12533
0.013251
-0.10392
-0.20836
-0.3077
-0.39176
-0.47073
-0.54969
-0.60064
-0.65158
-0.68725
-0.71017
-0.7331
-0.7331
-0.73055
-0.72291
-0.69234
-0.66941
-0.6363
-0.593
-0.56498
-0.51913
-0.46818
-0.42488
-0.37903
-0.31789
-0.23893
-0.11156
0.10241
0.44883
0.91753
1.4346
1.9364
2.3771
2.7465
3.0139
3.1897
3.2839
3.3247
3.2916
3.2101
3.0725
2.8891
2.6853
2.4484
2.2192
1.9695
1.7479
1.5161
1.3174
1.1213
0.92772
0.7596
0.59657
0.45138
0.30619
0.17373
0.056555
-0.058072
-0.1727
-0.26695
-0.35355
-0.44016
-0.50894
-0.57517
-0.62611
-0.66432
-0.69998
-0.72036
-0.73564
-0.73055
-0.71781
-0.70508
-0.67451
-0.64649
-0.61083
-0.56752
-0.53186
-0.48856
-0.44526
-0.39431
-0.3561
-0.27968
-0.20072
-0.05043
0.18392
0.53799
1.0016
1.511
1.9848
2.4026
2.7312
2.9808
3.1413
3.2253
3.2355
3.1948
3.0878
2.9401
2.7668
2.5631
2.3313
2.1147
1.8804
1.6613
1.4499
1.2589
1.0729
0.89715
0.73413
0.57365
0.42845
0.29854
0.18392
0.066744
-0.042789
-0.14723
-0.23383
-0.32044
-0.4045
-0.46818
-0.52167
-0.58026
-0.61847
-0.64139
-0.66687
-0.67196
-0.67196
-0.65923
-0.63375
-0.60064
-0.57771
-0.54205
-0.50894
-0.47328
-0.43507
-0.39431
-0.34337
-0.26695
-0.15232
0.031082
0.34439
0.77998
1.2818
1.7658
2.2243
2.5936
2.8764
3.0572
3.1795
3.2279
3.1948
3.1133
2.991
2.8127
2.6267
2.3949
2.1733
1.9415
1.7276
1.511
1.3098
1.1162
0.93281
0.77233
0.62205
0.46921
0.33675
0.19411
0.07948
-0.032599
-0.13704
-0.24147
-0.32808
-0.41469
-0.48601
-0.54969
-0.59809
-0.63121
-0.66687
-0.6796
-0.69998
-0.69489
-0.68215
-0.66687
-0.64139
-0.61083
-0.57517
-0.53186
-0.49875
-0.45035
-0.41469
-0.36884
-0.31535
-0.24147
-0.13958
0.048913
0.35713
0.79271
1.292
1.8091
2.265
2.6471
2.9451
3.154
3.2814
3.3323
3.317
3.2304
3.1082
2.9426
2.7566
2.535
2.293
2.0612
1.8244
1.6002
1.3888
1.1977
1.0169
0.84111
0.67299
0.52016
0.38515
0.25015
0.12278
0.0005149
-0.096281
-0.20836
-0.29242
-0.37903
-0.45799
-0.51913
-0.58026
-0.62102
-0.66941
-0.6847
-0.70762
-0.71272
-0.71526
-0.70508
-0.69234
-0.66687
-0.62866
-0.59554
-0.54715
-0.51913
-0.46818
-0.41469
-0.35865
-0.2644
-0.11666
0.13043
0.48959
0.96847
1.4474
1.911
2.3134
2.642
2.8687
3.0165
3.0929
3.1107
3.047
2.9553
2.8127
2.6395
2.4382
2.2319
2.023
1.8014
1.5849
1.3862
1.2054
1.022
0.85894
0.70611
0.56091
0.42591
0.296
0.17373
0.069291
-0.035147
-0.12685
-0.21855
-0.30516
-0.38667
-0.45544
-0.51658
-0.56243
-0.59554
-0.62102
-0.6363
-0.64139
-0.64139
-0.63121
-0.61083
-0.593
-0.55733
-0.52422
-0.48601
-0.4478
-0.4045
-0.33318
-0.22364
-0.060619
0.22722
0.62459
1.1137
1.5976
2.0383
2.4
2.693
2.8866
3.0241
3.0776
3.0725
3.0114
2.8967
2.7516
2.5758
2.3847
2.1733
1.9517
1.7403
1.5289
1.3276
1.1442
0.96593
0.80545
0.66026
0.51251
0.37496
0.26543
0.14061
0.031082
-0.07845
-0.17015
-0.26949
-0.3561
-0.43252
-0.48856
-0.55988
-0.60064
-0.64139
-0.66941
-0.68725
-0.70253
-0.6847
-0.68215
-0.65413
-0.63375
-0.61083
-0.56498
-0.53441
-0.49875
-0.44526
-0.35865
-0.24147
-0.047883
0.28326
0.73158
1.2308
1.7327
2.1733
2.535
2.8127
3.0037
3.1235
3.1744
3.1566
3.0852
2.9783
2.828
2.6522
2.451
2.2268
2.0001
1.781
1.5849
1.3709
1.1926
1.0041
0.83602
0.69082
0.54053
0.40298
0.26798
0.15844
0.036177
-0.070808
-0.18034
-0.27204
-0.35865
-0.45035
-0.51658
-0.57262
-0.63121
-0.67706
-0.70762
-0.74583
-0.75347
-0.75093
-0.75347
-0.73819
-0.71272
-0.67706
-0.6363
-0.60064
-0.56752
-0.51658
-0.45799
-0.39686
-0.26949
-0.083545
0.23996
0.66535
1.1595
1.6486
2.0816
2.4459
2.7184
2.9069
3.0216
3.0674
3.0547
2.9884
2.8687
2.7312
2.5376
2.344
2.1351
1.9211
1.7072
1.511
1.32
1.1315
0.96847
0.808
0.66026
0.52525
0.39534
0.28071
0.15335
0.054007
-0.042789
-0.14213
-0.22619
-0.31025
-0.38667
-0.45799
-0.52422
-0.57517
-0.60573
-0.63885
-0.65158
-0.65923
-0.65668
-0.64394
-0.62611
-0.593
-0.56498
-0.53696
-0.49875
-0.46309
-0.41469
-0.33572
-0.22619
-0.030052
0.29345
0.7112
1.185
1.6588
2.0791
2.4153
2.6828
2.8585
2.9604
3.0139
2.9935
2.9248
2.8025
2.6599
2.479
2.2727
2.0638
1.86
1.6562
1.4601
1.269
1.0958
0.92517
0.78252
0.64497
0.51506
0.39789
0.28326
0.16609
0.074385
-0.019863
-0.11156
-0.18544
-0.25421
-0.32299
-0.38412
-0.44271
-0.48346
-0.53696
-0.56752
-0.5879
-0.60064
-0.60828
-0.60828
-0.60064
-0.58535
-0.57007
-0.52932
-0.50384
-0.47073
-0.42233
-0.37393
-0.2644
-0.10902
0.18137
0.58638
1.078
1.5543
2.0027
2.3618
2.6599
2.8764
3.0037
3.0776
3.0802
3.0496
2.9502
2.8254
2.6497
2.4484
2.2472
2.023
1.8142
1.5951
1.3939
1.2054
1.0271
0.85894
0.70101
0.56601
0.42591
0.30619
0.17373
0.069291
-0.037694
-0.13194
-0.23129
-0.31535
-0.4045
-0.47073
-0.52932
-0.59554
-0.63375
-0.67706
-0.70253
-0.71526
-0.73055
-0.73819
-0.71781
-0.70762
-0.69234
-0.65158
-0.62102
-0.58535
-0.53441
-0.4962
-0.44526
-0.39686
-0.35101
-0.30006
-0.25676
-0.18289
-0.10138
0.05146
0.28326
0.67044
1.1519
1.669
2.1606
2.5758
2.9146
3.1566
3.3094
3.3833
3.3909
3.3476
3.2406
3.0929
2.9095
2.7006
2.4663
2.2447
2.0154
1.8014
1.5773
1.3811
1.1952
1.0092
0.85385
0.69337
0.55327
0.42591
0.30364
0.18392
0.064196
-0.027505
-0.13194
-0.216
-0.30516
-0.37648
-0.44271
-0.5013
-0.55988
-0.59554
-0.62611
-0.64904
-0.66177
-0.66432
-0.66687
-0.64904
-0.6363
-0.60319
-0.57007
-0.5446
-0.50894
-0.47073
-0.42742
-0.39176
-0.34846
-0.31535
-0.26695
-0.2211
-0.17525
-0.12685
-0.052978
0.082027
0.27307
0.61695
1.0627
1.5926
2.1046
2.5656
2.9324
3.2177
3.3935
3.4928
3.5259
3.4826
3.396
3.2483
3.0598
2.8534
2.614
2.3797
2.1377
1.9033
1.6715
1.455
1.2538
1.0678
0.88441
0.7112
0.56601
0.41572
0.27307
0.15335
0.033629
-0.083545
-0.18544
-0.27968
-0.35865
-0.43761
-0.50639
-0.55733
-0.60573
-0.65158
-0.67196
-0.68979
-0.69998
-0.69234
-0.6796
-0.66941
-0.64649
-0.61337
-0.58535
-0.55733
-0.51148
-0.47073
-0.43507
-0.39176
-0.35355
-0.3128
-0.2644
-0.216
-0.15232
-0.068261
0.07948
0.33675
0.72139
1.2079
1.7479
2.2396
2.6828
3.0292
3.2839
3.4393
3.5259
3.5208
3.475
3.3603
3.2126
3.019
2.8
2.5682
2.316
2.0765
1.8371
1.6078
1.3913
1.1952
0.99649
0.82837
0.65771
0.49978
0.36223
0.22722
0.10241
-0.012221
-0.12175
-0.21855
-0.31025
-0.39431
-0.47582
-0.54969
-0.593
-0.65158
-0.6847
-0.71272
-0.728
-0.72291
-0.7331
-0.71017
-0.69489
-0.67451
-0.65158
-0.61337
-0.58281
-0.53186
-0.50384
-0.45544
-0.41214
-0.36629
-0.32044
-0.27459
-0.23129
-0.15996
-0.058072
0.084574
0.31383
0.69082
1.1672
1.6741
2.1529
2.5682
2.8993
3.1489
3.2967
3.368
3.3705
3.312
3.1897
3.0267
2.8382
2.6064
2.3924
2.1479
1.9262
1.7046
1.4958
1.2869
1.1086
0.92772
0.76469
0.60676
0.46412
0.32402
0.2043
0.071838
-0.032599
-0.1294
-0.22364
-0.3128
-0.38412
-0.46309
-0.51403
-0.55988
-0.60573
-0.62356
-0.64139
-0.64904
-0.65158
-0.63121
-0.62356
-0.60064
-0.57007
-0.5395
-0.51913
-0.47073
-0.43761
-0.39686
-0.35101
-0.30516
-0.2644
-0.216
-0.13194
-0.014769
0.19665
0.5227
0.98121
1.4907
2.0078
2.4561
2.828
3.1082
3.2967
3.4011
3.4189
3.3858
3.2916
3.1591
2.9757
2.7719
2.5503
2.3058
2.0638
1.8294
1.6002
1.3888
1.185
0.98885
0.80545
0.64497
0.47685
0.34439
0.19665
0.071838
-0.055525
-0.16251
-0.26949
-0.3612
-0.45544
-0.53186
-0.593
-0.63885
-0.68725
-0.72545
-0.7331
-0.75857
-0.75093
-0.75347
-0.7331
-0.70508
-0.68215
-0.64139
-0.60573
-0.56243
-0.51658
-0.47837
-0.43761
-0.38157
-0.34591
-0.28478
-0.23638
-0.15996
-0.040241
0.15335
0.46412
0.90989
1.4193
1.9466
2.4204
2.805
3.1031
3.3145
3.4215
3.4699
3.4495
3.3654
3.2228
3.0419
2.8433
2.6166
2.3644
2.1326
1.888
1.6537
1.4372
1.2334
1.0423
0.85385
0.67299
0.52016
0.36732
0.23486
0.10495
-0.017316
-0.1294
-0.23383
-0.32553
-0.40959
-0.49111
-0.55988
-0.61847
-0.65923
-0.69743
-0.72291
-0.73564
-0.73819
-0.7331
-0.72291
-0.69998
-0.66177
-0.63121
-0.58535
-0.5446
-0.50639
-0.46054
-0.40959
-0.36629
-0.3077
-0.25166
-0.15742
0.0005149
0.2425
0.62714
1.0933
1.59
2.0638
2.4688
2.7847
3.0216
3.1591
3.2228
3.2253
3.1566
3.0368
2.8891
2.693
2.479
2.2523
2.0205
1.7887
1.5824
1.3608
1.1697
0.97866
0.81309
0.63478
0.49468
0.34694
0.2043
0.089669
-0.030052
-0.1294
-0.22364
-0.31789
-0.39176
-0.47073
-0.52932
-0.57007
-0.60319
-0.62866
-0.64904
-0.64904
-0.64649
-0.63885
-0.61847
-0.5879
-0.57007
-0.52422
-0.48856
-0.45544
-0.41214
-0.38412
-0.33827
-0.28478
-0.21855
-0.1294
0.043818
0.30619
0.72139
1.2257
1.7454
2.2319
2.6395
2.9477
3.1693
3.3094
3.368
3.3578
3.2916
3.1668
2.9961
2.8
2.586
2.3542
2.1096
1.8753
1.6409
1.4244
1.2257
1.0296
0.85639
0.68318
0.5278
0.3877
0.25015
0.11005
-0.0020324
-0.11666
-0.2211
-0.32299
-0.40195
-0.48092
-0.54715
-0.61083
-0.65413
-0.67706
-0.69998
-0.72291
-0.7331
-0.72291
-0.71017
-0.68979
-0.67196
-0.64139
-0.59554
-0.55479
-0.51658
-0.47582
-0.42742
-0.38412
-0.33063
-0.23383
-0.11411
0.092216
0.42081
0.89206
1.4015
1.9084
2.3618
2.7184
3.0012
3.1795
3.2737
3.3018
3.2636
3.1769
3.0445
2.8662
2.6548
2.4204
2.1988
1.9466
1.7174
1.5085
1.2945
1.0907
0.90734
0.72394
0.57365
0.42081
0.27817
0.14316
0.028535
-0.080997
-0.19308
-0.28223
-0.3612
-0.43761
-0.51148
-0.56243
-0.61592
-0.65923
-0.67706
-0.69234
-0.69234
-0.68979
-0.68215
-0.65668
-0.64139
-0.60319
-0.56752
-0.52167
-0.49111
-0.44526
-0.40959
-0.35865
-0.30006
-0.21091
-0.070808
0.16099
0.51761
0.97866
1.4754
1.939
2.3542
2.6777
2.9222
3.07
3.1464
3.154
3.0954
2.991
2.828
2.6548
2.4408
2.2166
1.9925
1.7785
1.5569
1.3557
1.1672
0.98885
0.82328
0.66026
0.52016
0.38006
0.26543
0.14061
0.041271
-0.070808
-0.15742
-0.24402
-0.33063
-0.40705
-0.47073
-0.51403
-0.55733
-0.59554
-0.62611
-0.63885
-0.64139
-0.62611
-0.60828
-0.593
-0.56498
-0.53441
-0.49875
-0.46054
-0.41724
-0.37648
-0.31789
-0.2211
-0.060619
0.21958
0.62459
1.1111
1.618
2.0867
2.4663
2.7821
2.9935
3.1362
3.1922
3.1871
3.1209
3.0012
2.8484
2.6675
2.4561
2.2319
2.0001
1.776
1.5645
1.3633
1.1621
0.97866
0.80035
0.64752
0.49468
0.34694
0.22467
0.092216
-0.017316
-0.12175
-0.22364
-0.31535
-0.38922
-0.46818
-0.5395
-0.58535
-0.62611
-0.67196
-0.69234
-0.69998
-0.70508
-0.70508
-0.68725
-0.66432
-0.6363
-0.60064
-0.57771
-0.5395
-0.48856
-0.45544
-0.39176
-0.30261
-0.17525
0.048913
0.40298
0.87677
1.3862
1.8855
2.3211
2.6573
2.9273
3.0929
3.1871
3.2101
3.1846
3.0903
2.9477
2.7821
2.5783
2.3567
2.1224
1.8957
1.6639
1.455
1.2614
1.0678
0.88187
0.72139
0.57874
0.42081
0.29345
0.16354
0.046366
-0.073356
-0.17525
-0.26949
-0.3612
-0.4478
-0.53441
-0.60573
-0.66432
-0.70508
-0.74583
-0.75347
-0.7764
-0.76366
-0.75347
-0.72545
-0.70253
-0.66687
-0.62866
-0.57771
-0.53696
-0.49111
-0.43252
-0.34846
-0.22619
-0.019863
0.32402
0.76979
1.269
1.7683
2.1886
2.5427
2.805
2.9834
3.0802
3.1082
3.0751
2.991
2.8458
2.6726
2.4714
2.265
2.0434
1.8244
1.6053
1.399
1.2079
1.0118
0.8462
0.68063
0.5227
0.37751
0.2476
0.12278
0.0030622
-0.10647
-0.22364
-0.31025
-0.40959
-0.48092
-0.55224
-0.60828
-0.65413
-0.6847
-0.71526
-0.7331
-0.72291
-0.728
-0.70253
-0.67706
-0.65158
-0.60064
-0.55988
-0.51913
-0.47073
-0.40959
-0.33318
-0.23893
-0.065714
0.21703
0.63224
1.1366
1.6486
2.13
2.5401
2.8662
3.0903
3.2253
3.2916
3.2992
3.2304
3.1184
2.9579
2.7694
2.558
2.3313
2.0969
1.8651
1.6409
1.4295
1.2308
1.0449
0.87422
0.70611
0.54818
0.41317
0.26543
0.14316
0.018346
-0.088639
-0.18798
-0.28478
-0.38412
-0.46309
-0.53441
-0.59045
-0.64139
-0.68979
-0.71781
-0.7331
-0.73819
-0.74328
-0.7331
-0.71272
-0.68215
-0.65413
-0.62356
-0.58535
-0.54205
-0.49875
-0.41724
-0.31789
-0.13958
0.14571
0.58638
1.0882
1.5976
2.074
2.451
2.7668
2.9808
3.1107
3.1668
3.1693
3.0954
2.9884
2.8407
2.642
2.4331
2.2166
1.9823
1.7454
1.5365
1.3276
1.1366
0.95319
0.78762
0.62205
0.48449
0.34439
0.1992
0.082027
-0.037694
-0.14213
-0.25421
-0.34846
-0.43761
-0.51403
-0.58026
-0.62356
-0.67196
-0.70253
-0.728
-0.7331
-0.7331
-0.73055
-0.71526
-0.69234
-0.65158
-0.62102
-0.58535
-0.53441
-0.4962
-0.43761
-0.37393
-0.27204
-0.098828
0.18646
0.61695
1.1035
1.6206
2.074
2.4663
2.7668
2.9732
3.1133
3.1693
3.1617
3.098
2.9808
2.8178
2.6318
2.4102
2.1861
1.9568
1.7377
1.5161
1.3124
1.1111
0.94555
0.77488
0.60167
0.45902
0.32656
0.19411
0.064196
-0.052978
-0.15996
-0.25421
-0.34591
-0.43507
-0.51658
-0.58026
-0.62866
-0.67196
-0.70253
-0.72291
-0.74074
-0.7331
-0.728
-0.69743
-0.67706
-0.63375
-0.60064
-0.55988
-0.51913
-0.46818
-0.42233
-0.3561
-0.2644
-0.10647
0.13807
0.50742
0.97612
1.4805
1.9543
2.3516
2.6777
2.9171
3.0674
3.1387
3.1413
3.0878
2.9757
2.8127
2.6191
2.4128
2.1937
1.9772
1.7607
1.5467
1.3455
1.157
0.9863
0.82583
0.65771
0.51251
0.37241
0.25015
0.12533
0.018346
-0.098828
-0.18289
-0.28223
-0.36374
-0.43761
-0.5013
-0.5446
-0.59045
-0.61337
-0.63121
-0.64904
-0.64394
-0.62866
-0.60828
-0.58535
-0.54715
-0.50894
-0.47582
-0.43507
-0.3994
-0.35101
-0.27459
-0.15996
0.013251
0.33166
0.7596
1.2665
1.7734
2.2141
2.5783
2.856
3.0368
3.1515
3.182
3.1515
3.0598
2.9273
2.7643
2.5707
2.3491
2.1275
1.9059
1.6893
1.4856
1.2894
1.1035
0.92772
0.77488
0.6195
0.46921
0.3393
0.21448
0.099858
-0.017316
-0.1243
-0.216
-0.30516
-0.38412
-0.46309
-0.53186
-0.57517
-0.62356
-0.65668
-0.67196
-0.68979
-0.69998
-0.68215
-0.67706
-0.64394
-0.62102
-0.57771
-0.54715
-0.50894
-0.46054
-0.41724
-0.36629
-0.26949
-0.12175
0.11259
0.50232
0.9863
1.5059
1.995
2.4
2.7363
2.9732
3.1387
3.2101
3.2253
3.1744
3.0725
2.9222
2.7516
2.5478
2.3313
2.1071
1.8778
1.669
1.4474
1.2538
1.0704
0.89206
0.73413
0.57874
0.43864
0.30619
0.18646
0.056555
-0.05043
-0.14468
-0.24147
-0.33063
-0.41469
-0.49365
-0.55733
-0.60828
-0.65668
-0.6847
-0.71017
-0.72291
-0.72291
-0.71781
-0.70508
-0.67196
-0.64649
-0.61083
-0.58026
-0.5395
-0.4962
-0.43252
-0.37903
-0.27204
-0.093734
0.19411
0.61186
1.0831
1.5849
2.0332
2.4026
2.6879
2.8891
3.0012
3.0521
3.0368
2.9604
2.8509
2.7006
2.507
2.3058
2.0944
1.8702
1.6664
1.455
1.2716
1.1009
0.92008
0.77743
0.62714
0.49468
0.36732
0.23486
0.12024
0.018346
-0.083545
-0.18034
-0.26949
-0.35355
-0.42488
-0.49365
-0.5446
-0.60064
-0.62611
-0.65158
-0.66941
-0.66432
-0.66432
-0.63885
-0.61592
-0.58281
-0.54715
-0.51913
-0.47073
-0.43252
-0.38157
-0.30006
-0.18798
0.02344
0.36987
0.82328
1.3251
1.8244
2.2625
2.6013
2.8738
3.0572
3.154
3.1846
3.1489
3.0547
2.9171
2.7388
2.5427
2.3236
2.1071
1.8855
1.6715
1.4677
1.2716
1.0984
0.91243
0.7545
0.60931
0.46666
0.32147
0.20175
0.076933
-0.027505
-0.13194
-0.22874
-0.32299
-0.39431
-0.46563
-0.53186
-0.57517
-0.62102
-0.66941
-0.68725
-0.69743
-0.70762
-0.70508
-0.68215
-0.65668
-0.63121
-0.59554
-0.55479
-0.52932
-0.47582
-0.43507
-0.38667
-0.30006
-0.17525
0.028535
0.36732
0.83092
1.3557
1.86
2.2905
2.6573
2.9248
3.1158
3.2203
3.261
3.2253
3.1489
3.0114
2.8407
2.6446
2.4281
2.1963
1.9772
1.7479
1.5263
1.3276
1.1442
0.95574
0.79781
0.64242
0.48449
0.35204
0.22467
0.10495
-0.0045796
-0.11156
-0.21855
-0.31789
-0.4045
-0.48092
-0.54969
-0.59554
-0.65668
-0.69234
-0.72291
-0.73564
-0.74838
-0.75093
-0.73819
-0.71526
-0.69743
-0.65668
-0.61592
-0.57517
-0.53696
-0.48092
-0.42742
-0.35865
-0.24657
-0.091186
0.21194
0.6144
1.1035
1.6027
2.0562
2.4408
2.7388
2.9401
3.0674
3.1285
3.1235
3.0445
2.9273
2.7617
2.586
2.3746
2.158
1.9364
1.7225
1.511
1.3073
1.129
0.95828
0.79017
0.63478
0.49214
0.36223
0.2425
0.11769
0.0005149
-0.10392
-0.19562
-0.28223
-0.36884
-0.44271
-0.51403
-0.56498
-0.60828
-0.64139
-0.66432
-0.66941
-0.68215
-0.66687
-0.64904
-0.62356
-0.593
-0.56498
-0.52167
-0.47582
-0.43252
-0.37648
-0.26949
-0.098828
0.17882
0.59148
1.0882
1.5875
2.0587
2.4561
2.749
2.9604
3.1005
3.1591
3.1591
3.0852
2.9681
2.8229
2.6293
2.4281
2.2013
1.9721
1.7658
1.5492
1.3506
1.1595
0.98121
0.81819
0.66026
0.51506
0.37751
0.2476
0.12533
0.013251
-0.10138
-0.18798
-0.28733
-0.37903
-0.45035
-0.51148
-0.58026
-0.62356
-0.65668
-0.69234
-0.70508
-0.71272
-0.71781
-0.71526
-0.69489
-0.67706
-0.6363
-0.60319
-0.55988
-0.52422
-0.48346
-0.43507
-0.38922
-0.34082
-0.28987
-0.24402
-0.18034
-0.096281
0.025987
0.25015
0.61186
1.1009
1.6384
2.1555
2.6191
2.9859
3.2712
3.4419
3.5387
3.5616
3.5157
3.4138
3.2585
3.0827
2.8611
2.6191
2.372
2.13
1.9033
1.6664
1.455
1.2436
1.05
0.87422
0.70356
0.55072
0.40298
0.27052
0.14316
0.015798
-0.086092
-0.20072
-0.29751
-0.37903
-0.46563
-0.53441
-0.60064
-0.64394
-0.67451
-0.71272
-0.7331
-0.73564
-0.74328
-0.7331
-0.73055
-0.71272
-0.6796
-0.65158
-0.61847
-0.58026
-0.5395
-0.49111
-0.4478
-0.39176
-0.34846
-0.30516
-0.25676
-0.19562
-0.15996
-0.10647
-0.052978
0.031082
0.14061
0.31638
0.63478
1.0704
1.5824
2.1173
2.5885
2.9783
3.2916
3.4801
3.5896
3.6176
3.5769
3.4775
3.312
3.1184
2.9018
2.6649
2.423
2.1759
1.9364
1.7046
1.4983
1.2996
1.1035
0.92517
0.7545
0.59403
0.45393
0.30619
0.18646
0.059102
-0.05043
-0.15996
-0.24402
-0.32808
-0.41214
-0.48601
-0.52932
-0.58281
-0.61337
-0.65158
-0.65923
-0.66941
-0.66177
-0.66687
-0.64904
-0.61592
-0.60319
-0.56243
-0.52932
-0.49365
-0.4478
-0.41214
-0.36884
-0.33572
-0.29242
-0.24912
-0.19053
-0.11156
0.02344
0.22722
0.5762
1.0627
1.59
2.1224
2.5834
2.9553
3.2381
3.4138
3.5106
3.5336
3.4852
3.3909
3.2432
3.0547
2.8382
2.6038
2.372
2.13
1.8957
1.6588
1.4499
1.241
1.0551
0.87677
0.70865
0.55582
0.39534
0.25524
0.13297
0.010704
-0.10392
-0.216
-0.30516
-0.38922
-0.47073
-0.55479
-0.61083
-0.65158
-0.70762
-0.7331
-0.75093
-0.76366
-0.76621
-0.75347
-0.73819
-0.71781
-0.69489
-0.65413
-0.61337
-0.58026
-0.52677
-0.48601
-0.44526
-0.40195
-0.35355
-0.30261
-0.23129
-0.14723
0.0005149
0.25269
0.63988
1.129
1.6613
2.158
2.5783
2.9273
3.1642
3.3323
3.3935
3.4138
3.3502
3.2355
3.0827
2.8967
2.6879
2.451
2.2243
1.995
1.7658
1.5467
1.3378
1.1417
0.95828
0.79017
0.63988
0.48959
0.35713
0.22213
0.11769
0.0005149
-0.098828
-0.19562
-0.27714
-0.36374
-0.43761
-0.50639
-0.55733
-0.60828
-0.64904
-0.68215
-0.71017
-0.72036
-0.71781
-0.70253
-0.69234
-0.66177
-0.6363
-0.59809
-0.55479
-0.51148
-0.46563
-0.41469
-0.36884
-0.32044
-0.24402
-0.12175
0.064196
0.39025
0.81819
1.3149
1.8014
2.2345
2.5911
2.8534
3.0419
3.1438
3.182
3.1489
3.0521
2.9171
2.7439
2.5529
2.3313
2.1198
1.9033
1.6919
1.4983
1.3022
1.1213
0.94555
0.78762
0.65007
0.50997
0.37496
0.24505
0.13043
0.025987
-0.07845
-0.1727
-0.26695
-0.34337
-0.41214
-0.48601
-0.5395
-0.58281
-0.62611
-0.64139
-0.66432
-0.66941
-0.65923
-0.65158
-0.62866
-0.60319
-0.57007
-0.5446
-0.49365
-0.46054
-0.41214
-0.37648
-0.33063
-0.25421
-0.13449
0.056555
0.37751
0.82328
1.3429
1.8473
2.293
2.6828
2.9604
3.154
3.2763
3.3247
3.312
3.233
3.1107
2.9451
2.7617
2.5325
2.316
2.0689
1.8524
1.6257
1.4168
1.213
1.0194
0.86149
0.69082
0.53799
0.39279
0.26798
0.13297
0.020893
-0.086092
-0.18289
-0.28223
-0.37393
-0.4478
-0.51403
-0.57771
-0.63375
-0.67196
-0.71526
-0.73564
-0.74583
-0.75093
-0.74838
-0.74328
-0.73055
-0.69234
-0.66432
-0.62866
-0.59554
-0.55479
-0.50894
-0.4478
-0.40195
-0.34337
-0.25931
-0.11666
0.11259
0.47685
0.95574
1.4728
1.9899
2.4306
2.7821
3.0623
3.233
3.3298
3.3578
3.3145
3.2355
3.0878
2.912
2.7159
2.4917
2.2574
2.0332
1.804
1.5773
1.3786
1.1824
0.99904
0.83092
0.67554
0.52016
0.38006
0.25524
0.13043
0.013251
-0.088639
-0.19562
-0.29242
-0.38412
-0.45035
-0.52677
-0.593
-0.6363
-0.68725
-0.72545
-0.75093
-0.75093
-0.75602
-0.75093
-0.74074
-0.69998
-0.67451
-0.6363
-0.59554
-0.5446
-0.50894
-0.4529
-0.39176
-0.32044
-0.20327
-0.012221
0.30109
0.73413
1.2308
1.7301
2.1657
2.5299
2.8127
3.0088
3.1184
3.1591
3.1362
3.0598
2.9401
2.7847
2.5834
2.3822
2.1682
1.9492
1.7301
1.5289
1.3353
1.1646
0.9863
0.82073
0.67044
0.53289
0.40298
0.27817
0.16099
0.048913
-0.052978
-0.14723
-0.24402
-0.31535
-0.38157
-0.4478
-0.51403
-0.55733
-0.59809
-0.62356
-0.66177
-0.66941
-0.68215
-0.66432
-0.65668
-0.63885
-0.60573
-0.55988
-0.52167
-0.48601
-0.45035
-0.39176
-0.33063
-0.23893
-0.080997
0.17882
0.5711
1.0653
1.5773
2.0485
2.4484
2.7821
3.0063
3.1668
3.2457
3.2508
3.205
3.1107
2.9579
2.7923
2.5911
2.3644
2.1428
1.9186
1.697
1.4907
1.3098
1.1239
0.95064
0.79526
0.63988
0.48959
0.35968
0.24505
0.12533
0.0081567
-0.083545
-0.18798
-0.27714
-0.3612
-0.43761
-0.50384
-0.55988
-0.61337
-0.64904
-0.68725
-0.71781
-0.72545
-0.73055
-0.72545
-0.71272
-0.69743
-0.65413
-0.62866
-0.593
-0.54715
-0.4962
-0.45799
-0.39176
-0.29751
-0.14977
0.11005
0.50997
0.9863
1.5085
1.9772
2.3924
2.7286
2.9579
3.1209
3.1999
3.2203
3.182
3.1031
2.9706
2.8025
2.5987
2.3797
2.1606
1.9415
1.7123
1.5059
1.3073
1.129
0.94555
0.78507
0.62969
0.48449
0.36477
0.23486
0.12024
0.0056094
-0.096281
-0.18289
-0.26949
-0.35355
-0.42742
-0.49365
-0.55479
-0.61847
-0.65158
-0.68725
-0.71272
-0.728
-0.73055
-0.73055
-0.71526
-0.69234
-0.66687
-0.62866
-0.59045
-0.55224
-0.5013
-0.45035
-0.38667
-0.27714
-0.093734
0.19411
0.61695
1.0958
1.5824
2.0128
2.3797
2.67
2.8662
2.991
3.0496
3.0343
2.9706
2.8662
2.7286
2.5503
2.3542
2.1377
1.939
1.7225
1.5263
1.3302
1.1493
0.98885
0.83092
0.68573
0.54053
0.42081
0.30619
0.1992
0.092216
-0.017316
-0.093734
-0.18034
-0.26185
-0.33827
-0.4045
-0.47328
-0.53186
-0.57007
-0.59809
-0.63375
-0.63885
-0.65158
-0.65158
-0.63375
-0.60828
-0.58535
-0.56243
-0.51913
-0.47837
-0.4478
-0.38412
-0.30516
-0.16251
0.074385
0.45393
0.90734
1.4091
1.8753
2.2625
2.5911
2.8203
2.9757
3.0572
3.0751
3.0318
2.9426
2.8101
2.6599
2.4586
2.2548
2.0409
1.8269
1.6129
1.427
1.2385
1.0602
0.89715
0.74941
0.59657
0.47685
0.34439
0.22467
0.12278
0.0030622
-0.083545
-0.18544
-0.27204
-0.3561
-0.42488
-0.47837
-0.53441
-0.593
-0.62611
-0.65158
-0.67706
-0.68725
-0.69743
-0.68979
-0.67451
-0.64139
-0.61337
-0.58026
-0.53441
-0.50639
-0.4529
-0.39431
-0.32553
-0.19817
0.018346
0.35458
0.8029
1.32
1.8142
2.2548
2.6064
2.8713
3.0598
3.1642
3.2024
3.1871
3.1133
2.9884
2.8433
2.6573
2.4484
2.2243
2.0027
1.776
1.5747
1.3633
1.1748
1.0016
0.82583
0.68318
0.54053
0.39789
0.27817
0.15335
0.046366
-0.065714
-0.17015
-0.24912
-0.34082
-0.41724
-0.48346
-0.54969
-0.60064
-0.65413
-0.67706
-0.70253
-0.72036
-0.71272
-0.70762
-0.69234
-0.6847
-0.64394
-0.61847
-0.58026
-0.53186
-0.49365
-0.44526
-0.37648
-0.30006
-0.14468
0.099858
0.46412
0.92008
1.4091
1.8829
2.2803
2.5834
2.828
2.9757
3.0521
3.0674
3.0165
2.935
2.7949
2.6166
2.4255
2.2217
2.0052
1.7938
1.5976
1.399
1.2156
1.05
0.88951
0.73413
0.58893
0.46666
0.34185
0.22467
0.11514
0.020893
-0.083545
-0.16506
-0.25676
-0.33063
-0.40705
-0.46309
-0.51403
-0.56243
-0.5879
-0.61592
-0.63885
-0.6363
-0.63885
-0.61847
-0.60828
-0.58026
-0.55479
-0.51913
-0.48856
-0.44271
-0.39686
-0.33063
-0.22364
-0.030052
0.28836
0.70611
1.213
1.7123
2.1428
2.5121
2.7847
2.9757
3.0903
3.1387
3.126
3.0394
2.935
2.7745
2.5911
2.3924
2.1733
1.9517
1.7428
1.5365
1.3404
1.1621
0.9863
0.81564
0.6628
0.5278
0.39279
0.25524
0.1508
0.02344
-0.073356
-0.17525
-0.25676
-0.34591
-0.41978
-0.48856
-0.5446
-0.60319
-0.6363
-0.67196
-0.68215
-0.70508
-0.70253
-0.68979
-0.68215
-0.65668
-0.61847
-0.58281
-0.5446
-0.49875
-0.45544
-0.40959
-0.3612
-0.28478
-0.16251
0.036177
0.37496
0.83347
1.3404
1.8422
2.2854
2.6599
2.9222
3.1209
3.2177
3.2585
3.2381
3.1642
3.0318
2.8636
2.6802
2.4637
2.237
2.0154
1.7887
1.5671
1.3633
1.1723
0.99395
0.82583
0.6679
0.5278
0.38515
0.26288
0.13552
0.025987
-0.086092
-0.18544
-0.27968
-0.36884
-0.44526
-0.50639
-0.57262
-0.61083
-0.65923
-0.68979
-0.70508
-0.71781
-0.71781
-0.72036
-0.69489
-0.67451
-0.64139
-0.61592
-0.57007
-0.52167
-0.49365
-0.44016
-0.38667
-0.32553
-0.23129
-0.088639
0.1508
0.53289
1.0118
1.5085
1.9823
2.3822
2.7133
2.9426
3.1005
3.1744
3.1846
3.1235
3.019
2.8687
2.6853
2.4917
2.2701
2.0485
1.832
1.6206
1.4168
1.2257
1.0551
0.89715
0.74177
0.59148
0.45647
0.32402
0.21448
0.099858
-0.0071269
-0.10392
-0.19308
-0.27714
-0.35865
-0.42488
-0.48856
-0.54205
-0.58535
-0.61337
-0.62866
-0.64904
-0.64904
-0.64139
-0.63121
-0.60319
-0.58281
-0.55988
-0.51913
-0.47837
-0.43761
-0.39176
-0.34591
-0.26695
-0.14468
0.056555
0.38515
0.83347
1.3353
1.8422
2.265
2.6267
2.8942
3.0751
3.1795
3.2101
3.1744
3.0878
2.9553
2.7847
2.5809
2.3695
2.1631
1.939
1.7148
1.5136
1.3149
1.129
0.95828
0.78252
0.63224
0.48704
0.34439
0.21448
0.1075
-0.012221
-0.12175
-0.2211
-0.30516
-0.39176
-0.45799
-0.51403
-0.57007
-0.62102
-0.65413
-0.6847
-0.69998
-0.70253
-0.69743
-0.68979
-0.65923
-0.6363
-0.60064
-0.57007
-0.52422
-0.48601
-0.43507
-0.38412
-0.33318
-0.26949
-0.1676
0.010704
0.296
0.71884
1.2308
1.7505
2.2243
2.6216
2.935
3.1489
3.2814
3.3425
3.3298
3.2763
3.1566
3.0037
2.7974
2.5911
2.3593
2.1173
1.8957
1.6588
1.455
1.2512
1.0551
0.88696
0.73158
0.57365
0.42591
0.30619
0.17118
0.066744
-0.045336
-0.14723
-0.23383
-0.32044
-0.41214
-0.48346
-0.54205
-0.593
-0.63375
-0.6796
-0.70508
-0.71781
-0.72545
-0.72291
-0.71781
-0.69234
-0.66177
-0.63375
-0.58535
-0.54969
-0.5013
-0.45799
-0.40705
-0.33063
-0.21345
-0.019863
0.30619
0.74431
1.2461
1.725
2.1631
2.5274
2.8025
2.9884
3.0878
3.1336
3.1082
3.0292
2.9044
2.7363
2.5478
2.3313
2.1096
1.8829
1.6766
1.4779
1.2767
1.0882
0.92517
0.76724
0.6195
0.4794
0.35458
0.22977
0.12278
0.010704
-0.086092
-0.19308
-0.28733
-0.37138
-0.44271
-0.49875
-0.56243
-0.60828
-0.65158
-0.66687
-0.68215
-0.69489
-0.69489
-0.67451
-0.65158
-0.61847
-0.5879
-0.54969
-0.51148
-0.45799
-0.41724
-0.34591
-0.25166
-0.093734
0.19411
0.60676
1.1111
1.618
2.0867
2.4765
2.7872
3.0063
3.1413
3.2075
3.205
3.1464
3.0368
2.884
2.7006
2.4917
2.2778
2.0409
1.8193
1.5951
1.4041
1.2028
1.0169
0.84875
0.68827
0.54563
0.40553
0.28071
0.15844
0.036177
-0.080997
-0.17525
-0.27459
-0.36884
-0.4478
-0.50639
-0.57262
-0.61592
-0.66177
-0.70253
-0.72291
-0.73564
-0.72545
-0.7331
-0.71017
-0.6847
-0.65923
-0.61337
-0.58535
-0.52932
-0.48856
-0.44271
-0.4045
-0.32299
-0.20327
0.0005149
0.32402
0.77743
1.2843
1.7989
2.2574
2.6369
2.9222
3.1235
3.2406
3.2814
3.2636
3.1948
3.07
2.9095
2.7133
2.4968
2.265
2.0307
1.8116
1.59
1.376
1.1799
1.0041
0.82583
0.68063
0.53034
0.3826
0.2476
0.13043
0.025987
-0.083545
-0.19053
-0.27714
-0.3612
-0.45035
-0.51148
-0.57007
-0.62611
-0.66941
-0.69743
-0.73564
-0.74583
-0.74328
-0.73055
-0.71781
-0.68725
-0.66177
-0.61847
-0.58026
-0.53441
-0.50384
-0.4529
-0.39431
-0.30006
-0.15996
0.064196
0.42081
0.88951
1.3964
1.8677
2.2803
2.6191
2.8611
3.0165
3.1107
3.1285
3.0827
2.9859
2.8484
2.6751
2.4815
2.2676
2.0383
1.8269
1.6206
1.4117
1.2232
1.0449
0.86658
0.71629
0.5711
0.43864
0.30619
0.19411
0.082027
-0.02241
-0.11156
-0.21345
-0.30516
-0.37393
-0.4478
-0.50894
-0.55988
-0.61337
-0.64139
-0.66432
-0.67196
-0.67451
-0.67196
-0.65923
-0.62611
-0.60064
-0.56498
-0.51913
-0.47073
-0.42997
-0.37903
-0.29497
-0.14723
0.099858
0.46921
0.94045
1.4575
1.9339
2.3516
2.6777
2.9222
3.07
3.1515
3.1693
3.126
3.0114
2.8738
2.6904
2.4866
2.2778
2.0434
1.832
1.6078
1.4015
1.2105
1.0271
0.86658
0.70356
0.54308
0.40808
0.26798
0.1508
0.028535
-0.075903
-0.18034
-0.27714
-0.36629
-0.4529
-0.50894
-0.57771
-0.62356
-0.67196
-0.68979
-0.71781
-0.72291
-0.72036
-0.71272
-0.69489
-0.66941
-0.63885
-0.60064
-0.56243
-0.51403
-0.46563
-0.42742
-0.37138
-0.30006
-0.19053
-0.02241
0.27817
0.70101
1.2232
1.7428
2.2217
2.6191
2.9324
3.1489
3.2839
3.3476
3.3425
3.2763
3.154
2.9935
2.8025
2.5783
2.3593
2.1249
1.8906
1.6664
1.4423
1.241
1.0627
0.87422
0.72139
0.56855
0.41827
0.28326
0.15844
0.038724
-0.075903
-0.16506
-0.26949
-0.35101
-0.43761
-0.50894
-0.57262
-0.62356
-0.66687
-0.70508
-0.72291
-0.74328
-0.74074
-0.74074
-0.71272
-0.70508
-0.67196
-0.63121
-0.59045
-0.5446
-0.49875
-0.4478
-0.38922
-0.28987
-0.1243
0.14061
0.54308
1.0169
1.5059
1.967
2.3567
2.67
2.8917
3.0241
3.0929
3.0878
3.0368
2.9146
2.7694
2.5834
2.3797
2.1708
1.9543
1.7454
1.5391
1.3378
1.1519
0.9863
0.81054
0.6628
0.53034
0.40808
0.27307
0.17373
0.056555
-0.045336
-0.14723
-0.22874
-0.3128
-0.37903
-0.4529
-0.51658
-0.55988
-0.60064
-0.6363
-0.66177
-0.66941
-0.67196
-0.66941
-0.65158
-0.63121
-0.61337
-0.57007
-0.54969
-0.50639
-0.45799
-0.41978
-0.37648
-0.33063
-0.28733
-0.24912
-0.20327
-0.14723
-0.10647
-0.052978
0.02344
0.14826
0.34185
0.67554
1.1442
1.6715
2.2115
2.693
3.0674
3.3578
3.5514
3.6558
3.6558
3.6151
3.5157
3.3553
3.1591
2.935
2.6904
2.4459
2.1937
1.9517
1.7225
1.5009
1.3022
1.1009
0.92262
0.75705
0.59403
0.44374
0.30109
0.17373
0.041271
-0.068261
-0.18289
-0.27714
-0.37903
-0.46309
-0.52932
-0.58281
-0.6363
-0.6796
-0.71272
-0.72291
-0.72545
-0.73055
-0.71526
-0.69489
-0.67196
-0.64394
-0.61337
-0.57262
-0.52932
-0.48856
-0.45035
-0.39686
-0.3612
-0.3077
-0.26695
-0.21855
-0.1727
-0.12175
-0.073356
0.015798
0.14061
0.33675
0.68318
1.1672
1.7199
2.2676
2.7465
3.1336
3.4164
3.6176
3.6431
3.6558
3.6253
3.5336
3.4037
3.205
2.991
2.7439
2.4892
2.2421
1.9925
1.7607
1.5263
1.3098
1.1213
0.92517
0.7596
0.60422
0.44883
0.30364
0.17882
0.05146
-0.065714
-0.1676
-0.2644
-0.3561
-0.43761
-0.52422
-0.5879
-0.65158
-0.69234
-0.73055
-0.76366
-0.77385
-0.7764
-0.77895
-0.75602
-0.74328
-0.71526
-0.68215
-0.64139
-0.60828
-0.55733
-0.51658
-0.46818
-0.41724
-0.37138
-0.33318
-0.27459
-0.22364
-0.14723
-0.030052
0.17628
0.49978
0.95319
1.4779
1.9797
2.4357
2.8152
3.0852
3.2814
3.3807
3.4062
3.368
3.2636
3.1311
2.9451
2.7363
2.5172
2.2829
2.0485
1.8294
1.6104
1.4117
1.2079
1.0296
0.85894
0.69846
0.54818
0.41062
0.27562
0.15844
0.043818
-0.058072
-0.16506
-0.25676
-0.34337
-0.41724
-0.49365
-0.54715
-0.60828
-0.65158
-0.6796
-0.69743
-0.72291
-0.72291
-0.70762
-0.69489
-0.68215
-0.6363
-0.60828
-0.57007
-0.52422
-0.47582
-0.43507
-0.38667
-0.34591
-0.29497
-0.22874
-0.1294
0.031082
0.296
0.71629
1.2079
1.7352
2.237
2.6573
2.9884
3.2126
3.368
3.4342
3.424
3.3603
3.2457
3.0827
2.8891
2.6675
2.4382
2.2141
1.9721
1.7403
1.5289
1.32
1.1366
0.95574
0.78252
0.63224
0.4794
0.33421
0.2043
0.092216
-0.032599
-0.13958
-0.22874
-0.32553
-0.40959
-0.48856
-0.55988
-0.61847
-0.66941
-0.71272
-0.74328
-0.75857
-0.76366
-0.76621
-0.76366
-0.73819
-0.70508
-0.68725
-0.64649
-0.59809
-0.55479
-0.52167
-0.46818
-0.42742
-0.38157
-0.31535
-0.23383
-0.12175
0.089669
0.41317
0.87677
1.3939
1.9288
2.3873
2.7923
3.0827
3.2967
3.4189
3.4521
3.4444
3.3578
3.2355
3.0751
2.8789
2.6522
2.4204
2.181
1.9441
1.7174
1.4881
1.2818
1.1009
0.91243
0.74431
0.58893
0.43864
0.30619
0.17118
0.048913
-0.052978
-0.16506
-0.2644
-0.36374
-0.43761
-0.50894
-0.58026
-0.63121
-0.68725
-0.72291
-0.75857
-0.76621
-0.7764
-0.7764
-0.7713
-0.75602
-0.73055
-0.69743
-0.65413
-0.62102
-0.5879
-0.53441
-0.48856
-0.44016
-0.38667
-0.32299
-0.24147
-0.093734
0.14316
0.51251
0.98885
1.5136
2.0179
2.4459
2.7974
3.0547
3.2203
3.317
3.3272
3.2865
3.1999
3.0623
2.8738
2.6802
2.4586
2.2319
2.0128
1.7836
1.5773
1.3633
1.1875
0.99649
0.83602
0.68318
0.53799
0.40808
0.27817
0.15844
0.048913
-0.063167
-0.15996
-0.25166
-0.33572
-0.41469
-0.47837
-0.54205
-0.58535
-0.62611
-0.65923
-0.68215
-0.69234
-0.71272
-0.70508
-0.68979
-0.67451
-0.64394
-0.61847
-0.58281
-0.53186
-0.49365
-0.45035
-0.40195
-0.34591
-0.27204
-0.16251
0.041271
0.36223
0.80035
1.3022
1.8014
2.2345
2.586
2.8662
3.0419
3.1566
3.1922
3.1591
3.0751
2.9451
2.7719
2.5732
2.3567
2.1275
1.9135
1.6995
1.4907
1.3022
1.1315
0.96593
0.79271
0.65007
0.51251
0.37241
0.25015
0.13297
0.025987
-0.080997
-0.17525
-0.26185
-0.34082
-0.40959
-0.47582
-0.52422
-0.56752
-0.60828
-0.64394
-0.65413
-0.66432
-0.66177
-0.66687
-0.64394
-0.61592
-0.593
-0.55224
-0.52167
-0.48092
-0.44016
-0.39176
-0.35865
-0.31025
-0.24147
-0.15232
-0.019863
0.23232
0.63224
1.129
1.6639
2.158
2.586
2.9299
3.1795
3.3527
3.4215
3.4393
3.3986
3.2916
3.1515
2.9706
2.7694
2.5376
2.3058
2.0714
1.8473
1.6333
1.427
1.2232
1.0474
0.87168
0.72394
0.5762
0.42845
0.296
0.17628
0.048913
-0.055525
-0.15232
-0.25931
-0.33572
-0.41469
-0.49111
-0.55224
-0.60828
-0.65923
-0.68979
-0.71272
-0.73819
-0.75602
-0.75857
-0.74838
-0.73564
-0.70508
-0.69234
-0.64904
-0.60319
-0.56498
-0.51658
-0.47837
-0.41469
-0.3561
-0.26185
-0.088639
0.17373
0.58384
1.0704
1.5798
2.0434
2.4382
2.7414
2.9706
3.1082
3.1897
3.1846
3.1387
3.0216
2.8738
2.7083
2.5019
2.3032
2.0867
1.86
1.6613
1.4499
1.264
1.0831
0.90989
0.75705
0.62459
0.48449
0.35968
0.24505
0.13043
0.038724
-0.070808
-0.15487
-0.24402
-0.31025
-0.38412
-0.43252
-0.48856
-0.54205
-0.58535
-0.61847
-0.63885
-0.66177
-0.66687
-0.66432
-0.65923
-0.63375
-0.61592
-0.59045
-0.54205
-0.50894
-0.46563
-0.41469
-0.34846
-0.22619
-0.035147
0.28581
0.71629
1.2181
1.7097
2.1453
2.5045
2.7821
2.9732
3.0827
3.1362
3.1209
3.0496
2.935
2.7847
2.5911
2.3975
2.1733
1.9517
1.7479
1.5518
1.3531
1.1799
1.0169
0.85639
0.70865
0.5711
0.43864
0.32147
0.20175
0.092216
-0.0020324
-0.096281
-0.18798
-0.2644
-0.33572
-0.40705
-0.47328
-0.52167
-0.56243
-0.60573
-0.64139
-0.65668
-0.67196
-0.67451
-0.67196
-0.66177
-0.64904
-0.62356
-0.593
-0.55988
-0.52167
-0.48346
-0.43761
-0.40195
-0.33318
-0.23893
-0.080997
0.19156
0.59912
1.0958
1.618
2.0816
2.5019
2.8203
3.0496
3.2101
3.2916
3.3069
3.2686
3.1769
3.0419
2.8611
2.6751
2.4561
2.2217
1.9976
1.7912
1.5696
1.3735
1.1824
1.0194
0.85894
0.70101
0.55072
0.42336
0.29345
0.17373
0.064196
-0.032599
-0.13449
-0.22364
-0.30516
-0.38412
-0.44271
-0.5013
-0.55988
-0.59554
-0.63375
-0.66432
-0.69489
-0.69998
-0.72291
-0.71017
-0.70762
-0.70253
-0.66687
-0.64904
-0.61337
-0.57007
-0.52932
-0.47837
-0.42488
-0.3561
-0.22364
0.0081567
0.34439
0.8029
1.3022
1.7887
2.1988
2.5503
2.805
2.9834
3.0852
3.1209
3.098
3.0216
2.9018
2.7439
2.5554
2.3618
2.1479
1.9441
1.7403
1.5365
1.3404
1.1773
0.99904
0.84366
0.70865
0.5711
0.44119
0.32911
0.21194
0.11259
0.010704
-0.080997
-0.1727
-0.23893
-0.32044
-0.38157
-0.42997
-0.48092
-0.52422
-0.57007
-0.60828
-0.62356
-0.64139
-0.64394
-0.65158
-0.64139
-0.63121
-0.60828
-0.5879
-0.55479
-0.51913
-0.48092
-0.41724
-0.32808
-0.1727
0.099858
0.50487
0.98885
1.4881
1.9517
2.3465
2.67
2.8891
3.047
3.126
3.1387
3.1056
3.0139
2.884
2.7235
2.5198
2.3236
2.1046
1.8931
1.6843
1.4856
1.3047
1.1264
0.96847
0.81054
0.6628
0.53034
0.40808
0.28836
0.17628
0.071838
-0.024958
-0.11411
-0.20072
-0.28478
-0.35865
-0.41724
-0.48346
-0.53186
-0.57771
-0.62356
-0.65158
-0.67196
-0.69234
-0.69998
-0.69998
-0.68725
-0.66941
-0.64394
-0.61847
-0.57771
-0.54969
-0.5013
-0.46054
-0.40195
-0.3077
-0.15232
0.10495
0.50997
0.99395
1.4983
1.9772
2.3873
2.7235
2.9655
3.1336
3.2203
3.2508
3.2075
3.1336
3.0165
2.8534
2.6675
2.451
2.2294
2.0154
1.8065
1.59
1.3913
1.2028
1.0296
0.87168
0.71629
0.57874
0.44883
0.32656
0.22213
0.11769
0.02344
-0.083545
-0.16251
-0.23383
-0.31535
-0.38667
-0.43507
-0.5013
-0.54969
-0.58026
-0.62102
-0.64904
-0.66687
-0.6847
-0.68215
-0.68215
-0.67451
-0.65158
-0.63375
-0.61337
-0.5879
-0.54715
-0.50894
-0.4478
-0.37138
-0.22874
0.031082
0.40298
0.86149
1.3608
1.8167
2.2141
2.5248
2.7719
2.9197
3.0267
3.0445
3.0216
2.9324
2.8152
2.6675
2.4765
2.2854
2.0663
1.86
1.6715
1.4703
1.2971
1.1111
0.96338
0.81564
0.67299
0.55072
0.42591
0.32147
0.20939
0.11514
0.015798
-0.073356
-0.15487
-0.22619
-0.30516
-0.36374
-0.41724
-0.46818
-0.51148
-0.54715
-0.57517
-0.59554
-0.61083
-0.62102
-0.62102
-0.60828
-0.61083
-0.58535
-0.56243
-0.54205
-0.51148
-0.47073
-0.43252
-0.36884
-0.25676
-0.037694
0.30873
0.76469
1.2665
1.7581
2.1861
2.5478
2.8127
2.9986
3.1184
3.1591
3.1413
3.0802
2.9834
2.8229
2.6497
2.451
2.237
2.0103
1.8014
1.6002
1.3939
1.2232
1.0372
0.88696
0.74431
0.59912
0.47176
0.34694
0.22722
0.12788
0.028535
-0.055525
-0.14723
-0.216
-0.29751
-0.35101
-0.40705
-0.4529
-0.49365
-0.52422
-0.56243
-0.593
-0.62102
-0.63121
-0.64904
-0.66177
-0.65668
-0.64904
-0.64649
-0.61592
-0.60064
-0.56752
-0.54205
-0.5013
-0.4478
-0.34591
-0.16251
0.13297
0.57874
1.0882
1.6027
2.0765
2.4739
2.7898
3.0114
3.1489
3.2203
3.2279
3.1795
3.0827
2.9401
2.7694
2.558
2.3465
2.1351
1.9135
1.6995
1.4932
1.3073
1.1366
0.97102
0.81054
0.66535
0.54818
0.40808
0.29345
0.20175
0.097311
-0.0045796
-0.093734
-0.18034
-0.24657
-0.32553
-0.3994
-0.46054
-0.52677
-0.56752
-0.61337
-0.64139
-0.67706
-0.68979
-0.69489
-0.67706
-0.66941
-0.66177
-0.64139
-0.61083
-0.59554
-0.55988
-0.52677
-0.47837
-0.42488
-0.3561
-0.20836
0.033629
0.42081
0.87932
1.3888
1.8702
2.2701
2.586
2.828
2.991
3.0802
3.0929
3.0598
2.9757
2.8382
2.6751
2.4866
2.2778
2.0765
1.8702
1.6741
1.483
1.2971
1.1239
0.96593
0.82837
0.70101
0.57365
0.46412
0.35968
0.26034
0.17118
0.084574
0.015798
-0.063167
-0.13449
-0.19562
-0.24912
-0.30261
-0.3561
-0.39686
-0.44526
-0.48092
-0.51913
-0.55224
-0.58535
-0.59809
-0.61592
-0.63121
-0.63121
-0.64139
-0.62102
-0.60573
-0.57262
-0.54205
-0.46054
-0.33063
-0.080997
0.30109
0.78507
1.2894
1.7734
2.2013
2.5503
2.7974
2.9834
3.0929
3.1235
3.1082
3.0394
2.9299
2.777
2.6038
2.3975
2.1784
1.9619
1.7479
1.5365
1.3353
1.1442
0.97612
0.81564
0.65516
0.50997
0.37751
0.24505
0.13043
0.015798
-0.093734
-0.19053
-0.28223
-0.36629
-0.44016
-0.50894
-0.55988
-0.62356
-0.66177
-0.70762
-0.72545
-0.74583
-0.76876
-0.7713
-0.77895
-0.76366
-0.74583
-0.72036
-0.67706
-0.64649
-0.59554
-0.54715
-0.50384
-0.44016
-0.37648
-0.27459
-0.11156
0.14571
0.55072
1.0449
1.5645
2.074
2.4968
2.8407
3.0903
3.2737
3.3629
3.3833
3.3578
3.2686
3.1464
2.9808
2.7872
2.5656
2.344
2.1046
1.8728
1.6435
1.4295
1.2232
1.0398
0.86404
0.70101
0.55582
0.41317
0.28836
0.17882
0.056555
-0.040241
-0.13194
-0.23129
-0.31789
-0.39176
-0.47328
-0.54969
-0.60319
-0.66177
-0.69489
-0.73819
-0.76366
-0.7764
-0.77385
-0.7713
-0.75347
-0.72545
-0.69234
-0.65158
-0.60573
-0.55224
-0.50639
-0.4529
-0.38922
-0.31025
-0.19817
-0.0071269
0.30109
0.74177
1.2538
1.776
2.2243
2.6115
2.9095
3.1133
3.2279
3.2763
3.2636
3.1897
3.0623
2.9044
2.7108
2.4892
2.2625
2.0358
1.8065
1.5926
1.3964
1.2156
1.0271
0.87168
0.71375
0.58638
0.45393
0.32911
0.21448
0.11769
0.0005149
-0.088639
-0.17779
-0.27204
-0.3612
-0.42997
-0.48856
-0.5446
-0.60573
-0.63885
-0.66941
-0.68725
-0.69743
-0.69743
-0.69489
-0.66687
-0.64904
-0.62356
-0.5879
-0.54715
-0.5013
-0.45799
-0.40705
-0.34846
-0.2644
-0.1243
0.13043
0.51506
1.0271
1.5569
2.0638
2.5019
2.8636
3.1184
3.2967
3.3858
3.4189
3.3858
3.3069
3.1744
3.0063
2.8178
2.5834
2.3618
2.1224
1.8982
1.6715
1.4677
1.264
1.0755
0.92008
0.7545
0.6144
0.48449
0.36477
0.23996
0.13552
0.038724
-0.060619
-0.14977
-0.23638
-0.3077
-0.38667
-0.45035
-0.50639
-0.5395
-0.5879
-0.62356
-0.65158
-0.66432
-0.69234
-0.68725
-0.69489
-0.68725
-0.6796
-0.66687
-0.65158
-0.61337
-0.59045
-0.55479
-0.50384
-0.43252
-0.31789
-0.098828
0.2425
0.72139
1.2232
1.725
2.1682
2.5172
2.8076
2.9935
3.1082
3.1642
3.1591
3.0929
2.991
2.8509
2.6751
2.4739
2.2599
2.0332
1.8142
1.6104
1.4041
1.2054
1.0296
0.87677
0.73413
0.59148
0.46921
0.35458
0.2425
0.14316
0.064196
-0.030052
-0.10902
-0.18289
-0.26695
-0.32808
-0.37903
-0.44271
-0.48346
-0.52422
-0.56243
-0.58026
-0.61592
-0.62356
-0.64649
-0.64904
-0.64139
-0.65158
-0.63121
-0.61083
-0.60064
-0.56752
-0.54205
-0.49111
-0.42233
-0.27204
-0.017316
0.3826
0.85894
1.3429
1.8142
2.2064
2.5198
2.7617
2.9044
2.9961
3.0114
2.9783
2.8967
2.7821
2.614
2.4331
2.2396
2.0332
1.8294
1.6206
1.4244
1.2359
1.0729
0.92262
0.77488
0.65007
0.51761
0.39789
0.30619
0.20175
0.10495
0.025987
-0.058072
-0.13194
-0.19562
-0.26949
-0.32044
-0.37138
-0.41214
-0.46054
-0.4962
-0.53186
-0.5446
-0.57007
-0.57517
-0.59809
-0.5879
-0.59045
-0.5879
-0.56498
-0.54969
-0.53186
-0.49365
-0.46054
-0.3994
-0.25676
-0.019863
0.36732
0.8462
1.3455
1.8371
2.2472
2.5834
2.8433
3.019
3.1209
3.1693
3.1566
3.0929
2.991
2.8382
2.6649
2.4637
2.2472
2.0307
1.8244
1.6206
1.4193
1.2385
1.0704
0.90734
0.76469
0.62969
0.49978
0.39279
0.28836
0.19411
0.10241
0.010704
-0.073356
-0.15996
-0.216
-0.28733
-0.34337
-0.3994
-0.45035
-0.49875
-0.52932
-0.57007
-0.59554
-0.60828
-0.61592
-0.63121
-0.63375
-0.62866
-0.62611
-0.61592
-0.59554
-0.58281
-0.55988
-0.53441
-0.47582
-0.3561
-0.11666
0.23996
0.70611
1.1926
1.6664
2.0714
2.4179
2.6777
2.8534
2.9579
3.0165
3.0139
2.9528
2.8585
2.7159
2.5478
2.3542
2.1453
1.9364
1.7301
1.534
1.3455
1.1697
1.0067
0.85639
0.73158
0.60167
0.48704
0.36732
0.27052
0.18646
0.10241
0.015798
-0.058072
-0.12685
-0.19053
-0.24402
-0.29242
-0.34591
-0.38922
-0.42488
-0.46054
-0.48092
-0.5013
-0.50894
-0.52167
-0.52677
-0.52422
-0.52167
-0.50639
-0.48856
-0.48092
-0.46309
-0.44271
-0.40705
-0.32044
-0.13704
0.1559
0.56855
1.0169
1.4499
1.8473
2.1733
2.4306
2.6064
2.7363
2.7898
2.7872
2.7439
2.6599
2.5299
2.3669
2.1861
1.9899
1.804
1.6129
1.4321
1.264
1.1086
0.95574
0.82073
0.68827
0.57874
0.47176
0.37751
0.28326
0.18901
0.10495
0.020893
-0.045336
-0.1243
-0.19308
-0.23893
-0.30006
-0.34082
-0.38412
-0.42488
-0.4529
-0.47837
-0.49111
-0.50639
-0.52167
-0.52167
-0.51148
-0.52167
-0.51148
-0.49365
-0.47837
-0.46818
-0.42997
-0.38667
-0.27459
-0.055525
0.296
0.74431
1.2308
1.7021
2.0995
2.4484
2.7083
2.8917
3.0139
3.0598
3.0649
3.0139
2.9044
2.7719
2.6191
2.4255
2.2396
2.0281
1.8218
1.6231
1.427
1.2436
1.0729
0.92517
0.78507
0.64752
0.53544
0.41062
0.31892
0.20684
0.11769
0.043818
-0.042789
-0.11156
-0.18798
-0.25931
-0.31535
-0.36629
-0.4045
-0.44526
-0.47837
-0.50384
-0.51913
-0.54205
-0.55733
-0.55224
-0.56752
-0.56498
-0.55479
-0.54715
-0.53441
-0.51913
-0.50384
-0.47328
-0.41214
-0.28478
-0.030052
0.3393
0.78762
1.2614
1.7021
2.0765
2.3822
2.6166
2.7898
2.8789
2.9171
2.9044
2.8458
2.7388
2.5809
2.4153
2.2268
2.023
1.8244
1.6104
1.4295
1.2436
1.0856
0.93026
0.79526
0.6679
0.55072
0.43355
0.33675
0.2425
0.14571
0.076933
-0.0045796
-0.075903
-0.13704
-0.19817
-0.24912
-0.30261
-0.33827
-0.38412
-0.42742
-0.45544
-0.46818
-0.5013
-0.5013
-0.51403
-0.51658
-0.50639
-0.49875
-0.48856
-0.48346
-0.46818
-0.4478
-0.42488
-0.37648
-0.27968
-0.065714
0.25524
0.67299
1.1366
1.5645
1.9517
2.2778
2.5274
2.7032
2.8101
2.8458
2.8484
2.777
2.6777
2.5478
2.3746
2.2013
2.0179
1.8193
1.6257
1.4601
1.2767
1.1239
0.97866
0.83856
0.70611
0.60167
0.48959
0.39025
0.30364
0.2043
0.13297
0.043818
-0.019863
-0.086092
-0.15232
-0.216
-0.26695
-0.3128
-0.34591
-0.38922
-0.41469
-0.45035
-0.46309
-0.47837
-0.48092
-0.49111
-0.48856
-0.49111
-0.47837
-0.47073
-0.45544
-0.44016
-0.40959
-0.33572
-0.20072
0.07948
0.46157
0.92517
1.3913
1.8269
2.2039
2.4943
2.7235
2.8713
2.963
2.9884
2.9655
2.912
2.8025
2.6573
2.4866
2.2905
2.0867
1.8855
1.6843
1.4907
1.3073
1.1442
0.97866
0.83347
0.69337
0.5711
0.44883
0.34439
0.25524
0.16354
0.074385
-0.012221
-0.093734
-0.17779
-0.23893
-0.30261
-0.36374
-0.41214
-0.47073
-0.5013
-0.5446
-0.56243
-0.58281
-0.60573
-0.61083
-0.61592
-0.61847
-0.61847
-0.60828
-0.58535
-0.56498
-0.54205
-0.51148
-0.46563
-0.37648
-0.19817
0.11005
0.5278
1.0041
1.4754
1.9033
2.265
2.5554
2.7617
2.8967
2.9757
2.9783
2.9528
2.8585
2.7414
2.5783
2.4077
2.2039
2.0078
1.8065
1.6104
1.4295
1.2512
1.0806
0.93536
0.79781
0.66026
0.55072
0.44119
0.33421
0.23741
0.14826
0.064196
-0.0071269
-0.088639
-0.14723
-0.20581
-0.26185
-0.3128
-0.35355
-0.39176
-0.42233
-0.4529
-0.47328
-0.48092
-0.49365
-0.49875
-0.4962
-0.49111
-0.48092
-0.47837
-0.47328
-0.4478
-0.41214
-0.32044
-0.1243
0.19156
0.59912
1.0551
1.4881
1.888
2.209
2.4561
2.6497
2.7643
2.828
2.8356
2.7923
2.7057
2.586
2.4255
2.2447
2.0663
1.86
1.6715
1.4881
1.3047
1.129
0.97866
0.82583
0.69846
0.57874
0.46666
0.34439
0.25015
0.15844
0.07948
-0.017316
-0.088639
-0.15742
-0.22619
-0.29242
-0.33827
-0.38667
-0.42488
-0.46054
-0.49111
-0.51403
-0.54715
-0.54969
-0.56498
-0.56243
-0.55224
-0.55479
-0.53696
-0.52422
-0.51403
-0.48856
-0.45544
-0.38667
-0.23638
0.028535
0.41572
0.88441
1.3506
1.7963
2.1784
2.4815
2.7159
2.8713
2.9706
2.9986
2.9732
2.9069
2.8076
2.6624
2.4866
2.288
2.0944
1.8804
1.6843
1.483
1.3022
1.1391
0.98121
0.83092
0.70356
0.5711
0.45393
0.34694
0.24505
0.14571
0.061649
-0.02241
-0.10902
-0.17779
-0.24912
-0.31025
-0.36629
-0.41469
-0.46818
-0.4962
-0.53186
-0.55479
-0.57262
-0.58535
-0.59809
-0.60573
-0.59554
-0.58535
-0.57262
-0.55988
-0.54715
-0.52422
-0.49365
-0.40959
-0.24657
0.036177
0.43355
0.89715
1.3633
1.7861
2.1529
2.451
2.6675
2.805
2.8815
2.912
2.8738
2.7949
2.6904
2.5248
2.3593
2.1708
1.967
1.7683
1.5722
1.4015
1.2334
1.0602
0.92008
0.77743
0.65771
0.54818
0.4361
0.34185
0.23996
0.16354
0.074385
-0.0071269
-0.073356
-0.13958
-0.19817
-0.24402
-0.29242
-0.33572
-0.37138
-0.41724
-0.44271
-0.46563
-0.48092
-0.47582
-0.49365
-0.48856
-0.48601
-0.48346
-0.47328
-0.45544
-0.42742
-0.34846
-0.18034
0.11005
0.51251
0.94555
1.3709
1.7683
2.0995
2.3491
2.5401
2.6751
2.7465
2.7541
2.7312
2.6497
2.5299
2.3873
2.2115
2.0307
1.8396
1.6511
1.4779
1.3047
1.1366
0.9914
0.8462
0.71629
0.59148
0.47685
0.36987
0.26543
0.17373
0.092216
0.0056094
-0.063167
-0.13194
-0.19562
-0.25676
-0.30516
-0.34846
-0.38922
-0.41724
-0.46054
-0.48346
-0.49875
-0.50894
-0.51148
-0.52167
-0.51658
-0.52677
-0.51403
-0.50639
-0.49111
-0.47837
-0.43761
-0.3561
-0.19308
0.10495
0.50487
0.96847
1.427
1.8498
2.2039
2.5019
2.7133
2.8534
2.9401
2.9681
2.9426
2.8713
2.7592
2.614
2.4306
2.2447
2.0485
1.8396
1.6384
1.4423
1.2665
1.0907
0.9481
0.80035
0.66026
0.53799
0.42081
0.31383
0.22213
0.13043
0.036177
-0.042789
-0.11666
-0.17779
-0.24147
-0.29751
-0.34591
-0.39431
-0.44016
-0.46818
-0.50384
-0.51148
-0.52677
-0.5395
-0.54715
-0.53696
-0.53696
-0.53186
-0.51403
-0.49365
-0.47837
-0.45799
-0.39686
-0.2644
-0.017316
0.3393
0.76979
1.2181
1.6257
1.9823
2.2701
2.4892
2.6497
2.7516
2.7898
2.7796
2.7184
2.6191
2.479
2.3211
2.1428
1.9543
1.7658
1.5773
1.4041
1.2207
1.0729
0.92262
0.79526
0.65771
0.55582
0.43864
0.34694
0.25269
0.16354
0.084574
0.0030622
-0.068261
-0.1294
-0.19562
-0.24402
-0.28733
-0.33572
-0.37903
-0.40195
-0.42488
-0.45035
-0.46054
-0.46054
-0.48092
-0.47328
-0.47073
-0.46563
-0.46563
-0.44526
-0.41724
-0.35865
-0.19817
0.074385
0.44374
0.87168
1.3124
1.7148
2.0485
2.3236
2.5299
2.67
2.7592
2.7923
2.7796
2.7108
2.614
2.4714
2.3083
2.1173
1.9313
1.7377
1.5518
1.3557
1.1926
1.0398
0.88696
0.7545
0.62205
0.50997
0.40043
0.30109
0.20684
0.12278
0.028535
-0.05043
-0.11921
-0.18289
-0.24657
-0.29751
-0.35101
-0.39431
-0.43761
-0.46818
-0.49365
-0.51403
-0.52932
-0.53696
-0.5395
-0.54715
-0.53186
-0.53186
-0.52677
-0.51658
-0.50639
-0.47837
-0.42742
-0.28733
-0.027505
0.34185
0.77998
1.2385
1.6664
2.0358
2.3262
2.5631
2.7235
2.8382
2.8815
2.8738
2.8305
2.7312
2.6013
2.4535
2.2778
2.0893
1.8957
1.6995
1.5085
1.3251
1.1391
0.97866
0.82583
0.68318
0.55582
0.43355
0.33166
0.23486
0.14061
0.056555
-0.030052
-0.093734
-0.17015
-0.22364
-0.28223
-0.33063
-0.37138
-0.4045
-0.43761
-0.46818
-0.49365
-0.50894
-0.51913
-0.51148
-0.50894
-0.49875
-0.48346
-0.48092
-0.46309
-0.44271
-0.40195
-0.30516
-0.10138
0.21703
0.60167
1.0245
1.4397
1.804
2.1122
2.3618
2.5478
2.6599
2.7388
2.7516
2.7133
2.6318
2.5096
2.3542
2.1937
2.0128
1.8218
1.6333
1.4372
1.269
1.0933
0.93791
0.79017
0.64752
0.5227
0.40553
0.30873
0.20939
0.12788
0.056555
-0.027505
-0.091186
-0.14213
-0.19817
-0.24912
-0.28478
-0.32044
-0.34846
-0.38157
-0.3994
-0.41724
-0.42233
-0.42742
-0.42997
-0.42233
-0.42233
-0.41978
-0.40195
-0.38667
-0.3612
-0.29497
-0.1676
0.092216
0.4361
0.8513
1.2614
1.6537
1.9874
2.265
2.4739
2.6369
2.7414
2.7872
2.7847
2.7286
2.642
2.5172
2.3644
2.2039
2.0179
1.8193
1.6155
1.4423
1.2512
1.0907
0.93026
0.79271
0.65516
0.53289
0.43355
0.32656
0.22467
0.13552
0.059102
-0.014769
-0.083545
-0.15232
-0.20836
-0.25421
-0.31535
-0.3561
-0.39176
-0.42997
-0.4529
-0.47837
-0.49875
-0.50384
-0.51403
-0.51658
-0.50894
-0.50384
-0.49875
-0.48856
-0.47837
-0.4529
-0.38667
-0.22619
0.038724
0.40298
0.82837
1.2589
1.6435
1.9772
2.2447
2.4663
2.614
2.6981
2.7286
2.7261
2.6649
2.5707
2.4331
2.2829
2.1071
1.9237
1.7276
1.5391
1.3608
1.1875
1.0194
0.87422
0.74177
0.60931
0.49723
0.39789
0.30364
0.2043
0.11769
0.046366
-0.030052
-0.096281
-0.15487
-0.21855
-0.25421
-0.31025
-0.33572
-0.37648
-0.4045
-0.42997
-0.43252
-0.4478
-0.4529
-0.44526
-0.44526
-0.43761
-0.42742
-0.41724
-0.4045
-0.36629
-0.29751
-0.13449
0.1508
0.50742
0.90734
1.3098
1.6715
1.9823
2.2319
2.4255
2.5452
2.6166
2.6395
2.6089
2.5376
2.4255
2.2905
2.1198
1.9441
1.7581
1.5773
1.3913
1.2232
1.0704
0.92008
0.78507
0.6628
0.55327
0.44629
0.34439
0.25269
0.15844
0.069291
-0.0045796
-0.075903
-0.14723
-0.20581
-0.25421
-0.29751
-0.33318
-0.36374
-0.3994
-0.41978
-0.44526
-0.46054
-0.47073
-0.47328
-0.48346
-0.47073
-0.46309
-0.45799
-0.4478
-0.42488
-0.40705
-0.37648
-0.30516
-0.14213
0.13297
0.52016
0.97102
1.4244
1.8473
2.2141
2.4994
2.7159
2.8738
2.9579
2.9935
2.9757
2.9095
2.8025
2.6599
2.479
2.293
2.0969
1.8829
1.6792
1.483
1.292
1.129
0.96593
0.82583
0.69082
0.55582
0.44883
0.34694
0.24505
0.15335
0.066744
-0.02241
-0.096281
-0.17015
-0.23383
-0.27714
-0.32808
-0.37648
-0.41214
-0.44526
-0.48092
-0.49875
-0.53186
-0.5395
-0.55224
-0.56752
-0.57007
-0.57262
-0.58026
-0.57517
-0.57262
-0.55988
-0.55224
-0.54205
-0.50894
-0.49365
-0.45035
-0.41978
-0.37648
-0.34337
-0.29751
-0.23638
-0.19817
-0.14213
-0.07845
0.028535
0.21703
0.54053
0.99395
1.5263
2.0587
2.5401
2.9426
3.2381
3.4597
3.5845
3.6405
3.6431
3.5692
3.4444
3.2839
3.0929
2.8687
2.6497
2.4153
2.1835
1.9466
1.7403
1.5391
1.3506
1.1824
1.0143
0.85639
0.72394
0.59657
0.47176
0.35458
0.25015
0.14571
0.061649
-0.032599
-0.11411
-0.18544
-0.24657
-0.3077
-0.35865
-0.4045
-0.4478
-0.47837
