0.2425
0.12278
0.0005149
-0.091186
-0.18289
-0.25676
-0.31025
-0.3612
-0.39686
-0.42488
-0.40705
-0.35355
-0.23383
-0.065714
0.12788
0.35968
0.57874
0.82328
1.0474
1.2716
1.455
1.59
1.6537
1.6486
1.5875
1.5009
1.3658
1.2257
1.0755
0.93026
0.79017
0.63988
0.52525
0.40043
0.29854
0.2043
0.12278
0.048913
-0.019863
-0.07845
-0.1243
-0.15742
-0.17015
-0.15742
-0.091186
0.036177
0.21194
0.41827
0.64242
0.87168
1.1315
1.3888
1.6333
1.8345
1.9772
2.0587
2.0562
1.9848
1.8753
1.7148
1.5365
1.3582
1.1824
0.9914
0.82328
0.67044
0.51506
0.37751
0.26543
0.16354
0.069291
-0.012221
-0.086092
-0.13194
-0.18798
-0.21345
-0.20581
-0.1243
-0.0020324
0.17628
0.3877
0.63733
0.91498
1.2232
1.534
1.8116
2.0612
2.2013
2.2701
2.2497
2.1555
2.0052
1.804
1.5875
1.3684
1.1391
0.92262
0.71884
0.5278
0.36732
0.21194
0.07948
-0.030052
-0.12685
-0.21345
-0.28733
-0.34591
-0.40705
-0.44526
-0.47582
-0.49365
-0.46309
-0.38157
-0.24402
-0.042789
0.19156
0.46157
0.77233
1.1111
1.4499
1.7734
2.046
2.2268
2.3211
2.3262
2.2497
2.0944
1.9033
1.6843
1.4575
1.2156
0.99904
0.78762
0.58893
0.41062
0.2476
0.10241
-0.0096741
-0.11411
-0.20581
-0.28733
-0.36374
-0.40959
-0.47073
-0.50894
-0.52677
-0.53441
-0.4962
-0.39431
-0.23638
-0.045336
0.19665
0.45393
0.72394
1.0143
1.2996
1.5518
1.7632
1.8982
1.9619
1.9313
1.86
1.725
1.5645
1.3811
1.1952
1.0092
0.83856
0.67044
0.52016
0.37751
0.26034
0.14826
0.043818
-0.047883
-0.11666
-0.18034
-0.23129
-0.28733
-0.32553
-0.36629
-0.37648
-0.3612
-0.30261
-0.1727
0.0030622
0.20939
0.431
0.65261
0.88187
1.0831
1.2563
1.4015
1.511
1.5594
1.5645
1.511
1.427
1.3353
1.2105
1.0907
0.96593
0.8462
0.73158
0.61186
0.51506
0.41827
0.32656
0.23996
0.16863
0.10495
0.05146
-0.0045796
-0.042789
-0.086092
-0.11411
-0.1243
-0.088639
0.0056094
0.14826
0.33421
0.54818
0.77233
0.99395
1.1926
1.3633
1.5289
1.6308
1.7046
1.7327
1.7021
1.6486
1.5696
1.4626
1.3404
1.213
1.0958
0.96847
0.8513
0.74431
0.64242
0.55072
0.46157
0.37751
0.296
0.22722
0.16354
0.10495
0.059102
0.041271
0.071838
0.1508
0.28836
0.47176
0.67299
0.88696
1.0882
1.2945
1.4907
1.6639
1.7963
1.8829
1.9008
1.86
1.776
1.6639
1.511
1.348
1.1901
1.0398
0.88696
0.74177
0.6144
0.49978
0.37496
0.27562
0.19411
0.10495
0.033629
-0.019863
-0.086092
-0.13449
-0.1676
-0.18289
-0.16251
-0.088639
0.041271
0.23741
0.45138
0.69082
0.95574
1.2308
1.4907
1.7556
1.9645
2.102
2.1784
2.1657
2.0969
1.9645
1.8014
1.6027
1.4142
1.2054
1.0143
0.8462
0.6679
0.50487
0.37496
0.2425
0.13297
0.033629
-0.042789
-0.1294
-0.19053
-0.24657
-0.27459
-0.29751
-0.27459
-0.18798
-0.060619
0.12024
0.33166
0.55582
0.78507
1.0271
1.2614
1.4779
1.6384
1.7428
1.7963
1.7607
1.6893
1.5671
1.4244
1.2767
1.106
0.943
0.78507
0.63988
0.49214
0.37751
0.26543
0.15844
0.07948
-0.012221
-0.068261
-0.14213
-0.18289
-0.20836
-0.18544
-0.1243
0.0005149
0.16609
0.35713
0.59148
0.82073
1.078
1.3378
1.5798
1.7581
1.8829
1.9466
1.9135
1.8345
1.7097
1.5365
1.3506
1.1672
0.97102
0.79526
0.62714
0.47176
0.33675
0.2043
0.099858
-0.0045796
-0.083545
-0.17015
-0.22364
-0.27968
-0.29242
-0.2644
-0.18544
-0.047883
0.13807
0.34949
0.56346
0.81564
1.0551
1.2843
1.4677
1.6257
1.7021
1.6995
1.646
1.5416
1.4091
1.2512
1.0755
0.91243
0.7545
0.59657
0.44883
0.32656
0.21448
0.11259
0.010704
-0.070808
-0.13194
-0.20072
-0.24912
-0.27968
-0.28223
-0.23129
-0.12685
0.028535
0.23996
0.45393
0.69592
0.95064
1.2028
1.4423
1.646
1.8091
1.8982
1.9084
1.8549
1.7632
1.6078
1.4499
1.2792
1.0933
0.92262
0.74431
0.59403
0.45393
0.33675
0.23232
0.12788
0.048913
-0.02241
-0.091186
-0.14723
-0.18798
-0.19053
-0.14468
-0.027505
0.13297
0.33675
0.58384
0.85894
1.185
1.5416
1.86
2.1479
2.3567
2.4663
2.5019
2.4255
2.2727
2.0714
1.8422
1.59
1.3429
1.0958
0.8513
0.62205
0.41827
0.24505
0.07948
-0.055525
-0.1727
-0.26695
-0.3612
-0.42742
-0.49365
-0.53186
-0.54969
-0.51403
-0.42233
-0.25676
-0.047883
0.20939
0.52525
0.92262
1.3353
1.7352
2.0842
2.3516
2.5172
2.558
2.4968
2.3618
2.1529
1.8982
1.6333
1.3506
1.078
0.8029
0.55072
0.33166
0.12533
-0.052978
-0.20327
-0.32808
-0.45035
-0.52932
-0.61083
-0.6796
-0.728
-0.76366
-0.77385
-0.74074
-0.65158
-0.52167
-0.31535
-0.086092
0.19411
0.52525
0.88187
1.2538
1.5976
1.8728
2.0562
2.1479
2.13
2.0434
1.888
1.6843
1.4626
1.2283
1.0041
0.78252
0.57874
0.3826
0.21703
0.061649
-0.060619
-0.17015
-0.26949
-0.3612
-0.42997
-0.48092
-0.52932
-0.56752
-0.59045
-0.58281
-0.5446
-0.44526
-0.28478
-0.070808
0.16863
0.41827
0.69082
0.97357
1.2359
1.4703
1.6588
1.7709
1.8218
1.7836
1.7072
1.5645
1.4117
1.2461
1.0755
0.90224
0.74177
0.58638
0.44883
0.32147
0.20939
0.11769
0.036177
-0.045336
-0.10392
-0.15742
-0.21345
-0.24912
-0.26695
-0.24402
-0.17525
-0.05043
0.11005
0.32402
0.53034
0.74941
0.9481
1.1417
1.3022
1.4168
1.4932
1.5238
1.4983
1.4346
1.3531
1.2487
1.134
1.0245
0.90734
0.79271
0.67809
0.56855
0.4794
0.39279
0.31383
0.23486
0.17882
0.12788
0.074385
0.036177
-0.0020324
-0.0020324
0.041271
0.13297
0.28581
0.47176
0.70356
0.93791
1.1799
1.4142
1.6511
1.8447
1.9976
2.1071
2.1377
2.0995
2.0052
1.8702
1.697
1.5136
1.3327
1.1621
0.98885
0.82073
0.67299
0.54308
0.40808
0.30109
0.19665
0.11259
0.025987
-0.045336
-0.11156
-0.15232
-0.18798
-0.18289
-0.12685
-0.0096741
0.16609
0.37751
0.61695
0.85894
1.1213
1.3709
1.6078
1.8065
1.939
2.0052
1.9874
1.911
1.7861
1.6409
1.4626
1.2741
1.0831
0.91243
0.74431
0.58384
0.45138
0.31892
0.1992
0.097311
0.013251
-0.075903
-0.13449
-0.20072
-0.25931
-0.29497
-0.32808
-0.33318
-0.30516
-0.22364
-0.065714
0.13552
0.37496
0.63224
0.90734
1.1952
1.4779
1.7403
1.939
2.0714
2.1173
2.0791
1.9925
1.8447
1.6664
1.4805
1.2792
1.0907
0.8946
0.71884
0.56346
0.42336
0.28836
0.17118
0.082027
-0.017316
-0.086092
-0.1676
-0.2211
-0.27459
-0.32299
-0.34591
-0.35101
-0.29497
-0.19817
-0.032599
0.17118
0.39789
0.63224
0.88696
1.1137
1.3276
1.5212
1.6588
1.7352
1.7479
1.6995
1.6027
1.4779
1.3353
1.1799
1.022
0.86658
0.72903
0.59148
0.45647
0.35458
0.2425
0.1559
0.07948
-0.0045796
-0.063167
-0.12175
-0.17015
-0.216
-0.23893
-0.22364
-0.1676
-0.047883
0.12278
0.33421
0.55582
0.77233
0.98121
1.1646
1.3302
1.455
1.5365
1.5518
1.5391
1.4805
1.4015
1.2996
1.1773
1.0602
0.943
0.82073
0.7112
0.60422
0.51506
0.41572
0.33675
0.2476
0.19156
0.13297
0.066744
0.025987
-0.0096741
-0.030052
-0.0071269
0.069291
0.20939
0.39789
0.61695
0.83347
1.0678
1.292
1.511
1.7097
1.8702
1.9695
2.0128
1.995
1.9237
1.8091
1.6613
1.511
1.3404
1.1799
1.0143
0.8513
0.70865
0.57874
0.45902
0.34949
0.26034
0.16609
0.089669
0.020893
-0.040241
-0.093734
-0.096281
-0.045336
0.056555
0.20684
0.40043
0.63478
0.88441
1.1672
1.4499
1.7327
1.9695
2.1402
2.2319
2.2294
2.1529
2.0154
1.8371
1.6409
1.4091
1.1901
0.97866
0.77488
0.58384
0.42081
0.26543
0.14316
0.02344
-0.080997
-0.1676
-0.24147
-0.3077
-0.3612
-0.40959
-0.42742
-0.41214
-0.33063
-0.18798
0.018346
0.25269
0.5278
0.82583
1.1544
1.4932
1.804
2.0383
2.2064
2.2625
2.2472
2.1402
1.9721
1.776
1.5391
1.3149
1.0704
0.85639
0.65261
0.46157
0.27817
0.13043
-0.0020324
-0.11156
-0.21855
-0.29242
-0.36884
-0.44016
-0.48346
-0.52677
-0.56243
-0.56243
-0.52167
-0.42997
-0.28478
-0.073356
0.17373
0.45647
0.77488
1.1264
1.4779
1.804
2.0587
2.237
2.3032
2.2854
2.1708
2.0154
1.8116
1.5798
1.3378
1.1009
0.86404
0.65007
0.45902
0.28836
0.13297
0.0005149
-0.10902
-0.216
-0.30006
-0.37648
-0.44271
-0.48092
-0.52422
-0.53441
-0.51658
-0.43761
-0.30006
-0.10647
0.11514
0.34694
0.60422
0.85385
1.0984
1.3149
1.5034
1.6206
1.6843
1.6639
1.5976
1.4907
1.3429
1.1901
1.0296
0.87422
0.72903
0.58129
0.45902
0.32656
0.23486
0.12788
0.041271
-0.024958
-0.083545
-0.14213
-0.19308
-0.23129
-0.24147
-0.21855
-0.14468
0.0005149
0.18646
0.41317
0.65007
0.91753
1.185
1.4423
1.6893
1.9008
2.0383
2.0995
2.0944
2.0307
1.8982
1.7301
1.5492
1.3684
1.1697
0.97866
0.81054
0.63988
0.48959
0.36732
0.2425
0.14061
0.048913
-0.030052
-0.10392
-0.18034
-0.22364
-0.23893
-0.20072
-0.096281
0.064196
0.26543
0.49723
0.76469
1.0755
1.399
1.7072
1.9823
2.1835
2.3032
2.3134
2.2421
2.1071
1.9262
1.7097
1.4779
1.2359
1.0067
0.80035
0.59912
0.41572
0.2476
0.11005
-0.012221
-0.12175
-0.21855
-0.30006
-0.36629
-0.41724
-0.46054
-0.46309
-0.39431
-0.27204
-0.098828
0.13552
0.41572
0.72903
1.0907
1.4499
1.7836
2.0638
2.237
2.3134
2.2905
2.1937
2.0205
1.8142
1.5696
1.3276
1.0806
0.83092
0.60931
0.40808
0.23232
0.07948
-0.055525
-0.18034
-0.27459
-0.35865
-0.42997
-0.4962
-0.54715
-0.57262
-0.57517
-0.52422
-0.41724
-0.24657
-0.030052
0.23486
0.53799
0.90224
1.2792
1.6308
1.9364
2.1555
2.2829
2.288
2.2217
2.0816
1.8804
1.6537
1.4091
1.1646
0.92772
0.69337
0.48704
0.30364
0.14571
0.0030622
-0.11921
-0.22874
-0.31789
-0.38922
-0.45035
-0.5013
-0.53441
-0.54969
-0.50639
-0.39176
-0.23638
-0.027505
0.2043
0.46921
0.74941
1.05
1.3225
1.5645
1.7403
1.8345
1.8702
1.8091
1.7021
1.5442
1.3658
1.1875
0.9914
0.80545
0.63988
0.48704
0.3393
0.21194
0.092216
0.0030622
-0.080997
-0.14723
-0.216
-0.26185
-0.3077
-0.32553
-0.3077
-0.22619
-0.080997
0.11769
0.34439
0.6195
0.90989
1.2461
1.5696
1.8753
2.1249
2.2981
2.3746
2.3516
2.2625
2.0995
1.9084
1.6843
1.4499
1.2181
0.98121
0.77488
0.58129
0.40553
0.2476
0.11005
-0.0045796
-0.11411
-0.19817
-0.27459
-0.33572
-0.36629
-0.34591
-0.26185
-0.1243
0.056555
0.30364
0.60676
0.95574
1.3353
1.7148
2.0536
2.3007
2.4535
2.5121
2.4459
2.3109
2.1275
1.8829
1.6206
1.348
1.0806
0.82837
0.58129
0.36223
0.16863
0.0056094
-0.14468
-0.2644
-0.37648
-0.4529
-0.52932
-0.58281
-0.64139
-0.66687
-0.67706
-0.64139
-0.52677
-0.35101
-0.13449
0.16099
0.52016
0.94045
1.3888
1.8244
2.209
2.4866
2.6497
2.7032
2.6369
2.4968
2.2854
2.0256
1.753
1.4474
1.1723
0.88696
0.6195
0.3877
0.18137
-0.014769
-0.16506
-0.30261
-0.41978
-0.51658
-0.59045
-0.65158
-0.71017
-0.7331
-0.74328
-0.69743
-0.60828
-0.43761
-0.21855
0.061649
0.39789
0.78507
1.2105
1.6231
1.9746
2.237
2.3949
2.4331
2.3669
2.2319
2.0281
1.7938
1.5238
1.2614
0.99395
0.73413
0.50232
0.28581
0.11005
-0.042789
-0.17525
-0.30006
-0.38667
-0.46309
-0.52932
-0.57771
-0.61592
-0.63375
-0.61337
-0.53441
-0.39686
-0.19817
0.031082
0.30109
0.60676
0.95828
1.2843
1.59
1.8447
2.0001
2.0791
2.0612
1.9619
1.8142
1.6333
1.4219
1.2105
0.98121
0.77233
0.57365
0.39279
0.23996
0.097311
-0.02241
-0.12175
-0.20836
-0.28733
-0.34082
-0.3994
-0.41978
-0.43761
-0.3994
-0.29751
-0.14468
0.071838
0.32147
0.63224
0.98885
1.3709
1.753
2.0893
2.3389
2.5147
2.5656
2.5223
2.3949
2.2115
1.9797
1.7403
1.4728
1.213
0.96847
0.73158
0.51251
0.31638
0.14316
0.0081567
-0.1294
-0.23638
-0.3128
-0.39176
-0.45799
-0.48092
-0.47328
-0.40705
-0.28987
-0.093734
0.15844
0.48449
0.89715
1.3429
1.7709
2.1555
2.4459
2.6369
2.7057
2.6777
2.535
2.3338
2.0765
1.7963
1.4983
1.1926
0.91243
0.63988
0.37751
0.16354
-0.035147
-0.20836
-0.34591
-0.48092
-0.58026
-0.65668
-0.7331
-0.7764
-0.80951
-0.79168
-0.71272
-0.57517
-0.37138
-0.11156
0.23232
0.67044
1.1519
1.6231
2.0434
2.3822
2.6064
2.7083
2.6802
2.5656
2.3644
2.1122
1.8269
1.5289
1.2257
0.92772
0.65261
0.38515
0.15335
-0.047883
-0.23129
-0.38157
-0.50639
-0.60828
-0.69743
-0.75602
-0.8248
-0.84772
-0.86555
-0.82734
-0.73055
-0.57262
-0.34082
-0.05043
0.31128
0.73922
1.2105
1.6613
2.0434
2.3414
2.5147
2.5631
2.5096
2.3669
2.1402
1.8906
1.6027
1.3073
1.0194
0.73922
0.48195
0.23996
0.038724
-0.13958
-0.29242
-0.41978
-0.51403
-0.60064
-0.66687
-0.71781
-0.75347
-0.78149
-0.7713
-0.70762
-0.57517
-0.39176
-0.14977
0.13807
0.48195
0.86658
1.2538
1.6308
1.9313
2.158
2.2625
2.2854
2.1988
2.0511
1.86
1.6308
1.3811
1.1366
0.90224
0.67299
0.46412
0.28581
0.11769
-0.024958
-0.13958
-0.24912
-0.34082
-0.4045
-0.45544
-0.49875
-0.50639
-0.47328
-0.38412
-0.2211
0.0030622
0.26543
0.57874
0.95574
1.3608
1.7607
2.1122
2.3797
2.535
2.5962
2.5503
2.4255
2.2243
1.9772
1.7199
1.4499
1.1723
0.91498
0.6628
0.44374
0.2476
0.082027
-0.063167
-0.19562
-0.28478
-0.37648
-0.45035
-0.5013
-0.53696
-0.52167
-0.44016
-0.28223
-0.070808
0.21194
0.57874
1.0423
1.5187
1.995
2.3949
2.7108
2.8967
2.9655
2.9095
2.749
2.5096
2.2421
1.9186
1.6053
1.2741
0.95828
0.65261
0.3826
0.13297
-0.080997
-0.25931
-0.42233
-0.55733
-0.65668
-0.74583
-0.80697
-0.8681
-0.90376
-0.89103
-0.8248
-0.69234
-0.49111
-0.2211
0.13807
0.59148
1.106
1.6206
2.0969
2.4815
2.7465
2.8738
2.8764
2.7668
2.5656
2.3058
2.0154
1.6843
1.3608
1.0474
0.73922
0.45902
0.19411
-0.035147
-0.23383
-0.40959
-0.55479
-0.66941
-0.76621
-0.84008
-0.89867
-0.93688
-0.97763
-0.98273
-0.95471
-0.88593
-0.73055
-0.51403
-0.23129
0.14316
0.60676
1.1366
1.6715
2.1555
2.5478
2.8178
2.9579
2.963
2.8509
2.6471
2.3873
2.0816
1.7479
1.4219
1.0984
0.79017
0.48959
0.22467
0.0005149
-0.19817
-0.36629
-0.51658
-0.62102
-0.72036
-0.79423
-0.84772
-0.89867
-0.92669
-0.93433
-0.90376
-0.8197
-0.65668
-0.44526
-0.18544
0.12278
0.47176
0.86913
1.2589
1.6104
1.9084
2.0995
2.1886
2.1759
2.0816
1.9262
1.7225
1.5059
1.2716
1.022
0.8029
0.59403
0.40808
0.22722
0.076933
-0.035147
-0.14723
-0.23638
-0.31025
-0.38157
-0.42742
-0.47328
-0.5013
-0.47582
-0.4045
-0.25421
-0.070808
0.17882
0.46412
0.78252
1.1493
1.5187
1.8677
2.158
2.3695
2.4765
2.4841
2.3847
2.2294
2.023
1.776
1.5289
1.2767
1.0347
0.80035
0.58638
0.40298
0.23232
0.087122
-0.042789
-0.14977
-0.24402
-0.31789
-0.39431
-0.44271
-0.46309
-0.44016
-0.34591
-0.18289
0.025987
0.2909
0.63733
1.0423
1.4779
1.8957
2.2727
2.5554
2.7312
2.7821
2.7108
2.5605
2.3338
2.0791
1.7836
1.4779
1.1824
0.89206
0.62714
0.38515
0.16354
-0.014769
-0.1727
-0.31025
-0.41724
-0.50894
-0.59045
-0.65158
-0.69489
-0.72545
-0.70762
-0.61083
-0.4529
-0.24402
0.028535
0.35713
0.75705
1.1824
1.5926
1.9645
2.237
2.4
2.4612
2.4026
2.265
2.0689
1.8218
1.562
1.2945
1.022
0.7545
0.52016
0.30619
0.12278
-0.045336
-0.18798
-0.30261
-0.40705
-0.49365
-0.57007
-0.63121
-0.66941
-0.70253
-0.728
-0.71272
-0.62866
-0.4962
-0.29242
-0.030052
0.28581
0.66026
1.0933
1.5314
1.9211
2.265
2.4968
2.6089
2.5962
2.5045
2.3287
2.0918
1.8345
1.5594
1.2792
1.0092
0.75705
0.52016
0.31383
0.14061
-0.017316
-0.15232
-0.27204
-0.36629
-0.44526
-0.51403
-0.57262
-0.60319
-0.62102
-0.58026
-0.49875
-0.34337
-0.13704
0.11005
0.37241
0.6628
0.96593
1.2436
1.4958
1.6817
1.7836
1.8142
1.7632
1.6613
1.5034
1.3353
1.157
0.97866
0.808
0.64242
0.50232
0.36732
0.25524
0.14316
0.05146
-0.030052
-0.10138
-0.1676
-0.21345
-0.24912
-0.27459
-0.2644
-0.18544
-0.055525
0.12533
0.36987
0.63733
0.93281
1.2665
1.6104
1.9211
2.1937
2.3797
2.4663
2.4688
2.3797
2.2319
2.0358
1.8014
1.5747
1.3225
1.0958
0.87422
0.67809
0.49978
0.32911
0.20175
0.076933
-0.030052
-0.12175
-0.20836
-0.27204
-0.32553
-0.31789
-0.27968
-0.15742
0.02344
0.2476
0.5278
0.86658
1.2538
1.6409
1.9925
2.3007
2.4841
2.5732
2.558
2.4331
2.2574
2.0154
1.753
1.4677
1.1926
0.92517
0.67554
0.44883
0.25524
0.074385
-0.086092
-0.21091
-0.31789
-0.41469
-0.50384
-0.57007
-0.61847
-0.62866
-0.61592
-0.51658
-0.36374
-0.13704
0.13807
0.49214
0.8997
1.3378
1.7556
2.1173
2.3695
2.5223
2.558
2.4841
2.3211
2.102
1.8396
1.5747
1.2843
1.0041
0.74686
0.50232
0.27562
0.097311
-0.075903
-0.21345
-0.33572
-0.43761
-0.52932
-0.59045
-0.66177
-0.69234
-0.72545
-0.69998
-0.62866
-0.5013
-0.28733
-0.030052
0.31383
0.71629
1.1773
1.6384
2.0511
2.3695
2.5936
2.6904
2.6675
2.535
2.3389
2.0816
1.7989
1.5034
1.2156
0.92772
0.6679
0.41317
0.2043
0.013251
-0.16251
-0.28733
-0.41724
-0.51148
-0.593
-0.66177
-0.71272
-0.74328
-0.7331
-0.6796
-0.56243
-0.3612
-0.1243
0.18137
0.54818
0.96083
1.3658
1.7479
2.0638
2.2625
2.3491
2.3414
2.2243
2.0536
1.8244
1.5696
1.3124
1.0602
0.80545
0.56601
0.36223
0.17882
0.018346
-0.12175
-0.24657
-0.35101
-0.43252
-0.49875
-0.54715
-0.593
-0.60573
-0.57262
-0.48346
-0.32044
-0.11156
0.15335
0.45902
0.81564
1.185
1.5518
1.8753
2.1173
2.2625
2.3083
2.2396
2.1224
1.9313
1.7123
1.4677
1.2181
0.99395
0.7545
0.55327
0.37241
0.19411
0.064196
-0.063167
-0.1727
-0.2644
-0.34082
-0.39176
-0.44271
-0.47328
-0.45799
-0.38157
-0.22874
-0.024958
0.2425
0.58384
1.0092
1.4779
1.9262
2.3185
2.6267
2.828
2.8967
2.8534
2.7184
2.4892
2.2294
1.9313
1.6282
1.3047
1.0016
0.71884
0.45138
0.21958
0.018346
-0.1676
-0.31025
-0.44526
-0.55224
-0.64649
-0.71017
-0.75602
-0.75093
-0.68725
-0.55224
-0.36884
-0.10392
0.24505
0.67044
1.1264
1.5875
1.9899
2.2803
2.4815
2.5427
2.5045
2.3618
2.158
1.8931
1.6078
1.3124
1.0169
0.72648
0.46157
0.22722
0.010704
-0.16506
-0.32299
-0.46309
-0.57771
-0.66432
-0.73819
-0.78914
-0.82989
-0.81206
-0.74074
-0.60064
-0.3994
-0.1294
0.22722
0.6679
1.1417
1.6002
2.0205
2.3287
2.5172
2.5885
2.558
2.4153
2.2115
1.9441
1.669
1.376
1.0856
0.79526
0.52016
0.2909
0.071838
-0.11156
-0.2644
-0.4045
-0.50894
-0.593
-0.67196
-0.73055
-0.76621
-0.76621
-0.69743
-0.57007
-0.37393
-0.11156
0.21958
0.63478
1.0984
1.5492
1.9492
2.2574
2.4561
2.5147
2.4739
2.3491
2.1453
1.8804
1.6155
1.3353
1.05
0.77233
0.51251
0.28581
0.092216
-0.083545
-0.24402
-0.36374
-0.47073
-0.55988
-0.62866
-0.67451
-0.72036
-0.69489
-0.63121
-0.48856
-0.28733
-0.027505
0.30364
0.69082
1.129
1.5467
1.9084
2.1733
2.3313
2.3746
2.3211
2.1759
1.9695
1.725
1.455
1.1875
0.92772
0.67299
0.43355
0.21958
0.036177
-0.10902
-0.24912
-0.37138
-0.46818
-0.53696
-0.60573
-0.65923
-0.66177
-0.61592
-0.49365
-0.32553
-0.10138
0.16609
0.46666
0.79781
1.1264
1.4372
1.6664
1.8193
1.8778
1.8498
1.7454
1.5951
1.4193
1.2207
1.0118
0.81309
0.63224
0.46666
0.30619
0.16609
0.054007
-0.042789
-0.13704
-0.2211
-0.27459
-0.32808
-0.3612
-0.3612
-0.3077
-0.17525
0.015798
0.24505
0.49978
0.78507
1.0958
1.3939
1.6613
1.8651
2.0001
2.0536
2.023
1.9135
1.7632
1.5824
1.3913
1.1926
0.99395
0.808
0.64752
0.49214
0.35458
0.23232
0.12278
0.028535
-0.052978
-0.1243
-0.17525
-0.2211
-0.21345
-0.15487
-0.02241
0.17373
0.41572
0.70356
1.0449
1.4321
1.8167
2.158
2.4153
2.5682
2.6242
2.5682
2.4331
2.2192
1.9899
1.7199
1.4474
1.1824
0.92517
0.68573
0.47431
0.2909
0.12788
-0.02241
-0.14213
-0.25166
-0.34337
-0.41978
-0.47073
-0.5013
-0.48601
-0.38412
-0.22619
-0.0045796
0.26288
0.59148
0.96593
1.3378
1.6919
1.9594
2.1479
2.2243
2.1886
2.0816
1.9237
1.7072
1.4626
1.213
0.96847
0.73667
0.51761
0.33166
0.16354
0.0081567
-0.12175
-0.23129
-0.33572
-0.41214
-0.47837
-0.54205
-0.57771
-0.59045
-0.58026
-0.48601
-0.32553
-0.11411
0.15335
0.46157
0.82583
1.2105
1.5696
1.8778
2.0867
2.209
2.2166
2.1453
2.0027
1.8218
1.59
1.3658
1.1264
0.89715
0.69592
0.49978
0.32402
0.17882
0.031082
-0.086092
-0.17525
-0.26949
-0.34337
-0.40705
-0.46818
-0.50639
-0.51658
-0.5013
-0.43507
-0.30006
-0.093734
0.15335
0.43864
0.7596
1.1111
1.4474
1.7403
1.9772
2.0995
2.1453
2.102
1.9848
1.804
1.618
1.3888
1.1748
0.96083
0.76469
0.5711
0.40298
0.25779
0.12788
0.020893
-0.070808
-0.15487
-0.22619
-0.29751
-0.34591
-0.38922
-0.40959
-0.38667
-0.30516
-0.15996
0.038724
0.28071
0.5278
0.78762
1.0551
1.2843
1.4779
1.6282
1.6919
1.6995
1.6486
1.5467
1.4321
1.2792
1.1264
0.98376
0.83856
0.70356
0.56601
0.45138
0.35458
0.25524
0.17118
0.094763
0.028535
-0.040241
-0.091186
-0.13704
-0.15742
-0.15232
-0.091186
0.041271
0.22722
0.46921
0.72139
0.99904
1.2716
1.5289
1.7912
1.9848
2.1071
2.158
2.1377
2.0485
1.9033
1.7377
1.5594
1.3582
1.1773
1.0041
0.83347
0.68318
0.54053
0.40808
0.29854
0.19665
0.099858
0.015798
-0.05043
-0.10647
-0.15742
-0.17015
-0.12685
-0.019863
0.16099
0.37496
0.64497
0.94555
1.2792
1.6231
1.9364
2.1963
2.3746
2.4612
2.4357
2.3313
2.1504
1.939
1.697
1.4525
1.213
0.96083
0.74941
0.54053
0.36732
0.20684
0.074385
-0.058072
-0.15742
-0.25676
-0.33318
-0.39686
-0.4478
-0.48856
-0.49111
-0.44016
-0.31025
-0.11921
0.12533
0.42336
0.76469
1.1493
1.5314
1.8626
2.1377
2.3134
2.3746
2.3338
2.2115
2.0281
1.8065
1.562
1.3047
1.0576
0.82837
0.60676
0.41062
0.23996
0.082027
-0.055525
-0.17525
-0.27459
-0.35355
-0.42742
-0.49111
-0.5446
-0.58281
-0.59554
-0.58535
-0.51913
-0.37138
-0.16506
0.099858
0.40043
0.74177
1.1162
1.4907
1.8345
2.0944
2.2523
2.3032
2.2574
2.13
1.9543
1.7327
1.4958
1.2512
1.0169
0.79271
0.58893
0.39279
0.21958
0.082027
-0.05043
-0.15996
-0.25931
-0.33318
-0.40705
-0.47073
-0.51403
-0.54715
-0.56498
-0.52932
-0.42997
-0.28478
-0.070808
0.17882
0.44883
0.74431
1.0296
1.2996
1.5365
1.7123
1.8065
1.8193
1.7709
1.6639
1.5161
1.3506
1.1773
0.99649
0.83347
0.67044
0.53034
0.39534
0.27817
0.17628
0.076933
-0.0045796
-0.07845
-0.14213
-0.19562
-0.24402
-0.27968
-0.28733
-0.2644
-0.15487
-0.0020324
0.20939
0.46666
0.72394
1.0143
1.3174
1.6104
1.8829
2.0791
2.2064
2.2472
2.209
2.0893
1.9313
1.7403
1.5416
1.3327
1.1239
0.94555
0.76469
0.60422
0.44883
0.31892
0.20684
0.097311
0.0030622
-0.075903
-0.14213
-0.20327
-0.23893
-0.22874
-0.1676
-0.032599
0.17118
0.41572
0.69846
1.05
1.4372
1.8244
2.1555
2.4306
2.5885
2.6573
2.6089
2.479
2.288
2.0434
1.7734
1.4856
1.2105
0.95574
0.69337
0.46666
0.26798
0.092216
-0.060619
-0.19817
-0.30516
-0.39686
-0.48856
-0.55479
-0.60573
-0.62102
-0.5879
-0.47837
-0.31025
-0.093734
0.19665
0.53799
0.93791
1.3531
1.753
2.0893
2.3211
2.4484
2.4637
2.372
2.2192
1.9925
1.7479
1.4779
1.2028
0.93536
0.68063
0.44629
0.24505
0.05146
-0.11666
-0.25166
-0.3612
-0.47073
-0.54205
-0.62356
-0.66941
-0.71017
-0.73055
-0.71272
-0.64394
-0.5013
-0.29242
-0.019863
0.32656
0.74431
1.2207
1.6741
2.074
2.3847
2.5987
2.6802
2.6471
2.5172
2.3134
2.0612
1.776
1.4856
1.1977
0.90224
0.63224
0.39279
0.18137
-0.019863
-0.18544
-0.31025
-0.44016
-0.5395
-0.61083
-0.67706
-0.728
-0.76621
-0.76112
-0.71526
-0.593
-0.41978
-0.18289
0.099858
0.41062
0.78507
1.1468
1.4983
1.7734
1.9772
2.0612
2.0714
1.9797
1.8371
1.6359
1.427
1.1952
0.96083
0.75196
0.54053
0.37241
0.20684
0.056555
-0.058072
-0.16506
-0.25676
-0.33063
-0.39176
-0.44526
-0.47328
-0.48601
-0.42742
-0.30516
-0.13449
0.099858
0.37241
0.69592
1.0576
1.4244
1.7709
2.0612
2.2676
2.3669
2.3797
2.3007
2.1479
1.9364
1.7174
1.4677
1.2232
0.9914
0.76469
0.55582
0.37496
0.2043
0.056555
-0.060619
-0.16251
-0.25676
-0.32553
-0.37903
-0.41214
-0.42488
-0.35865
-0.22364
-0.030052
0.2476
0.6144
1.0806
1.59
2.0867
2.5223
2.8815
3.1082
3.2152
3.1922
3.0521
2.8407
2.5631
2.2472
1.8957
1.5543
1.213
0.88441
0.5711
0.28581
0.028535
-0.18798
-0.38412
-0.53441
-0.67451
-0.78914
-0.8732
-0.92669
-0.93688
-0.88848
-0.7764
-0.57007
-0.27968
0.12788
0.62969
1.1697
1.6919
2.1479
2.4994
2.7261
2.8152
2.7847
2.6344
2.4153
2.13
1.8218
1.4958
1.1621
0.83347
0.52016
0.23486
-0.032599
-0.26949
-0.47073
-0.64649
-0.78914
-0.90631
-0.99292
-1.077
-1.1254
-1.1661
-1.1661
-1.1534
-1.0515
-0.89867
-0.65668
-0.30516
0.17882
0.7596
1.3964
2.0027
2.5401
2.9579
3.233
3.3502
3.3323
3.1948
2.9655
2.6624
2.3211
1.9543
1.5849
1.2207
0.86404
0.51251
0.20175
-0.080997
-0.33572
-0.55479
-0.74583
-0.89612
-1.0337
-1.1254
-1.2069
-1.2502
-1.296
-1.3164
-1.3241
-1.2986
-1.2222
-1.0719
-0.85791
-0.57007
-0.17525
0.31638
0.89715
1.4881
2.0383
2.4765
2.8101
3.0012
3.0318
2.9528
2.7796
2.5248
2.2217
1.8906
1.5492
1.2156
0.8946
0.58638
0.296
0.05146
-0.17779
-0.37393
-0.53186
-0.65923
-0.77385
-0.85791
-0.91905
-0.97509
-1.0082
-1.0311
-1.0464
-1.026
-0.96999
-0.84518
-0.66432
-0.40705
-0.10902
0.2476
0.67809
1.1468
1.618
2.0154
2.3313
2.5376
2.6242
2.6064
2.4943
2.3185
2.0867
1.832
1.5492
1.2869
1.0143
0.76469
0.53289
0.32656
0.14571
-0.0045796
-0.14723
-0.25421
-0.35355
-0.42997
-0.49111
-0.54205
-0.57007
-0.60828
-0.59554
-0.53696
-0.42742
-0.24402
0.0005149
0.30619
0.7112
1.1723
1.669
2.1377
2.558
2.8738
3.0649
3.126
3.0827
2.9197
2.6828
2.4102
2.0918
1.7607
1.4372
1.1137
0.81054
0.5278
0.27052
0.056555
-0.14213
-0.30516
-0.44526
-0.55224
-0.64394
-0.72545
-0.78914
-0.8248
-0.86046
-0.87574
-0.84518
-0.73819
-0.59045
-0.3561
-0.052978
0.32147
0.78252
1.2818
1.7938
2.2319
2.6038
2.856
2.9655
2.9502
2.8407
2.6369
2.3695
2.0638
1.7479
1.427
1.1213
0.81819
0.53799
0.28071
0.061649
-0.13194
-0.30006
-0.44016
-0.55988
-0.65413
-0.73055
-0.79168
-0.83499
-0.8681
-0.88848
-0.89867
-0.85791
-0.7764
-0.60573
-0.39176
-0.093734
0.23232
0.66026
1.1111
1.5773
2.0128
2.3669
2.6064
2.7337
2.7388
2.6369
2.4561
2.2243
1.9441
1.6486
1.3658
1.0755
0.80545
0.55327
0.32911
0.13297
-0.035147
-0.18289
-0.31025
-0.42233
-0.51403
-0.593
-0.64649
-0.69234
-0.73055
-0.75857
-0.76621
-0.77385
-0.75857
-0.71781
-0.60064
-0.43761
-0.19053
0.097311
0.41572
0.7545
1.1264
1.4983
1.8371
2.1046
2.2854
2.3797
2.3567
2.2701
2.1224
1.9237
1.7046
1.4805
1.2614
1.0398
0.83602
0.65771
0.49214
0.34694
0.22467
0.099858
0.0030622
-0.080997
-0.15232
-0.2211
-0.27714
-0.32299
-0.36629
-0.37903
-0.39686
-0.37138
-0.3077
-0.19308
0.010704
0.2425
0.51761
0.79526
1.0958
1.3811
1.6588
1.8957
2.1071
2.2243
2.2676
2.2294
2.1351
1.995
1.8193
1.6282
1.4346
1.2359
1.0525
0.88441
0.7112
0.56855
0.43355
0.30873
0.20175
0.10495
0.031082
-0.047883
-0.11156
-0.16251
-0.21091
-0.25421
-0.26185
-0.23638
-0.13704
0.02344
0.24505
0.50487
0.80545
1.1442
1.4958
1.86
2.1835
2.4306
2.5962
2.6675
2.6369
2.5121
2.3389
2.1122
1.8549
1.5951
1.3378
1.0984
0.86913
0.65007
0.45902
0.28836
0.13807
0.0081567
-0.10647
-0.20327
-0.29751
-0.37138
-0.42742
-0.48856
-0.52167
-0.55479
-0.57262
-0.54969
-0.47073
-0.32808
-0.12175
0.13043
0.41827
0.73158
1.0729
1.4168
1.7301
2.0128
2.2141
2.3287
2.3364
2.2676
2.13
1.9364
1.7225
1.5034
1.2843
1.0576
0.84366
0.65771
0.48449
0.32656
0.19411
0.061649
-0.040241
-0.1294
-0.216
-0.29751
-0.3561
-0.40195
-0.44526
-0.47328
-0.50894
-0.50384
-0.48346
-0.40959
-0.25676
-0.05043
0.21194
0.49978
0.79781
1.0958
1.4066
1.697
1.9262
2.102
2.1861
2.1784
2.1046
1.967
1.7963
1.6053
1.4117
1.2079
1.0143
0.83347
0.67299
0.51761
0.37241
0.25524
0.14061
0.038724
-0.040241
-0.12685
-0.18289
-0.24657
-0.30261
-0.33827
-0.36629
-0.38667
-0.39431
-0.34591
-0.23893
-0.065714
0.15335
0.40043
0.67044
0.943
1.2003
1.4244
1.618
1.7556
1.8345
1.8677
1.8218
1.7403
1.6308
1.4856
1.3327
1.1977
1.0474
0.8997
0.77998
0.65771
0.54308
0.4361
0.33675
0.24505
0.17628
0.099858
0.038724
-0.019863
-0.063167
-0.11156
-0.14213
-0.1676
-0.14213
-0.083545
0.064196
0.2476
0.50232
0.7596
1.0347
1.3124
1.5747
1.8371
2.0485
2.1988
2.288
2.2905
2.2268
2.0944
1.9313
1.7403
1.5416
1.3531
1.1468
0.96847
0.79271
0.63224
0.48959
0.35713
0.23232
0.14316
0.041271
-0.047883
-0.11921
-0.18034
-0.23383
-0.27204
-0.27459
-0.24402
-0.13449
0.028535
0.23486
0.48449
0.76469
1.0551
1.3429
1.6155
1.8473
2.0256
2.1275
2.1479
2.0918
1.9594
1.7989
1.6002
1.4015
1.185
0.9914
0.8029
0.62969
0.47685
0.32402
0.1992
0.089669
-0.019863
-0.10647
-0.18289
-0.24912
-0.31535
-0.3612
-0.40705
-0.43761
-0.44016
-0.40195
-0.28987
-0.11921
0.11259
0.38515
0.67809
1.0092
1.348
1.6741
1.9568
2.1759
2.3032
2.3414
2.2854
2.1682
1.995
1.7887
1.5645
1.3429
1.1162
0.90224
0.70865
0.52525
0.36477
0.21958
0.092216
-0.019863
-0.12175
-0.19308
-0.26695
-0.34337
-0.38922
-0.42997
-0.46309
-0.46563
-0.42742
-0.32553
-0.17015
0.056555
0.296
0.57365
0.85385
1.1137
1.3786
1.5976
1.776
1.8753
1.9059
1.8473
1.753
1.6155
1.4575
1.2843
1.1137
0.943
0.77998
0.62205
0.47685
0.35713
0.24505
0.14571
0.054007
-0.030052
-0.10647
-0.16506
-0.21855
-0.25676
-0.28478
-0.30261
-0.29497
-0.216
-0.070808
0.13552
0.3826
0.66026
0.95064
1.2334
1.5187
1.7836
2.0128
2.1708
2.2497
2.2396
2.1631
2.0205
1.8524
1.646
1.4372
1.2334
1.0322
0.8513
0.67044
0.51761
0.37751
0.26034
0.13807
0.041271
-0.042789
-0.11411
-0.1727
-0.22874
-0.27714
-0.28478
-0.24147
-0.14213
0.02344
0.2425
0.49978
0.80545
1.1417
1.4983
1.8524
2.1606
2.3924
2.5223
2.5554
2.4892
2.3491
2.1555
1.9237
1.6562
1.3888
1.1264
0.87168
0.64752
0.44629
0.2476
0.089669
-0.055525
-0.18289
-0.28733
-0.38412
-0.46054
-0.51658
-0.56243
-0.60064
-0.60828
-0.55988
-0.45035
-0.25931
-0.012221
0.29345
0.66535
1.0882
1.5365
1.9441
2.288
2.5401
2.6777
2.7006
2.6166
2.4357
2.209
1.9313
1.6537
1.3429
1.0653
0.77488
0.51506
0.28581
0.076933
-0.088639
-0.24657
-0.38157
-0.48856
-0.58281
-0.65158
-0.71272
-0.76112
-0.80442
-0.83753
-0.83244
-0.78404
-0.66687
-0.47328
-0.22874
0.089669
0.45138
0.88951
1.3608
1.8091
2.1937
2.4815
2.6649
2.7184
2.6599
2.5172
2.3083
2.0562
1.7683
1.4754
1.1875
0.90479
0.63988
0.40043
0.19156
0.010704
-0.15487
-0.29242
-0.4045
-0.49875
-0.57771
-0.65158
-0.70508
-0.74583
-0.7764
-0.77385
-0.73055
-0.62102
-0.44016
-0.21345
0.082027
0.44629
0.86404
1.3098
1.7454
2.1071
2.3924
2.5758
2.6216
2.5605
2.4179
2.2141
1.9568
1.6817
1.4015
1.1188
0.84366
0.59403
0.36477
0.17373
-0.0096741
-0.15487
-0.27968
-0.38412
-0.48092
-0.55733
-0.61337
-0.67196
-0.69743
-0.70762
-0.67196
-0.56752
-0.40705
-0.18798
0.071838
0.38006
0.71884
1.0958
1.4575
1.7963
2.046
2.2064
2.265
2.237
2.1173
1.9441
1.7301
1.5034
1.2614
1.022
0.79781
0.58893
0.40043
0.23486
0.087122
-0.037694
-0.14213
-0.22874
-0.30006
-0.36374
-0.41724
-0.46309
-0.48092
-0.46309
-0.38412
-0.22874
-0.02241
0.24505
0.56855
0.97357
1.4142
1.86
2.2625
2.5885
2.8152
2.9146
2.8967
2.7847
2.5987
2.3516
2.0638
1.7683
1.4575
1.157
0.86404
0.59912
0.34949
0.13297
-0.045336
-0.20327
-0.34337
-0.45799
-0.55224
-0.63121
-0.69998
-0.74583
-0.75347
-0.72291
-0.60573
-0.42997
-0.17015
0.16099
0.59657
1.0806
1.5875
2.0638
2.4561
2.7439
2.8942
2.9375
2.8407
2.6675
2.4153
2.13
1.8091
1.4856
1.1646
0.84111
0.54053
0.27052
0.033629
-0.19308
-0.37138
-0.52167
-0.65668
-0.75857
-0.84518
-0.91395
-0.96744
-0.99546
-0.98018
-0.91395
-0.76366
-0.5395
-0.25421
0.12024
0.57874
1.1009
1.6206
2.0867
2.4637
2.7159
2.8484
2.8407
2.7261
2.5274
2.2676
1.9746
1.6562
1.3378
1.0271
0.71375
0.42336
0.17373
-0.065714
-0.25676
-0.42488
-0.57771
-0.68215
-0.78659
-0.86046
-0.91905
-0.96744
-0.99292
-0.97254
-0.89867
-0.74838
-0.52932
-0.24147
0.13552
0.59148
1.1086
1.6078
2.0638
2.423
2.6675
2.7821
2.777
2.6548
2.4561
2.1988
1.9059
1.5926
1.2741
0.96593
0.6628
0.39025
0.15335
-0.055525
-0.24657
-0.40705
-0.54205
-0.64139
-0.73819
-0.80187
-0.86301
-0.90631
-0.92159
-0.89612
-0.80697
-0.64394
-0.41978
-0.16251
0.16863
0.54563
0.94555
1.3531
1.7174
2.0052
2.2039
2.2752
2.2727
2.1657
2.0027
1.7887
1.5518
1.3124
1.0602
0.81564
0.59148
0.38515
0.20175
0.054007
-0.086092
-0.20581
-0.28733
-0.37903
-0.44526
-0.49111
-0.53186
-0.55988
-0.53696
-0.46563
-0.32553
-0.1294
0.12788
0.44629
0.82583
1.2334
1.6562
2.0562
2.3797
2.614
2.721
2.7414
2.6446
2.479
2.2574
1.995
1.7174
1.4193
1.1468
0.87422
0.62969
0.39279
0.19411
0.0081567
-0.13449
-0.26949
-0.37138
-0.46309
-0.53186
-0.593
-0.62611
-0.62102
-0.55224
-0.41978
-0.20836
0.064196
0.41827
0.8513
1.3251
1.7938
2.209
2.5401
2.7617
2.8534
2.8178
2.6904
2.4866
2.2294
1.9313
1.6257
1.3149
1.0041
0.71629
0.44374
0.19411
-0.019863
-0.20327
-0.36629
-0.49111
-0.61337
-0.70508
-0.76366
-0.83753
-0.87065
-0.87829
-0.82989
-0.69998
-0.50894
-0.25166
0.076933
0.49978
0.97866
1.4677
1.911
2.2701
2.535
2.6675
2.6802
2.5783
2.4
2.1606
1.8931
1.5875
1.2971
1.0016
0.71884
0.45393
0.21703
-0.0020324
-0.18289
-0.32808
-0.46563
-0.57007
-0.66177
-0.73819
-0.78404
-0.82989
-0.85027
-0.81461
-0.72291
-0.56243
-0.34591
-0.052978
0.30109
0.71884
1.1824
1.6206
2.0027
2.288
2.4663
2.5096
2.4663
2.3211
2.1046
1.8626
1.5875
1.3098
1.0271
0.7596
0.50997
0.29854
0.10241
-0.080997
-0.21855
-0.35101
-0.45544
-0.53186
-0.60064
-0.65413
-0.69743
-0.72036
-0.72291
-0.65923
-0.51913
-0.32808
-0.091186
0.20684
0.54818
0.90989
1.292
1.646
1.939
2.1453
2.2523
2.2574
2.181
2.0281
1.8371
1.6129
1.3811
1.1468
0.92008
0.71375
0.51761
0.34185
0.18137
0.046366
-0.07845
-0.17015
-0.25676
-0.32553
-0.37903
-0.42742
-0.45035
-0.46054
-0.40705
-0.28733
-0.10647
0.14061
0.43355
0.78507
1.1799
1.6078
2.0078
2.3465
2.586
2.7312
2.7516
2.6802
2.5096
2.2981
2.0434
1.7581
1.4805
1.2003
0.93281
0.68063
0.45138
0.24505
0.076933
-0.073356
-0.20581
-0.32553
-0.41469
-0.49111
-0.54969
-0.593
-0.61083
-0.59045
-0.48092
-0.30516
-0.07845
0.21194
0.5711
0.98121
1.4244
1.8396
2.1988
2.4459
2.5936
2.6115
2.5376
2.3644
2.1428
1.8753
1.59
1.3022
1.0118
0.74686
0.49978
0.28581
0.082027
-0.093734
-0.23383
-0.36374
-0.47073
-0.54969
-0.62356
-0.67196
-0.72291
-0.76112
-0.79168
-0.79678
-0.76366
-0.67196
-0.52167
-0.29497
-0.0096741
0.33166
0.73413
1.1697
1.6027
2.0103
2.3414
2.5554
2.6573
2.642
2.5198
2.3389
2.1096
1.8447
1.5773
1.292
1.0296
0.77488
0.55582
0.34694
0.15844
0.0081567
-0.12175
-0.24402
-0.34591
-0.43252
-0.5013
-0.55988
-0.61337
-0.64904
-0.66941
-0.69998
-0.69489
-0.65668
-0.57517
-0.43761
-0.216
0.046366
0.35713
0.68063
1.0194
1.3531
1.669
1.9339
2.1173
2.2064
2.1912
2.1198
1.9899
1.7989
1.6155
1.3964
1.1952
1.0041
0.81054
0.64242
0.49214
0.34185
0.22977
0.12024
0.02344
-0.065714
-0.13194
-0.20072
-0.26185
-0.30006
-0.33572
-0.36884
-0.39176
-0.39686
-0.39431
-0.33063
-0.21345
-0.02241
0.21703
0.49214
0.77743
1.0602
1.3302
1.5696
1.781
1.9313
2.0281
2.0587
2.0205
1.9364
1.804
1.6613
1.5085
1.3455
1.1901
1.0372
0.88696
0.75705
0.62459
0.50232
0.39789
0.30873
0.21958
0.14316
0.069291
0.010704
-0.027505
-0.080997
-0.1243
-0.15232
-0.15232
-0.10138
0.0030622
0.17118
0.39025
0.6628
0.93281
1.2181
1.4805
1.7352
1.9695
2.1504
2.2523
2.2778
2.2268
2.1096
1.9492
1.7734
1.5773
1.3811
1.1824
0.99649
0.83092
0.67299
0.53289
0.39534
0.27307
0.16863
0.07948
-0.0020324
-0.083545
-0.15742
-0.21091
-0.25676
-0.28733
-0.28478
-0.20836
-0.086092
0.10495
0.33421
0.59657
0.88187
1.1417
1.4041
1.6359
1.8116
1.9364
1.9976
1.9721
1.8829
1.7632
1.6053
1.4244
1.2461
1.078
0.90734
0.74177
0.59403
0.45647
0.32402
0.20939
0.1075
0.020893
-0.060619
-0.1294
-0.19562
-0.24147
-0.29497
-0.32808
-0.33063
-0.29242
-0.20072
-0.030052
0.19156
0.43864
0.72648
0.98885
1.2741
1.5136
1.7428
1.9084
2.0052
2.0205
1.9645
1.8575
1.7174
1.5442
1.3658
1.185
1.0143
0.84366
0.68573
0.54053
0.40298
0.29854
0.18392
0.089669
0.0030622
-0.075903
-0.14213
-0.20836
-0.24912
-0.27714
-0.28223
-0.22874
-0.11666
0.076933
0.296
0.54308
0.79271
1.0169
1.2436
1.4346
1.59
1.6817
1.725
1.6919
1.6308
1.5263
1.4066
1.2741
1.1239
0.98376
0.84366
0.70356
0.58638
0.4794
0.36223
0.28071
0.19156
0.12278
0.056555
-0.0071269
-0.063167
-0.098828
-0.1243
-0.11156
-0.035147
0.092216
0.29345
0.53034
0.79017
1.0602
1.3429
1.6129
1.8651
2.0816
2.2319
2.3109
2.3058
2.2217
2.0842
1.911
1.7021
1.483
1.2716
1.0704
0.87677
0.69592
0.53289
0.38515
0.24505
0.12788
0.028535
-0.070808
-0.15487
-0.22364
-0.26949
-0.28987
-0.26185
-0.16506
0.0005149
0.21703
0.47431
0.77488
1.1213
1.4728
1.8091
2.1046
2.3134
2.4306
2.4382
2.3465
2.1912
1.9823
1.7403
1.483
1.2334
0.97102
0.72394
0.50997
0.30364
0.12788
-0.019863
-0.15232
-0.2644
-0.37393
-0.45035
-0.52677
-0.58281
-0.62866
-0.64394
-0.61083
-0.50639
-0.34082
-0.11156
0.16609
0.50232
0.89206
1.2818
1.6639
1.995
2.2396
2.3898
2.4077
2.3465
2.2064
1.9925
1.7556
1.4881
1.2232
0.95828
0.70356
0.4794
0.27307
0.097311
-0.063167
-0.19562
-0.31789
-0.42488
-0.50894
-0.57517
-0.63121
-0.68979
-0.71272
-0.71272
-0.65668
-0.53696
-0.33827
-0.098828
0.2043
0.53289
0.90989
1.2945
1.6664
1.9517
2.1708
2.265
2.2752
2.1861
2.0307
1.8244
1.59
1.3455
1.0984
0.85894
0.62205
0.42591
0.2476
0.087122
-0.052978
-0.17779
-0.28223
-0.37138
-0.44526
-0.50894
-0.55224
-0.593
-0.60573
-0.57007
-0.46309
-0.30261
-0.073356
0.17882
0.46157
0.7596
1.0831
1.3811
1.6333
1.8244
1.9288
1.9466
1.8931
1.7709
1.6078
1.4142
1.2308
1.0271
0.83347
0.65261
0.49214
0.33421
0.21448
0.087122
-0.0020324
-0.088639
-0.17525
-0.22364
-0.27714
-0.32553
-0.34846
-0.35101
-0.29497
-0.1676
0.025987
0.25269
0.54053
0.84111
1.1723
1.5187
1.86
2.1351
2.3338
2.4357
2.4408
2.3695
2.2115
2.0205
1.7938
1.5442
1.3073
1.0704
0.84366
0.63478
0.44374
0.28836
0.14316
0.025987
-0.080997
-0.17779
-0.25931
-0.32299
-0.37903
-0.4045
-0.37138
-0.28223
-0.12685
0.10241
0.37496
0.70865
1.1035
1.5187
1.9186
2.2421
2.4943
2.6369
2.6649
2.586
2.4306
2.2013
1.9492
1.6588
1.3684
1.0856
0.81564
0.56091
0.3393
0.13297
-0.037694
-0.19308
-0.32808
-0.43507
-0.53186
-0.61592
-0.66432
-0.70253
-0.67451
-0.5879
-0.43252
-0.21091
0.069291
0.40553
0.82583
1.2538
1.6613
1.995
2.2497
2.3949
2.423
2.3364
2.1861
1.9772
1.725
1.4474
1.1723
0.8946
0.64242
0.40553
0.19156
0.0005149
-0.15996
-0.30006
-0.41978
-0.51913
-0.60573
-0.66687
-0.71526
-0.74583
-0.7331
-0.64904
-0.48856
-0.27459
0.013251
0.35968
0.77233
1.2181
1.646
2.0179
2.2981
2.4561
2.507
2.4408
2.288
2.0816
1.832
1.5543
1.2665
0.99395
0.72139
0.4794
0.25779
0.056555
-0.11156
-0.24912
-0.37903
-0.47328
-0.56243
-0.63375
-0.6796
-0.71526
-0.70508
-0.63121
-0.48856
-0.27204
0.0005149
0.33421
0.73667
1.1799
1.6027
1.9721
2.2396
2.4179
2.4663
2.4051
2.2599
2.0638
1.8218
1.5492
1.2818
1.0092
0.74941
0.50232
0.28836
0.11259
-0.052978
-0.20072
-0.32044
-0.42233
-0.50384
-0.58026
-0.63121
-0.64904
-0.62102
-0.51658
-0.35355
-0.11411
0.18137
0.55072
0.97357
1.4091
1.8091
2.1351
2.3542
2.4459
2.4433
2.3262
2.1555
1.9135
1.646
1.3633
1.0806
0.81309
0.55072
0.31383
0.11259
-0.060619
-0.2211
-0.34591
-0.4529
-0.54969
-0.63121
-0.68725
-0.70508
-0.6847
-0.57517
-0.41469
-0.18798
0.087122
0.42845
0.80545
1.1926
1.5543
1.8651
2.0714
2.1759
2.1708
2.0893
1.9313
1.7199
1.4856
1.241
0.98885
0.74431
0.53034
0.3393
0.16099
0.015798
-0.12175
-0.23638
-0.31535
-0.40195
-0.46309
-0.50894
-0.52167
-0.49365
-0.38412
-0.21345
0.015798
0.30109
0.65771
1.0704
1.4932
1.8957
2.2396
2.4815
2.6191
2.6497
2.5631
2.4077
2.181
1.9237
1.6409
1.3684
1.0831
0.82328
0.5762
0.34949
0.16099
-0.0096741
-0.16251
-0.28478
-0.39176
-0.47582
-0.54969
-0.59554
-0.58026
-0.5013
-0.35101
-0.11156
0.1992
0.6195
1.129
1.6384
2.1224
2.5274
2.8203
2.9808
3.0037
2.9171
2.7337
2.479
2.1784
1.8524
1.5059
1.1723
0.8513
0.53544
0.25779
0.0005149
-0.2211
-0.41214
-0.57007
-0.69743
-0.81716
-0.90121
-0.97509
-1.0006
-0.99292
-0.92669
-0.77385
-0.54969
-0.24147
0.16354
0.65516
1.1773
1.6639
2.0791
2.3898
2.5809
2.6344
2.5758
2.4077
2.1759
1.9059
1.6053
1.2945
0.97866
0.68318
0.41062
0.15844
-0.070808
-0.27714
-0.44016
-0.57262
-0.69234
-0.78659
-0.8681
-0.92669
-0.96744
-0.99801
-0.98527
-0.93178
-0.79932
-0.59809
-0.33572
0.0030622
0.41827
0.89715
1.3786
1.8193
2.1784
2.4204
2.5401
2.5376
2.4408
2.2497
2.0256
1.753
1.4677
1.1773
0.8946
0.63733
0.39279
0.17628
-0.0096741
-0.18034
-0.32299
-0.42742
-0.53186
-0.60573
-0.6847
-0.73564
-0.76876
-0.78149
-0.76366
-0.69489
-0.5446
-0.32553
-0.068261
0.23741
0.56855
0.91753
1.2741
1.5773
1.8193
1.9645
2.0179
1.9772
1.8778
1.7148
1.5314
1.3225
1.1035
0.90989
0.70611
0.53544
0.38006
0.24505
0.11769
0.0030622
-0.080997
-0.16251
-0.22874
-0.29497
-0.33318
-0.36884
-0.39686
-0.37648
-0.28478
-0.13449
0.07948
0.32656
0.60167
0.90479
1.1977
1.4881
1.7454
1.9364
2.0536
2.0893
2.046
1.9364
1.7836
1.6129
1.427
1.2334
1.0474
0.86913
0.71375
0.55836
0.42845
0.30109
0.2043
0.10495
0.02344
-0.042789
-0.10647
-0.15996
-0.20327
-0.22364
-0.19053
-0.10392
0.069291
0.28326
0.54563
0.8462
1.157
1.5034
1.8447
2.1402
2.3669
2.4917
2.5172
2.4561
2.3211
2.1249
1.9008
1.6562
1.4117
1.1723
0.94045
0.73413
0.54308
0.37241
0.22722
0.089669
-0.030052
-0.1243
-0.21855
-0.28733
-0.35101
-0.4045
-0.44271
-0.45544
-0.39686
-0.27968
-0.088639
0.14826
0.42845
0.73158
1.0576
1.4041
1.7199
1.9797
2.158
2.237
2.2217
2.1173
1.967
1.7683
1.5518
1.3251
1.1035
0.88951
0.68827
0.50742
0.33675
0.20175
0.066744
-0.042789
-0.13449
-0.21855
-0.29242
-0.35355
-0.40195
-0.45035
-0.48346
-0.49875
-0.46054
-0.35355
-0.19308
0.033629
0.30873
0.60676
0.90989
1.2156
1.5187
1.7887
1.9874
2.0969
2.1071
2.0587
1.939
1.7861
1.5976
1.3862
1.1926
0.99904
0.81564
0.65261
0.49978
0.35204
0.23741
0.11259
0.02344
-0.068261
-0.13704
-0.20836
-0.25931
-0.31025
-0.35101
-0.37903
-0.37903
-0.33572
-0.22364
-0.042789
0.19156
0.45902
0.72903
1.0194
1.292
1.5442
1.7632
1.9186
1.9848
1.9848
1.9211
1.804
1.6537
1.4907
1.3098
1.129
0.96593
0.79781
0.63988
0.50997
0.38515
0.27052
0.16863
0.082027
-0.0020324
-0.068261
-0.13704
-0.19562
-0.23383
-0.27459
-0.30261
-0.28478
-0.23129
-0.093734
0.097311
0.33675
0.59148
0.85639
1.0958
1.3149
1.5059
1.6537
1.7428
1.7581
1.7352
1.6639
1.5671
1.4372
1.3073
1.1799
1.0322
0.90989
0.77743
0.65261
0.54818
0.44629
0.34694
0.26798
0.19156
0.12024
0.074385
0.0081567
-0.030052
-0.07845
-0.093734
-0.070808
0.015798
0.15844
0.36477
0.61695
0.87422
1.1417
1.4066
1.6537
1.8804
2.0562
2.1784
2.2243
2.1963
2.1071
1.9619
1.7938
1.6027
1.4193
1.2232
1.0398
0.86658
0.69846
0.55836
0.42845
0.30619
0.19665
0.10241
0.010704
-0.060619
-0.12685
-0.18544
-0.22874
-0.21855
-0.15996
-0.024958
0.17373
0.40808
0.67554
0.97357
1.2843
1.59
1.8804
2.1198
2.2701
2.3313
2.3007
2.2013
2.0332
1.8218
1.6002
1.3633
1.1366
0.90224
0.69337
0.51251
0.34694
0.18901
0.048913
-0.058072
-0.16506
-0.26185
-0.33063
-0.39176
-0.4529
-0.48856
-0.53186
-0.54205
-0.50894
-0.40705
-0.24402
-0.014769
0.26798
0.57874
0.92772
1.3047
1.6741
2.0179
2.2752
2.4382
2.4917
2.4561
2.3338
2.1479
1.9288
1.6741
1.4193
1.1646
0.91243
0.68063
0.47431
0.28836
0.13297
-0.012221
-0.13704
-0.24657
-0.33318
-0.41469
-0.47582
-0.53186
-0.57007
-0.61083
-0.62356
-0.5879
-0.47582
-0.32044
-0.086092
0.18137
0.47176
0.78507
1.1188
1.4575
1.7428
1.9721
2.1071
2.1529
2.1198
2.0052
1.832
1.6308
1.4117
1.1901
0.97866
0.76724
0.5711
0.39534
0.25015
0.1075
-0.012221
-0.10902
-0.20072
-0.28223
-0.34846
-0.4045
-0.44526
-0.47328
-0.48856
-0.46563
-0.39686
-0.24147
-0.030052
0.21958
0.48704
0.77998
1.0602
1.3404
1.5926
1.7989
1.9339
1.9797
1.9619
1.8728
1.7403
1.5671
1.3811
1.1952
1.0016
0.82328
0.66535
0.51761
0.37496
0.25524
0.13297
0.041271
-0.032599
-0.11156
-0.16506
-0.21345
-0.25931
-0.27968
-0.27204
-0.20836
-0.058072
0.14316
0.37751
0.64497
0.95064
1.2741
1.5824
1.8931
2.1479
2.3338
2.4204
2.423
2.344
2.1912
2.0128
1.7887
1.5467
1.3098
1.078
0.86658
0.67044
0.47431
0.30873
0.17373
0.048913
-0.060619
-0.15232
-0.23129
-0.30006
-0.3612
-0.39431
-0.38412
-0.30006
-0.15487
0.059102
0.33421
0.68573
1.0882
1.5238
1.9543
2.3313
2.6242
2.8
2.8738
2.8254
2.6879
2.4688
2.2064
1.9084
1.5976
1.2945
0.98376
0.7112
0.44119
0.20175
0.0005149
-0.18289
-0.33572
-0.46818
-0.58281
-0.67451
-0.74838
-0.80697
-0.85027
-0.85536
-0.81461
-0.70508
-0.52932
-0.26695
0.048913
0.46412
0.93791
1.4423
1.9161
2.3236
2.6191
2.7974
2.8407
2.7719
2.6038
2.3822
2.102
1.8065
1.4881
1.1799
0.87422
0.57365
0.30619
0.069291
-0.15742
-0.32808
-0.48092
-0.61592
-0.72291
-0.80697
-0.88084
-0.93178
-0.95725
-0.9649
-0.93178
-0.82734
-0.6363
-0.39686
-0.07845
0.32402
0.79526
1.2996
1.7785
2.1759
2.4943
2.6726
2.7312
2.6802
2.5223
2.3058
2.0383
1.7454
1.4346
1.1188
0.82583
0.54053
0.28581
0.056555
-0.14468
-0.31535
-0.46309
-0.58026
-0.68215
-0.76366
-0.83244
-0.87574
-0.89867
-0.89357
-0.82989
-0.70508
-0.50894
-0.24912
0.071838
0.46921
0.90479
1.3557
1.7632
2.0969
2.3414
2.4739
2.4866
2.3975
2.2319
2.0205
1.7683
1.4983
1.2181
0.95064
0.69846
0.45902
0.22977
0.046366
-0.11411
-0.2644
-0.38157
-0.47328
-0.5446
-0.61083
-0.65668
-0.67706
-0.66432
-0.56243
-0.40705
-0.18289
0.11769
0.51761
0.9863
1.483
1.9645
2.3847
2.7184
2.9477
3.0445
3.019
2.8891
2.6904
2.4255
2.1402
1.8218
1.5059
1.1799
0.85894
0.57365
0.30619
0.059102
-0.16251
-0.33572
-0.49875
-0.63121
-0.74328
-0.83244
-0.88593
-0.90886
-0.86555
-0.74583
-0.53441
-0.20327
0.25015
0.8029
1.4142
2.0078
2.5299
2.9502
3.2483
3.4062
3.424
3.3196
3.0954
2.8101
2.4765
2.1198
1.7352
1.348
0.98121
0.61695
0.27817
-0.027505
-0.31535
-0.57007
-0.77385
-0.96235
-1.1177
-1.2324
-1.3241
-1.3877
-1.3979
-1.3368
-1.184
-0.93942
-0.55988
-0.027505
0.60931
1.2792
1.9135
2.4714
2.8993
3.1973
3.34
3.3553
3.2203
2.9884
2.7006
2.3465
1.9797
1.59
1.1977
0.82837
0.46157
0.12024
-0.19562
-0.48346
-0.73819
-0.9598
-1.1508
-1.3011
-1.3877
-1.3903
-1.3954
-1.3928
-1.3928
-1.3852
-1.3088
-1.1228
-0.79168
-0.29242
0.34694
1.0576
1.7632
2.3949
2.9197
3.2916
3.5208
3.5794
3.503
3.3069
3.0267
2.6777
2.3032
1.9084
1.4983
1.1086
0.7112
0.34694
0.0030622
-0.3128
-0.5879
-0.83499
-1.0515
-1.2273
-1.3674
-1.3928
-1.3928
-1.3979
-1.3954
-1.3903
-1.3088
-1.1356
-0.85282
-0.43761
0.097311
0.67809
1.2843
1.8142
2.2676
2.5885
2.7821
2.8254
2.7516
2.5885
2.3414
2.0434
1.7301
1.3964
1.0627
0.73413
0.41827
0.13043
-0.13194
-0.37903
-0.58026
-0.74328
-0.88593
-1.0006
-1.0897
-1.1432
-1.1814
-1.1636
-1.0795
-0.9165
-0.64139
-0.24147
0.28836
0.92008
1.5747
2.209
2.7592
3.1897
3.4903
3.6456
3.6278
3.5081
3.2737
2.9834
2.6318
2.2447
1.8473
1.4601
1.0806
0.70865
0.35713
0.02344
-0.27714
-0.53696
-0.7713
-0.9649
-1.1305
-1.2655
-1.3546
-1.3928
-1.3903
-1.3062
-1.1075
-0.78659
-0.28223
0.37496
1.0958
1.8091
2.4281
2.9579
3.3323
3.5641
3.6329
3.5641
3.3603
3.0674
2.7286
2.3364
1.9135
1.5059
1.0984
0.69592
0.31383
-0.032599
-0.36629
-0.66177
-0.92669
-1.1534
-1.3342
-1.3928
-1.3903
-1.3877
-1.3877
-1.3979
-1.3928
-1.3342
-1.1381
-0.76366
-0.20836
0.48449
1.2385
1.9517
2.5732
3.0623
3.3986
3.5896
3.5972
3.4801
3.2483
2.935
2.5682
2.1708
1.7607
1.3429
0.943
0.55836
0.18137
-0.1676
-0.47582
-0.75602
-0.99801
-1.2145
-1.375
-1.3928
-1.3928
-1.3852
-1.3903
-1.3852
-1.3852
-1.3419
-1.1712
-0.87065
-0.41724
0.18137
0.8513
1.5187
2.1198
2.614
2.9655
3.1693
3.2101
3.1107
2.9018
2.6318
2.2905
1.9313
1.5492
1.1697
0.80035
0.44883
0.12278
-0.18034
-0.4478
-0.67196
-0.86301
-1.0286
-1.1534
-1.2527
-1.3241
-1.375
-1.3954
-1.3852
-1.3164
-1.1712
-0.95471
-0.63885
-0.23638
0.26798
0.84366
1.4219
1.9594
2.4102
2.7184
2.912
2.9528
2.8789
2.7108
2.4714
2.1835
1.8804
1.5416
1.2308
0.90479
0.60167
0.32656
0.066744
-0.14213
-0.34591
-0.50384
-0.62356
-0.7331
-0.82225
-0.87574
-0.9165
-0.94197
-0.91395
-0.82225
-0.65413
-0.3994
-0.052978
0.41062
0.97866
1.5849
2.1733
2.6879
3.1005
3.3654
3.503
3.4928
3.3527
3.1285
2.828
2.4739
2.0995
1.7225
1.3429
0.97612
0.62459
0.30873
0.020893
-0.22619
-0.45035
-0.64139
-0.79423
-0.92159
-1.0082
-1.0846
-1.1407
-1.1687
-1.1228
-1.0107
-0.80951
-0.52932
-0.14977
0.34439
0.92262
1.5034
2.0511
2.5045
2.8356
3.0114
3.0623
2.9706
2.7872
2.5121
2.1937
1.86
1.5034
1.1519
0.81564
0.49214
0.19156
-0.063167
-0.30006
-0.48856
-0.66432
-0.79423
-0.90376
-0.98782
-1.049
-1.105
-1.1432
-1.1559
-1.1305
-1.0464
-0.88848
-0.65158
-0.33572
0.038724
0.51761
1.0551
1.5976
2.0867
2.4943
2.7617
2.8993
2.9095
2.7974
2.5987
2.3389
2.0536
1.7301
1.4168
1.0958
0.79017
0.52016
0.26543
0.036177
-0.15742
-0.31535
-0.4478
-0.57262
-0.66177
-0.7331
-0.79423
-0.84518
-0.88338
-0.89612
-0.86301
-0.7764
-0.60573
-0.37138
-0.086092
0.23232
0.59148
0.99904
1.3964
1.7505
2.0383
2.2243
2.3083
2.2956
2.1861
2.0128
1.804
1.5798
1.3327
1.106
0.87932
0.67554
0.48449
0.32147
0.17118
0.041271
-0.075903
-0.15996
-0.25421
-0.31789
-0.38412
-0.42742
-0.45544
-0.46818
-0.44016
-0.34591
-0.1676
0.071838
0.32656
0.62205
0.92262
1.2283
1.5212
1.7887
1.9874
2.1096
2.1453
2.0969
1.995
1.8371
1.6664
1.4754
1.2792
1.0907
0.91753
0.73922
0.59657
0.46412
0.33675
0.23232
0.13807
0.056555
-0.027505
-0.091186
-0.14213
-0.18544
-0.20327
-0.18544
-0.10392
0.054007
0.26034
0.53034
0.83347
1.1824
1.5442
1.9186
2.2447
2.507
2.6853
2.7388
2.7083
2.5834
2.3847
2.1377
1.8855
1.6129
1.3404
1.0882
0.84366
0.63224
0.42591
0.26288
0.11005
-0.030052
-0.14723
-0.24147
-0.32553
-0.40195
-0.47073
-0.4962
-0.47582
-0.39176
-0.24402
-0.02241
0.2425
0.54563
0.87932
1.2487
1.6002
1.9033
2.1377
2.2574
2.2854
2.237
2.0995
1.9059
1.6817
1.4474
1.213
0.97357
0.74686
0.54563
0.37496
0.20939
0.069291
-0.070808
-0.18034
-0.26949
-0.35865
-0.42742
-0.47837
-0.53186
-0.55988
-0.54969
-0.49111
-0.34591
-0.13449
0.13552
0.44374
0.77488
1.1468
1.5034
1.832
2.0944
2.2625
2.3338
2.2981
2.1886
2.0281
1.8218
1.5951
1.3506
1.1366
0.91753
0.70101
0.5278
0.35713
0.20939
0.064196
-0.052978
-0.14977
-0.23129
-0.31789
-0.38667
-0.44271
-0.47328
-0.47328
-0.40959
-0.28223
-0.083545
0.1559
0.431
0.73413
1.0653
1.3837
1.6664
1.9008
2.0562
2.1071
2.0765
1.9797
1.8218
1.6384
1.4295
1.2283
1.022
0.81309
0.64752
0.47685
0.32911
0.1992
0.084574
-0.027505
-0.11666
-0.20072
-0.26185
-0.33063
-0.36374
-0.39176
-0.37648
-0.28733
-0.1243
0.094763
0.34694
0.62205
0.92772
1.2283
1.5289
1.7836
1.9772
2.0893
2.1224
2.0765
1.9492
1.7912
1.6053
1.4066
1.2105
1.0016
0.82328
0.65007
0.49214
0.35968
0.22213
0.11769
0.02344
-0.063167
-0.13449
-0.19053
-0.24912
-0.27968
-0.27204
-0.19562
-0.068261
0.14061
0.3877
0.69082
1.0423
1.4193
1.8142
2.181
2.4637
2.6599
2.7414
2.7337
2.6064
2.4255
2.1937
1.9211
1.6409
1.3531
1.0831
0.82583
0.58638
0.36732
0.18392
0.018346
-0.12685
-0.24402
-0.3561
-0.43252
-0.50639
-0.55988
-0.57517
-0.52677
-0.39686
-0.20327
0.071838
0.41572
0.84111
1.3073
1.7632
2.1708
2.4841
2.6853
2.7592
2.7133
2.5656
2.3516
2.0791
1.7887
1.4728
1.1595
0.85385
0.57365
0.30619
0.069291
-0.13704
-0.31789
-0.47328
-0.593
-0.68979
-0.78659
-0.85027
-0.89357
-0.92669
-0.92159
-0.86046
-0.72545
-0.5013
-0.21345
0.16099
0.62969
1.1391
1.6511
2.102
2.4765
2.7057
2.8254
2.8025
2.6726
2.4586
2.1963
1.9033
1.5849
1.2741
0.95828
0.65261
0.39025
0.13807
-0.086092
-0.27459
-0.44016
-0.57262
-0.68215
-0.77895
-0.85282
-0.91905
-0.96235
-0.97763
-0.92159
-0.81206
-0.62356
-0.36374
-0.027505
0.36477
0.8462
1.3225
1.7734
2.1479
2.4102
2.5452
2.558
2.4637
2.2829
2.0434
1.781
1.4779
1.1926
0.89715
0.6195
0.36987
0.14061
-0.052978
-0.22619
-0.36884
-0.48856
-0.59045
-0.66941
-0.7331
-0.78149
-0.81716
-0.81206
-0.75857
-0.64394
-0.44271
-0.19308
0.12533
0.49468
0.90224
1.3404
1.7301
2.0536
2.2727
2.3847
2.3847
2.3032
2.1377
1.911
1.6741
1.4091
1.1442
0.90224
0.65771
0.42845
0.2476
0.082027
-0.065714
-0.20072
-0.30006
-0.38412
-0.4529
-0.51403
-0.55733
-0.56752
-0.53696
-0.42742
-0.24912
-0.0020324
0.32147
0.72648
1.2028
1.6944
2.1631
2.5631
2.8738
3.0419
3.0929
3.0139
2.8433
2.6115
2.3313
2.0078
1.6893
1.3531
1.0322
0.73158
0.45902
0.1992
-0.027505
-0.21855
-0.38412
-0.53186
-0.64904
-0.75347
-0.81206
-0.86555
-0.84772
-0.75602
-0.5879
-0.33827
0.05146
0.54563
1.134
1.7174
2.2574
2.7159
3.0598
3.2483
3.2865
3.2152
3.0114
2.7541
2.4331
2.0612
1.697
1.3251
0.96083
0.60931
0.28071
-0.02241
-0.28223
-0.51403
-0.71272
-0.88338
-1.0209
-1.1356
-1.2196
-1.2833
-1.296
-1.2502
-1.133
-0.92159
-0.593
-0.14213
0.43355
1.0755
1.6995
2.2625
2.721
3.0267
3.1769
3.1897
3.0776
2.8687
2.5732
2.2319
1.8829
1.5085
1.1417
0.77998
0.42336
0.10241
-0.19308
-0.43761
-0.66941
-0.86046
-1.0286
-1.161
-1.2706
-1.347
-1.3852
-1.3979
-1.3623
-1.2578
-1.0693
-0.78659
-0.39686
0.13043
0.73158
1.3455
1.9059
2.3797
2.7261
2.9299
2.9732
2.9044
2.7108
2.4663
2.1555
1.832
1.4856
1.1366
0.79781
0.47176
0.17373
-0.096281
-0.33063
-0.54715
-0.728
-0.8732
-0.98273
-1.0693
-1.1356
-1.1789
-1.1941
-1.1279
-0.99292
-0.76876
-0.45799
-0.060619
0.44629
0.9863
1.5314
2.0103
2.3822
2.6446
2.777
2.7719
2.6751
2.4841
2.2345
1.9543
1.6562
1.3276
1.0194
0.71884
0.43864
0.17373
-0.060619
-0.26185
-0.44526
-0.593
-0.72036
-0.8197
-0.89612
-0.94707
-0.94961
-0.89103
-0.75602
-0.52677
-0.18034
0.32147
0.91498
1.5492
2.1428
2.6751
3.1082
3.3909
3.5259
3.503
3.368
3.1362
2.8407
2.4968
2.1224
1.7352
1.3455
0.97866
0.61186
0.28326
-0.032599
-0.29751
-0.54969
-0.75857
-0.94197
-1.0897
-1.2043
-1.2833
-1.3342
-1.3062
-1.2018
-0.99801
-0.6847
-0.21855
0.35968
1.0016
1.6206
2.1631
2.6089
2.9171
3.07
3.0751
2.9681
2.7592
2.4586
2.1351
1.7785
1.4091
1.0474
0.70356
0.35713
0.046366
-0.23383
-0.49365
-0.71526
-0.90376
-1.0541
-1.1814
-1.2731
-1.3495
-1.3877
-1.3546
-1.2527
-1.049
-0.74583
-0.28987
0.28581
0.91243
1.5492
2.1122
2.5707
2.8942
3.07
3.0802
2.9859
2.777
2.507
2.1861
1.8447
1.483
1.1264
0.77998
0.44629
0.13807
-0.14977
-0.40959
-0.62866
-0.81716
-0.97763
-1.1152
-1.2094
-1.2757
-1.2884
-1.2298
-1.0795
-0.83244
-0.44526
0.092216
0.71884
1.3658
1.967
2.4561
2.828
3.0521
3.1184
3.0547
2.8789
2.6115
2.3058
1.9594
1.6002
1.2207
0.86658
0.50742
0.18646
-0.11411
-0.37903
-0.61083
-0.81461
-0.98782
-1.133
-1.2298
-1.3062
-1.3164
-1.2731
-1.133
-0.90631
-0.55224
-0.07845
0.48704
1.0806
1.6231
2.102
2.4433
2.6497
2.7159
2.6471
2.4892
2.2497
1.967
1.6511
1.3174
0.98885
0.65516
0.35713
0.07948
-0.18798
-0.40195
-0.60064
-0.75093
-0.8732
-0.98018
-1.0591
-1.1024
-1.105
-1.0464
-0.91395
-0.6847
-0.35101
0.10495
0.65516
1.2436
1.8167
2.3083
2.7083
2.9655
3.0878
3.0725
2.935
2.7363
2.4561
2.1402
1.8167
1.4779
1.1442
0.82583
0.51761
0.23232
-0.030052
-0.25421
-0.46309
-0.63121
-0.76621
-0.8681
-0.95725
-1.0006
-0.96999
-0.87829
-0.67451
-0.33063
0.16609
0.80035
1.4856
2.1326
2.7006
3.1642
3.475
3.6329
3.6355
3.5004
3.2686
2.9451
2.5809
2.1988
1.8014
1.3939
1.0118
0.62969
0.27562
-0.055525
-0.34846
-0.61337
-0.84772
-1.0439
-1.2043
-1.3292
-1.3928
-1.3979
-1.3903
-1.319
-1.1254
-0.79168
-0.28733
0.36477
1.0704
1.7505
2.3465
2.8101
3.1158
3.2686
3.2763
3.1413
2.8993
2.5834
2.237
1.8549
1.4626
1.0806
0.70865
0.33675
-0.0045796
-0.31789
-0.60064
-0.83244
-1.0515
-1.212
-1.3495
-1.3928
-1.3928
-1.3852
-1.3852
-1.3928
-1.3674
-1.2222
-0.9649
-0.55988
-0.0071269
0.65261
1.3302
1.9594
2.4841
2.8713
3.098
3.1668
3.0878
2.9069
2.6395
2.3185
1.9645
1.5849
1.2232
0.8513
0.49723
0.16354
-0.1243
-0.38922
-0.61847
-0.81461
-0.97763
-1.1024
-1.2094
-1.2833
-1.3342
-1.3623
-1.3725
-1.3546
-1.2527
-1.0846
-0.82734
-0.5013
-0.093734
0.40043
0.943
1.483
1.9364
2.2956
2.5223
2.6089
2.5885
2.4663
2.2625
2.023
1.7327
1.4372
1.1468
0.85639
0.58893
0.35204
0.13297
-0.060619
-0.22364
-0.35101
-0.47073
-0.54969
-0.62611
-0.68979
-0.72545
-0.74583
-0.74838
-0.68979
-0.56243
-0.36629
-0.096281
0.26288
0.7112
1.2334
1.7785
2.2854
2.7159
3.0394
3.2177
3.2737
3.1999
3.0241
2.7821
2.479
2.1657
1.8269
1.4881
1.1621
0.8513
0.56601
0.29854
0.069291
-0.12175
-0.30261
-0.42997
-0.55479
-0.64904
-0.72545
-0.78914
-0.82989
-0.8248
-0.76366
-0.62356
-0.39431
-0.080997
0.3393
0.87422
1.4499
2.0281
2.535
2.9426
3.2152
3.3425
3.3145
3.1795
2.935
2.6446
2.3058
1.9492
1.5824
1.2181
0.87677
0.54308
0.25015
-0.017316
-0.24402
-0.43761
-0.61083
-0.75347
-0.86555
-0.94707
-1.026
-1.0846
-1.1152
-1.1407
-1.1305
-1.0693
-0.92669
-0.71017
-0.41978
-0.047883
0.41827
0.96593
1.5289
2.0612
2.5147
2.828
3.0088
3.0419
2.9477
2.7694
2.5019
2.1988
1.8778
1.5391
1.2054
0.88696
0.57874
0.30619
0.064196
-0.13958
-0.33318
-0.48856
-0.61337
-0.71781
-0.80697
-0.8732
-0.93433
-0.96744
-0.99801
-1.0057
-0.95216
-0.84772
-0.65668
-0.41214
-0.11156
0.23486
0.60167
1.0118
1.3939
1.7454
2.0103
2.1708
2.2243
2.1759
2.0536
1.8829
1.6741
1.4423
1.2207
0.99395
0.79017
0.58384
0.41062
0.25524
0.12024
0.010704
-0.096281
-0.19308
-0.26695
-0.32553
-0.38157
-0.42488
-0.46563
-0.48346
-0.46818
-0.39176
-0.23638
-0.030052
0.25269
0.55072
0.86913
1.2079
1.5416
1.8626
2.1275
2.3032
2.3924
2.3898
2.3083
2.1606
1.9797
1.7709
1.5467
1.3251
1.1239
0.92517
0.74177
0.57365
0.42845
0.296
0.17882
0.071838
-0.0020324
-0.086092
-0.14468
-0.20836
-0.24912
-0.26695
-0.25421
-0.15232
0.025987
0.26543
0.54818
0.87677
1.2614
1.6664
2.0383
2.3746
2.614
2.7541
2.7898
2.7159
2.5529
2.3465
2.0842
1.8116
1.5314
1.2487
0.98885
0.74431
0.51761
0.30873
0.13552
-0.019863
-0.14977
-0.27204
-0.37648
-0.46054
-0.52677
-0.58281
-0.61592
-0.62866
-0.57007
-0.4478
-0.23893
0.028535
0.34439
0.72394
1.1519
1.5875
1.9899
2.3211
2.5427
2.6497
2.6446
2.5376
2.344
2.1071
1.8498
1.5543
1.2792
1.0092
0.74177
0.50232
0.2909
0.10241
-0.060619
-0.20581
-0.33318
-0.42997
-0.51148
-0.59045
-0.65668
-0.69489
-0.72036
-0.69998
-0.62356
-0.45544
-0.23129
0.05146
0.37751
0.74941
1.157
1.5594
1.9161
2.1912
2.3593
2.4102
2.3542
2.237
2.0332
1.7938
1.5416
1.2843
1.0245
0.79017
0.56601
0.36477
0.18137
0.02344
-0.10138
-0.2211
-0.32299
-0.41214
-0.49111
-0.54969
-0.593
-0.62102
-0.60573
-0.53186
-0.38412
-0.17525
0.094763
0.39534
0.71375
1.0653
1.399
1.7021
1.9313
2.0842
2.1377
2.102
1.9925
1.832
1.6435
1.427
1.2105
1.0067
0.8029
0.6144
0.45138
0.296
0.15844
0.048913
-0.058072
-0.14723
-0.21345
-0.27204
-0.33572
-0.36884
-0.37393
-0.33063
-0.216
-0.012221
0.22977
0.5278
0.86404
1.2283
1.6155
1.9772
2.2956
2.5248
2.6497
2.6675
2.5783
2.4331
2.2294
1.9721
1.7199
1.4499
1.185
0.93536
0.69592
0.48959
0.296
0.12278
-0.012221
-0.13704
-0.23638
-0.33572
-0.4045
-0.46563
-0.48346
-0.43761
-0.33572
-0.14213
0.13807
0.49978
0.97866
1.4932
1.9925
2.4561
2.8203
3.0598
3.1744
3.1515
3.0139
2.7974
2.5248
2.2013
1.8549
1.5085
1.1672
0.83347
0.51506
0.22722
-0.019863
-0.25421
-0.43252
-0.60319
-0.74074
-0.85791
-0.93942
-1.0082
-1.0591
-1.0617
-1.0006
-0.85027
-0.62102
-0.29751
0.12788
0.6628
1.241
1.7887
2.2701
2.6446
2.8942
2.991
2.9528
2.7974
2.5732
2.288
1.9721
1.6308
1.2843
0.94045
0.60422
0.296
0.020893
-0.23129
-0.46054
-0.6363
-0.79932
-0.93433
-1.0286
-1.1126
-1.1712
-1.2094
-1.2324
-1.2094
-1.1203
-0.95471
-0.71017
-0.36374
0.084574
0.63733
1.213
1.7836
2.265
2.6471
2.8815
2.9732
2.9324
2.7949
2.5503
2.2625
1.9492
1.6155
1.2614
0.92517
0.60167
0.31383
0.036177
-0.20327
-0.40959
-0.58535
-0.74328
-0.85536
-0.94452
-1.026
-1.0795
-1.1228
-1.1228
-1.0591
-0.93942
-0.75093
-0.47837
-0.13958
0.25779
0.71884
1.1748
1.6078
1.9568
2.2013
2.3211
2.3414
2.2472
2.0893
1.8804
1.6206
1.3608
1.0882
0.82837
0.57365
0.35458
0.13807
-0.037694
-0.19308
-0.32553
-0.42488
-0.51913
-0.59554
-0.63885
-0.6847
-0.70253
-0.68215
-0.60319
-0.44016
-0.20581
0.11005
0.52016
1.022
1.5594
2.0842
2.5401
2.9146
3.1591
3.2712
3.2508
3.1235
2.9018
2.6369
2.3211
1.9874
1.6435
1.3047
0.97357
0.6628
0.36987
0.11005
-0.11666
-0.31535
-0.48856
-0.63375
-0.74583
-0.84518
-0.9114
-0.95471
-0.93433
-0.83499
-0.65668
-0.38667
-0.014769
0.48959
1.0653
1.6231
2.1428
2.5758
2.884
3.0572
3.0852
2.9859
2.7847
2.5147
2.1963
1.8524
1.5009
1.1391
0.8029
0.46157
0.16354
-0.11156
-0.3561
-0.55733
-0.73819
-0.87829
-0.99546
-1.0897
-1.1712
-1.2273
-1.2502
-1.2655
-1.2069
-1.0693
-0.8681
-0.56752
-0.16506
0.34185
0.91753
1.5187
2.0612
2.5147
2.8484
3.0368
3.0827
2.9935
2.8025
2.5529
2.2421
1.9059
1.5594
1.2156
0.86404
0.54563
0.2476
-0.019863
-0.25166
-0.46818
-0.6363
-0.77385
-0.89103
-0.99037
-1.0617
-1.1254
-1.1508
-1.1814
-1.1738
-1.1101
-0.96235
-0.728
-0.44526
-0.083545
0.33675
0.81564
1.3022
1.7505
2.1147
2.372
2.5096
2.5121
2.4281
2.2676
2.0358
1.7734
1.5085
1.2257
0.95319
0.69082
0.45902
0.24505
0.059102
-0.11156
-0.24402
-0.35865
-0.4529
-0.54205
-0.60064
-0.64394
-0.6796
-0.69998
-0.6847
-0.61083
-0.4529
-0.23129
0.048913
0.39534
0.80035
1.2614
1.7148
2.1428
2.4943
2.7312
2.8662
2.8789
2.7872
2.6089
2.3847
2.1224
1.8345
1.5492
1.2538
0.97866
0.70356
0.47176
0.25524
0.074385
-0.080997
-0.216
-0.33318
-0.42997
-0.51913
-0.593
-0.63885
-0.65668
-0.61337
-0.51148
-0.32044
-0.05043
0.32147
0.79017
1.3225
1.8702
2.3898
2.8127
3.1107
3.2814
3.3094
3.2024
3.0037
2.7261
2.4077
2.0536
1.7021
1.3378
0.9863
0.65261
0.34949
0.074385
-0.1676
-0.37648
-0.55224
-0.71017
-0.82734
-0.93942
-1.0184
-1.0821
-1.1203
-1.1432
-1.1279
-1.0591
-0.9114
-0.68215
-0.38667
0.0030622
0.4794
1.0092
1.5543
2.0409
2.4459
2.721
2.8764
2.8815
2.7745
2.5758
2.316
2.0103
1.6919
1.3633
1.0398
0.73667
0.43864
0.18392
-0.042789
-0.24657
-0.41214
-0.55733
-0.68215
-0.77895
-0.8681
-0.93178
-0.98782
-1.0184
-1.0388
-1.0362
-0.98782
-0.87574
-0.6796
-0.41724
-0.11666
0.23232
0.60167
0.99395
1.376
1.7123
1.9848
2.1453
2.2013
2.181
2.0587
1.8982
1.6995
1.4805
1.2563
1.0347
0.82583
0.63478
0.45902
0.30619
0.16863
0.05146
-0.05043
-0.14468
-0.2211
-0.28733
-0.34337
-0.36884
-0.4045
-0.41978
-0.4045
-0.33827
-0.19308
0.025987
0.30364
0.62459
0.99904
1.4117
1.8422
2.2421
2.5911
2.8331
2.9732
2.9808
2.9095
2.7414
2.5045
2.237
1.9517
1.6613
1.3557
1.0856
0.82583
0.58638
0.37241
0.18137
0.02344
-0.12175
-0.24912
-0.35355
-0.44526
-0.52167
-0.5879
-0.62102
-0.62356
-0.56243
-0.41978
-0.20581
0.061649
0.39789
0.79526
1.2232
1.6639
2.074
2.3975
2.614
2.7083
2.7006
2.5783
2.3822
2.1377
1.8524
1.5543
1.2665
0.97357
0.7112
0.45393
0.23486
0.046366
-0.1243
-0.26949
-0.3994
-0.51403
-0.60319
-0.6796
-0.73564
-0.79168
-0.8248
-0.8248
-0.7764
-0.66432
-0.47073
-0.20836
0.1075
0.45902
0.85385
1.269
1.669
2.0052
2.2523
2.3873
2.4179
2.344
2.2013
2.0027
1.7505
1.4958
1.2461
0.98885
0.75196
0.53544
0.33421
0.16609
0.0005149
-0.1243
-0.24402
-0.33063
-0.41214
-0.48856
-0.54205
-0.59809
-0.63375
-0.64904
-0.64394
-0.56498
-0.41469
-0.19053
0.089669
0.38515
0.69592
0.99904
1.3073
1.5849
1.7938
1.9313
1.9848
1.9517
1.8651
1.7276
1.5594
1.3837
1.1952
1.0118
0.83347
0.67554
0.53034
0.39534
0.27307
0.16099
0.064196
-0.024958
-0.093734
-0.14213
-0.20327
-0.24402
-0.28478
-0.29751
-0.27459
-0.17015
-0.0020324
0.23996
0.51251
0.82837
1.1442
1.4754
1.8116
2.1122
2.3516
2.507
2.5656
2.5325
2.4153
2.2447
2.0307
1.8014
1.5671
1.3302
1.1009
0.88187
0.68827
0.51761
0.36732
0.22467
0.097311
-0.014769
-0.10902
-0.19308
-0.2644
-0.32299
-0.37648
-0.38157
-0.32299
-0.19562
0.010704
0.27562
0.58638
0.97102
1.3939
1.8294
2.2192
2.5478
2.7566
2.8687
2.856
2.7465
2.5529
2.3083
2.023
1.7276
1.4219
1.1239
0.83347
0.5762
0.33166
0.12024
-0.068261
-0.22619
-0.3561
-0.47328
-0.57007
-0.65158
-0.72036
-0.7713
-0.80187
-0.79678
-0.74838
-0.61847
-0.40959
-0.13958
0.18137
0.57874
1.0169
1.4779
1.9033
2.2625
2.4994
2.6344
2.6624
2.5656
2.3924
2.1606
1.8931
1.6053
1.3098
1.0271
0.74941
0.48959
0.25779
0.061649
-0.11666
-0.27204
-0.39686
-0.51913
-0.61083
-0.69489
-0.75093
-0.80187
-0.84008
-0.87065
-0.85536
-0.81206
-0.6796
-0.49365
-0.22619
0.082027
0.42591
0.81819
1.2257
1.6129
1.9594
2.2013
2.3542
2.4026
2.3364
2.2039
2.0179
1.7785
1.534
1.2843
1.0398
0.80545
0.57874
0.3877
0.21448
0.066744
-0.07845
-0.18034
-0.28733
-0.36884
-0.44526
-0.5013
-0.5395
-0.58281
-0.60319
-0.59045
-0.51148
-0.37903
-0.15742
0.11259
0.40553
0.75196
1.1162
1.4728
1.8294
2.1275
2.344
2.4561
2.4714
2.4
2.265
2.0765
1.8549
1.6104
1.376
1.129
0.90989
0.70356
0.50487
0.3393
0.18392
0.043818
-0.065714
-0.15996
-0.24402
-0.31789
-0.37903
-0.43252
-0.4529
-0.44526
-0.36884
-0.21855
0.0056094
0.30109
0.65261
1.0958
1.5875
2.0485
2.4765
2.8178
3.0292
3.1336
3.1056
2.9732
2.7541
2.4739
2.1682
1.8447
1.5085
1.1697
0.86658
0.56346
0.30873
0.066744
-0.13704
-0.32299
-0.47837
-0.60828
-0.71272
-0.80442
-0.87065
-0.92923
-0.96744
-0.95471
-0.90631
-0.76621
-0.56243
-0.27968
0.074385
0.50487
1.0016
1.5034
1.9619
2.3618
2.6446
2.805
2.8229
2.7414
2.5605
2.3236
2.0409
1.7327
1.4168
1.0907
0.79781
0.50742
0.23996
0.0056094
-0.19308
-0.37903
-0.52167
-0.65668
-0.75602
-0.84008
-0.91395
-0.9649
-0.99801
-1.0286
-1.0439
-1.0158
-0.9598
-0.81206
-0.58535
-0.30261
0.033629
0.44119
0.88951
1.3837
1.8396
2.2243
2.5096
2.6802
2.721
2.6522
2.5019
2.2727
2.0154
1.725
1.427
1.134
0.85385
0.60167
0.36732
0.15844
-0.027505
-0.18034
-0.3128
-0.42742
-0.51913
-0.593
-0.65668
-0.70762
-0.74583
-0.76366
-0.7713
-0.72291
-0.61847
-0.43761
-0.19562
0.097311
0.42591
0.79526
1.1901
1.5696
1.9033
2.1682
2.3465
2.4281
2.4077
2.3032
2.1453
1.939
1.7123
1.4677
1.2283
0.99395
0.78507
0.58129
0.40553
0.23741
0.10241
-0.014769
-0.1294
-0.21345
-0.28987
-0.35101
-0.4045
-0.45035
-0.48346
-0.46818
-0.38412
-0.22364
0.0056094
0.30109
0.67809
1.134
1.618
2.102
2.535
2.8815
3.1158
3.2152
3.1897
3.0572
2.8305
2.5554
2.2523
1.9211
1.5824
1.2512
0.92772
0.63478
0.36987
0.12024
-0.091186
-0.27459
-0.43761
-0.57007
-0.67706
-0.76876
-0.84263
-0.89612
-0.94707
-0.97763
-0.96999
-0.90376
-0.7713
-0.56243
-0.26695
0.07948
0.49468
0.96847
1.4677
1.9339
2.3185
2.6166
2.7796
2.828
2.7566
2.5911
2.3644
2.0893
1.7836
1.4881
1.1773
0.87932
0.60167
0.35458
0.12278
-0.075903
-0.24657
-0.39686
-0.51658
-0.6363
-0.72291
-0.78659
-0.83753
-0.88593
-0.91905
-0.94452
-0.92923
-0.86046
-0.72291
-0.50894
-0.23383
0.084574
0.43864
0.84366
1.2665
1.6664
2.023
2.2752
2.4255
2.4612
2.3975
2.2574
2.0638
1.8396
1.5722
1.3124
1.0704
0.83092
0.60676
0.40808
0.22467
0.064196
-0.075903
-0.20072
-0.30006
-0.38412
-0.46054
-0.51913
-0.57262
-0.61592
-0.64649
-0.65668
-0.65158
-0.58535
-0.45544
-0.23383
0.025987
0.33421
0.63988
0.97357
1.2996
1.6104
1.8855
2.0765
2.1988
2.2192
2.1631
2.0536
1.8778
1.6944
1.4958
1.2996
1.0958
0.8997
0.72648
0.56601
0.42336
0.30364
0.19156
0.087122
0.010704
-0.063167
-0.13704
-0.20072
-0.24657
-0.27968
-0.29751
-0.2644
-0.17525
-0.019863
0.21703
0.48959
0.79271
1.1391
1.5034
1.8753
2.2039
2.4765
2.6624
2.7414
2.7261
2.6115
2.4281
2.2141
1.9568
1.6919
1.4295
1.1646
0.92262
0.70101
0.49214
0.30109
0.14061
-0.0020324
-0.12175
-0.23638
-0.32553
-0.40959
-0.47328
-0.51913
-0.56243
-0.54205
-0.45544
-0.29497
-0.07845
0.20684
0.56091
0.95828
1.4066
1.8498
2.2447
2.558
2.7719
2.8636
2.8433
2.7312
2.5274
2.2803
2.0027
1.6995
1.4015
1.1086
0.81819
0.55836
0.32147
0.11259
-0.073356
-0.23383
-0.37393
-0.4962
-0.5879
-0.66941
-0.74328
-0.79423
-0.82734
-0.84772
-0.81461
-0.72036
-0.5395
-0.28987
0.020893
0.39534
0.83602
1.3073
1.7938
2.2115
2.535
2.7541
2.8534
2.8152
2.6828
2.4917
2.2345
1.9441
1.646
1.3455
1.0398
0.7545
0.49723
0.26543
0.05146
-0.14213
-0.30261
-0.43761
-0.55733
-0.65923
-0.72545
-0.79678
-0.84772
-0.89103
-0.90121
-0.85536
-0.76112
-0.59045
-0.34591
-0.032599
0.32911
0.74941
1.2105
1.6511
2.0281
2.3414
2.5427
2.6166
2.5987
2.479
2.2956
2.0562
1.7836
1.4983
1.2232
0.95064
0.69592
0.45138
0.23741
0.043818
-0.11921
-0.26185
-0.39176
-0.48601
-0.57517
-0.6363
-0.68979
-0.73564
-0.74328
-0.72545
-0.64394
-0.47837
-0.24402
0.033629
0.37496
0.77743
1.2003
1.6206
2.0078
2.3185
2.5376
2.6446
2.6344
2.535
2.3644
2.1453
1.9008
1.6359
1.3633
1.0907
0.82583
0.58893
0.35713
0.1508
-0.017316
-0.1676
-0.30516
-0.40705
-0.50639
-0.5879
-0.64139
-0.68725
-0.70253
-0.66941
-0.55733
-0.36629
-0.11156
0.23232
0.67299
1.1824
1.7123
2.2166
2.6369
2.9579
3.1591
3.2304
3.182
3.0241
2.7872
2.5096
2.181
1.8473
1.4856
1.1544
0.82583
0.50742
0.23232
-0.032599
-0.25931
-0.45799
-0.63885
-0.7764
-0.88848
-0.98273
-1.0464
-1.105
-1.1407
-1.1279
-1.0566
-0.90376
-0.66432
-0.34591
0.069291
0.59912
1.1723
1.7352
2.2421
2.6548
2.9324
3.0802
3.0852
2.9757
2.7796
2.5019
2.1886
1.8473
1.5009
1.1595
0.82328
0.50232
0.1992
-0.058072
-0.29497
-0.50894
-0.68979
-0.82734
-0.94452
-1.0362
-1.105
-1.1661
-1.1992
-1.2247
-1.2145
-1.1432
-0.98782
-0.75602
-0.46054
-0.07845
0.41062
0.96593
1.5212
2.0409
2.4866
2.7923
2.9757
3.0241
2.9451
2.7668
2.5147
2.2141
1.9008
1.5543
1.2181
0.8997
0.59148
0.296
0.028535
-0.20072
-0.38412
-0.55988
-0.70508
-0.81461
-0.91395
-0.97763
-1.0388
-1.0642
-1.0846
-1.0617
-0.98782
-0.82989
-0.60064
-0.3077
0.041271
0.44374
0.90224
1.3633
1.7632
2.102
2.344
2.4637
2.4612
2.3822
2.1988
1.9797
1.7301
1.4525
1.185
0.91243
0.6628
0.431
0.23996
0.05146
-0.10392
-0.23383
-0.34337
-0.44526
-0.52677
-0.58535
-0.63375
-0.65413
-0.66432
-0.62611
-0.52167
-0.34082
-0.093734
0.21958
0.60167
1.0602
1.5365
2.0001
2.4051
2.7312
2.9324
3.0165
2.9884
2.8484
2.6471
2.3797
2.0893
1.781
1.4652
1.157
0.85639
0.58893
0.34439
0.11769
-0.070808
-0.23638
-0.37648
-0.4962
-0.60319
-0.68725
-0.75347
-0.79423
-0.79932
-0.73819
-0.59045
-0.36374
-0.065714
0.33421
0.82583
1.3582
1.8931
2.3542
2.7363
3.0012
3.126
3.1158
3.0088
2.7872
2.5223
2.2064
1.8575
1.5238
1.1824
0.8513
0.53799
0.25524
-0.0096741
-0.23383
-0.42742
-0.58535
-0.72036
-0.83499
-0.92414
-0.99037
-1.0515
-1.077
-1.0617
-0.97254
-0.81716
-0.58026
-0.26949
0.13552
0.63224
1.1697
1.7072
2.1759
2.5529
2.8127
2.9171
2.9069
2.7923
2.5783
2.3211
2.0179
1.6919
1.3658
1.0474
0.72648
0.44629
0.17882
-0.060619
-0.26695
-0.43761
-0.59045
-0.728
-0.8248
-0.90886
-0.97254
-1.0209
-1.0464
-1.0439
-0.99037
-0.85791
-0.64139
-0.36884
-0.019863
0.39789
0.87932
1.3786
1.8447
2.2243
2.5045
2.6649
2.6879
2.6089
2.4331
2.2115
1.9339
1.646
1.3404
1.0474
0.75705
0.49723
0.25524
0.036177
-0.14468
-0.3077
-0.43252
-0.54969
-0.6363
-0.72545
-0.77895
-0.8197
-0.86555
-0.86046
-0.8248
-0.71272
-0.53441
-0.28223
0.0030622
0.35204
0.7112
1.1035
1.4907
1.8269
2.0893
2.2472
2.3007
2.2625
2.1504
1.9746
1.7632
1.534
1.2996
1.0576
0.83602
0.64242
0.43864
0.28071
0.13807
0.010704
-0.10138
-0.18544
-0.25931
-0.33063
-0.38412
-0.42488
-0.46309
-0.44271
-0.36374
-0.216
0.0030622
0.28071
0.63224
1.0271
1.4779
1.911
2.3313
2.6599
2.8789
2.9859
2.9681
2.8687
2.67
2.4255
2.1351
1.8294
1.5161
1.213
0.91498
0.64752
0.39789
0.18137
-0.0096741
-0.1676
-0.31025
-0.43507
-0.52167
-0.60573
-0.67196
-0.728
-0.72291
-0.66177
-0.5013
-0.28733
0.0056094
0.36987
0.808
1.2945
1.753
2.1733
2.507
2.7363
2.828
2.7949
2.6777
2.4688
2.209
1.9161
1.5926
1.2818
0.9863
0.69082
0.42336
0.17882
-0.02241
-0.21091
-0.36629
-0.49111
-0.60064
-0.69998
-0.7764
-0.82734
-0.87574
-0.88593
-0.84008
-0.7331
-0.54715
-0.28478
0.05146
0.44374
0.8946
1.3862
1.8345
2.2039
2.4815
2.6497
2.6802
2.6089
2.4637
2.2294
1.9746
1.6715
1.376
1.0882
0.80035
0.5278
0.28326
0.071838
-0.12175
-0.27968
-0.42742
-0.55224
-0.64139
-0.728
-0.78404
-0.83244
-0.86301
-0.86301
-0.78659
-0.65413
-0.43252
-0.16251
0.15335
0.52016
0.92517
1.3276
1.7097
2.023
2.2319
2.3389
2.3465
2.2472
2.0995
1.8906
1.6562
1.4168
1.1672
0.92262
0.68063
0.47431
0.28326
0.12024
-0.030052
-0.14723
-0.24657
-0.33827
-0.40705
-0.47073
-0.51913
-0.55224
-0.55224
-0.51403
-0.38667
-0.19817
0.064196
0.39279
0.79017
1.2589
1.7403
2.1937
2.5962
2.8891
3.0674
3.1235
3.0674
2.9222
2.7057
2.4204
2.1198
1.8091
1.4881
1.1773
0.87422
0.59403
0.32911
0.10495
-0.10392
-0.27204
-0.41724
-0.54205
-0.65413
-0.73819
-0.79932
-0.81716
-0.7713
-0.65158
-0.44016
-0.14468
0.2476
0.72903
1.2512
1.776
2.2294
2.586
2.8407
2.9553
2.9375
2.8101
2.6064
2.3364
2.0307
1.6995
1.3633
1.0296
0.70101
0.39025
0.11005
-0.13449
-0.36629
-0.5446
-0.70762
-0.83499
-0.94707
-1.0311
-1.1024
-1.1483
-1.1432
-1.0923
-0.95725
-0.74838
-0.44526
-0.035147
0.46412
1.0169
1.5849
2.0893
2.4892
2.7847
2.9299
2.9553
2.8534
2.6649
2.4
2.1096
1.7785
1.4448
1.1035
0.79017
0.47431
0.18901
-0.080997
-0.30261
-0.5013
-0.66941
-0.80442
-0.92923
-1.0158
-1.0846
-1.133
-1.1712
-1.1585
-1.0744
-0.92669
-0.69998
-0.38412
0.013251
0.49723
1.0245
1.5442
1.9976
2.3491
2.5809
2.693
2.6853
2.5605
2.3618
2.1198
1.8244
1.5263
1.2105
0.91498
0.62459
0.34694
0.10241
-0.10392
-0.28478
-0.4478
-0.58535
-0.69489
-0.78149
-0.85282
-0.89867
-0.92669
-0.92669
-0.85536
-0.71272
-0.49365
-0.20836
0.1508
0.55836
1.0296
1.4754
1.8753
2.1886
2.4153
2.5121
2.4892
2.3873
2.2115
1.9797
1.7403
1.4728
1.2003
0.95064
0.70101
0.45902
0.26288
0.076933
-0.080997
-0.22364
-0.33572
-0.42742
-0.49875
-0.55224
-0.61083
-0.62102
-0.57262
-0.46054
-0.27968
-0.0020324
0.36477
0.82837
1.3531
1.8626
2.3516
2.7337
3.0165
3.1846
3.2101
3.1285
2.9579
2.7108
2.4255
2.1096
1.7658
1.4448
1.1111
0.78762
0.49214
0.21703
-0.037694
-0.24912
-0.44016
-0.61337
-0.7331
-0.85282
-0.94452
-0.99546
-1.0209
-0.99292
-0.87574
-0.67706
-0.38157
0.036177
0.54818
1.1086
1.669
2.1835
2.5962
2.9044
3.0802
3.1133
3.0318
2.8585
2.6038
2.3134
1.9823
1.6486
1.3022
0.96083
0.63224
0.32147
0.025987
-0.22364
-0.46563
-0.65413
-0.83499
-0.96235
-1.0821
-1.1559
-1.2273
-1.2706
-1.2833
-1.2655
-1.1636
-0.99801
-0.74583
-0.38667
0.056555
0.58129
1.1391
1.6766
2.1504
2.507
2.7388
2.8305
2.8152
2.6802
2.4765
2.2166
1.9339
1.6257
1.3174
0.99904
0.69082
0.40808
0.14571
-0.091186
-0.30006
-0.48601
-0.64394
-0.76876
-0.87065
-0.95471
-1.0184
-1.0642
-1.0948
-1.1024
-1.0642
-0.96744
-0.79423
-0.55479
-0.22874
0.13297
0.5711
1.0525
1.5034
1.9084
2.209
2.4026
2.4765
2.4433
2.3364
2.1606
1.939
1.6868
1.4295
1.1697
0.91498
0.68063
0.45138
0.24505
0.071838
-0.080997
-0.216
-0.32808
-0.41978
-0.50639
-0.55988
-0.61337
-0.64394
-0.65923
-0.61083
-0.50639
-0.32808
-0.07845
0.21703
0.57874
0.99395
1.427
1.8345
2.1886
2.4357
2.5732
2.6064
2.535
2.3924
2.1886
1.9517
1.6995
1.427
1.1697
0.90479
0.67809
0.45902
0.26288
0.094763
-0.042789
-0.17779
-0.27459
-0.36884
-0.44271
-0.5013
-0.54205
-0.53696
-0.47328
-0.34846
-0.13449
0.13807
0.47431
0.88951
1.3225
1.7428
2.1173
2.4128
2.586
2.6548
2.6013
2.4663
2.2676
2.0256
1.7581
1.4677
1.1901
0.92517
0.6628
0.42591
0.21448
0.031082
-0.13704
-0.27459
-0.39431
-0.49365
-0.57262
-0.6363
-0.68725
-0.6847
-0.62866
-0.5013
-0.28987
-0.02241
0.32656
0.73413
1.1824
1.618
2.0001
2.288
2.4917
2.5554
2.5248
2.3949
2.1988
1.9645
1.697
1.4117
1.1315
0.85894
0.60931
0.36732
0.1508
-0.019863
-0.17779
-0.32044
-0.43507
-0.53186
-0.61083
-0.67706
-0.72291
-0.74328
-0.68725
-0.57517
-0.38412
-0.13194
0.18137
0.54563
0.95064
1.3608
1.725
2.0256
2.2345
2.3338
2.3185
2.2217
2.0663
1.8473
1.5976
1.348
1.0882
0.84875
0.61695
0.39534
0.20684
0.041271
-0.098828
-0.2211
-0.32808
-0.4045
-0.47328
-0.52677
-0.57262
-0.5879
-0.55224
-0.44526
-0.25421
0.0056094
0.32656
0.72394
1.185
1.6537
2.0995
2.4968
2.7821
2.9604
3.0292
2.9783
2.8305
2.6191
2.3618
2.0714
1.7556
1.4525
1.1493
0.8513
0.58129
0.33166
0.11259
-0.083545
-0.24657
-0.39431
-0.51658
-0.61337
-0.68979
-0.74583
-0.73055
-0.65668
-0.48092
-0.22874
0.12278
0.58129
1.1086
1.6409
2.1377
2.5452
2.8509
3.019
3.0674
2.9783
2.8025
2.5529
2.2548
1.9339
1.59
1.2334
0.90224
0.5762
0.28071
-0.0045796
-0.25166
-0.46309
-0.65158
-0.81206
-0.93178
-1.0337
-1.1203
-1.1763
-1.2018
-1.1636
-1.0515
-0.85536
-0.55988
-0.16506
0.35204
0.92262
1.511
2.0383
2.4739
2.7872
2.9477
2.9884
2.8891
2.7083
2.4561
2.1708
1.8345
1.5085
1.1697
0.84111
0.52525
0.22722
-0.037694
-0.28478
-0.50384
-0.67196
-0.82734
-0.94707
-1.0464
-1.1228
-1.1814
-1.2222
-1.2324
-1.2018
-1.0897
-0.9165
-0.64904
-0.29242
0.18137
0.72648
1.3073
1.8549
2.3185
2.6624
2.8764
2.963
2.9222
2.7719
2.5452
2.2752
1.9645
1.6486
1.3251
1.0016
0.68573
0.39789
0.12533
-0.11156
-0.32553
-0.50384
-0.66941
-0.78659
-0.88848
-0.97763
-1.0311
-1.0744
-1.105
-1.0999
-1.0464
-0.93688
-0.73819
-0.46054
-0.12175
0.31383
0.81564
1.3302
1.8116
2.2141
2.5121
2.6828
2.7286
2.6573
2.5096
2.2981
2.0281
1.7327
1.4397
1.1391
0.8462
0.56855
0.32656
0.099858
-0.10392
-0.26695
-0.4045
-0.53696
-0.63121
-0.69998
-0.76621
-0.8197
-0.84263
-0.86046
-0.82989
-0.74583
-0.56243
-0.32553
-0.037694
0.32147
0.72903
1.1697
1.5951
1.9925
2.3007
2.507
2.5962
2.5885
2.4815
2.3185
2.0995
1.8524
1.59
1.3124
1.0602
0.80545
0.57365
0.37241
0.18646
0.031082
-0.11921
-0.23383
-0.32553
-0.40705
-0.47582
-0.53696
-0.57517
-0.59554
-0.57007
-0.47837
-0.29751
-0.05043
0.27307
0.68318
1.1621
1.6741
2.1759
2.6115
2.9502
3.1566
3.2457
3.2075
3.0496
2.8229
2.5427
2.2345
1.8957
1.5543
1.2207
0.89715
0.60422
0.32402
0.069291
-0.14213
-0.32808
-0.48856
-0.62102
-0.728
-0.82734
-0.88848
-0.94197
-0.97509
-0.95725
-0.87829
-0.71526
-0.48601
-0.18034
0.21958
0.69846
1.213
1.7225
2.1861
2.5478
2.7949
2.8967
2.8917
2.777
2.5656
2.3083
2.0205
1.7072
1.3913
1.0729
0.76215
0.46921
0.20684
-0.019863
-0.22364
-0.40195
-0.56243
-0.68215
-0.77385
-0.85791
-0.91905
-0.96744
-0.99037
-0.99801
-0.96235
-0.8681
-0.67451
-0.41214
-0.091186
0.31128
0.77488
1.2818
1.7607
2.181
2.507
2.721
2.7923
2.7516
2.6191
2.4026
2.1453
1.8524
1.5416
1.2385
0.94555
0.65261
0.40553
0.16354
-0.037694
-0.216
-0.36629
-0.4962
-0.60064
-0.6796
-0.75347
-0.80951
-0.84518
-0.88084
-0.87829
-0.84518
-0.74583
-0.54715
-0.3077
-0.0020324
0.32911
0.71375
1.1188
1.5238
1.8728
2.158
2.3313
2.4
2.3746
2.2676
2.0918
1.8778
1.6384
1.3786
1.1391
0.8997
0.67554
0.47176
0.28326
0.12788
-0.0096741
-0.13449
-0.22364
-0.30261
-0.38412
-0.43252
-0.48092
-0.51658
-0.52932
-0.5395
-0.49111
-0.36374
-0.17015
0.10495
0.41827
0.79781
1.2385
1.6919
2.1402
2.5376
2.8382
3.0521
3.1285
3.098
2.9757
2.777
2.5274
2.2294
1.9237
1.6155
1.32
1.022
0.7545
0.49978
0.27307
0.076933
-0.098828
-0.24657
-0.37903
-0.48856
-0.58535
-0.65413
-0.72036
-0.75602
-0.7713
-0.71526
-0.58026
-0.37648
-0.10138
0.26288
0.69592
1.2079
1.7327
2.2217
2.6318
2.9248
3.098
3.1413
3.0572
2.8917
2.6395
2.3593
2.0281
1.6893
1.3506
1.0194
0.70101
0.40808
0.13807
-0.10647
-0.31025
-0.49111
-0.64139
-0.76366
-0.8732
-0.94197
-1.0133
-1.0591
-1.0897
-1.0897
-1.0566
-0.94197
-0.75093
-0.47073
-0.13704
0.26034
0.74941
1.2716
1.7734
2.2166
2.5707
2.7974
2.8891
2.856
2.7363
2.5198
2.2548
1.967
1.6537
1.3353
1.0169
0.72394
0.44629
0.19411
-0.045336
-0.23893
-0.40705
-0.5446
-0.67196
-0.77385
-0.85282
-0.92159
-0.97254
-1.0082
-1.0107
-1.0057
-0.93178
-0.80187
-0.57517
-0.30516
0.015798
0.39025
0.79017
1.2181
1.6104
1.9619
2.2192
2.372
2.4128
2.3491
2.2166
2.0205
1.7963
1.5442
1.292
1.0271
0.79271
0.56855
0.35968
0.18392
0.025987
-0.11156
-0.23893
-0.33063
-0.41469
-0.48346
-0.5395
-0.58535
-0.62102
-0.63885
-0.64904
-0.59809
-0.47328
-0.26695
-0.0096741
0.29854
0.63478
0.98885
1.3709
1.7428
2.0867
2.344
2.5121
2.5834
2.5478
2.4484
2.2803
2.0689
1.832
1.6002
1.3557
1.1035
0.8946
0.68318
0.48449
0.31128
0.16354
0.036177
-0.07845
-0.1727
-0.25676
-0.32808
-0.38157
-0.43761
-0.47073
-0.46054
-0.37903
-0.22364
0.013251
0.30109
0.63478
1.0576
1.5161
1.9823
2.3898
2.7312
2.9604
3.0725
3.0674
2.9579
2.7643
2.5019
2.209
1.8957
1.5747
1.2589
0.9481
0.67299
0.41317
0.16609
-0.042789
-0.216
-0.36884
-0.50384
-0.60064
-0.69234
-0.7713
-0.83499
-0.8732
-0.88593
-0.84263
-0.74838
-0.55224
-0.28987
0.036177
0.42591
0.89715
1.4041
1.9033
2.3211
2.6573
2.884
2.963
2.935
2.8025
2.586
2.3287
2.023
1.7199
1.399
1.0831
0.78762
0.50487
0.25015
0.010704
-0.18544
-0.36629
-0.50639
-0.63121
-0.72545
-0.81461
-0.88593
-0.93942
-0.98018
-0.99546
-0.96999
-0.87574
-0.71017
-0.46563
-0.1727
0.20175
0.65516
1.1519
1.646
2.0995
2.4663
2.7286
2.8509
2.856
2.7465
2.5529
2.2981
2.0103
1.7021
1.3888
1.0831
0.78507
0.50997
0.25015
0.031082
-0.16251
-0.33827
-0.48346
-0.59554
-0.70762
-0.7764
-0.84518
-0.89867
-0.92414
-0.95471
-0.93178
-0.85536
-0.71017
-0.48856
-0.20327
0.14316
0.53289
0.97612
1.4041
1.8244
2.1733
2.423
2.5605
2.5885
2.5172
2.3567
2.1504
1.8931
1.6359
1.3531
1.0831
0.82328
0.58129
0.36477
0.15844
-0.0096741
-0.14723
-0.28478
-0.38922
-0.46054
-0.53186
-0.5879
-0.62611
-0.65158
-0.64649
-0.593
-0.46563
-0.26185
0.0005149
0.34439
0.77233
1.264
1.7683
2.2447
2.6649
2.9935
3.1948
3.2661
3.2203
3.0751
2.8534
2.5758
2.2676
1.9364
1.6155
1.2843
0.97102
0.6628
0.3877
0.13297
-0.083545
-0.28733
-0.4478
-0.59809
-0.71272
-0.80951
-0.88593
-0.94197
-0.97254
-0.94452
-0.85791
-0.66687
-0.40705
-0.024958
0.46921
1.0755
1.6868
2.2701
2.7745
3.1668
3.4138
3.5285
3.5055
3.3425
3.1082
2.7949
2.4535
2.074
1.6944
1.32
0.95319
0.59403
0.26034
-0.05043
-0.32299
-0.56498
-0.77385
-0.95471
-1.1075
-1.2196
-1.3139
-1.3826
-1.3928
-1.3954
-1.3979
-1.3419
-1.1865
-0.9649
-0.62611
-0.1727
0.41572
1.0602
1.7123
2.2981
2.7796
3.1311
3.3451
3.3986
3.317
3.1362
2.8738
2.5478
2.1886
1.832
1.4474
1.0882
0.72394
0.37496
0.066744
-0.23129
-0.49111
-0.72291
-0.91395
-1.0744
-1.2018
-1.2986
-1.375
-1.3928
-1.3928
-1.3877
-1.3954
-1.3546
-1.2298
-1.0158
-0.71017
-0.31789
0.18137
0.75196
1.3378
1.8829
2.344
2.6904
2.8942
2.9732
2.9146
2.7566
2.5248
2.2599
1.9517
1.6155
1.2894
0.96593
0.65261
0.36477
0.092216
-0.15996
-0.3612
-0.5446
-0.69489
-0.81716
-0.91905
-0.99546
-1.0413
-1.0795
-1.0999
-1.1101
-1.0668
-0.97509
-0.79678
-0.5395
-0.21345
0.19156
0.67299
1.2003
1.7301
2.2013
2.586
2.856
3.0012
3.0216
2.935
2.7694
2.5401
2.2574
1.9619
1.6588
1.3557
1.0602
0.76215
0.49978
0.25779
0.02344
-0.17015
-0.32808
-0.48092
-0.5879
-0.68979
-0.75857
-0.8197
-0.8681
-0.88338
-0.86046
-0.77385
-0.60064
-0.34337
0.0056094
0.47176
1.0194
1.6129
2.2064
2.7108
3.1184
3.3935
3.5157
3.5081
3.3807
3.1591
2.8611
2.5274
2.1708
1.7963
1.427
1.0602
0.71884
0.39025
0.094763
-0.17779
-0.40705
-0.60828
-0.78149
-0.92159
-1.026
-1.1101
-1.1763
-1.2324
-1.268
-1.2706
-1.2247
-1.1126
-0.90121
-0.62356
-0.25166
0.21703
0.77488
1.3608
1.9364
2.4306
2.828
3.0776
3.1999
3.1795
3.0521
2.8407
2.558
2.2421
1.9059
1.5518
1.2003
0.86404
0.55327
0.26034
-0.0045796
-0.23383
-0.44271
-0.62356
-0.76112
-0.87829
-0.96744
-1.049
-1.1075
-1.1458
-1.1661
-1.1763
-1.1381
-1.0388
-0.85791
-0.59554
-0.26695
0.13552
0.61186
1.134
1.6537
2.1224
2.5019
2.7719
2.8917
2.8942
2.8025
2.6115
2.3516
2.0765
1.7709
1.4474
1.1391
0.83856
0.55582
0.29345
0.069291
-0.13449
-0.30516
-0.44271
-0.56498
-0.66432
-0.74328
-0.80697
-0.84772
-0.88593
-0.90631
-0.9114
-0.88084
-0.77385
-0.59045
-0.33572
-0.027505
0.32656
0.72903
1.1672
1.59
1.9848
2.3058
2.5299
2.6522
2.6446
2.558
2.3949
2.1784
1.9262
1.6715
1.4091
1.1468
0.89715
0.67554
0.46412
0.27307
0.11005
-0.024958
-0.14213
-0.24912
-0.32808
-0.3994
-0.46309
-0.50639
-0.54715
-0.56498
-0.5395
-0.45035
-0.29242
-0.05043
0.2476
0.60931
1.0474
1.511
1.9899
2.423
2.7872
3.0368
3.1693
3.1642
3.0598
2.8713
2.6089
2.3185
1.9874
1.6613
1.348
1.0372
0.74431
0.46921
0.21448
0.010704
-0.18034
-0.33827
-0.47837
-0.59045
-0.68215
-0.75093
-0.8248
-0.86555
-0.87829
-0.8248
-0.70508
-0.5013
-0.216
0.13297
0.53034
1.0067
1.4779
1.9339
2.316
2.5962
2.7719
2.7974
2.7312
2.5631
2.3313
2.0612
1.7632
1.4448
1.1391
0.84366
0.56855
0.31128
0.089669
-0.10138
-0.27204
-0.41978
-0.55479
-0.65158
-0.73819
-0.81461
-0.86301
-0.90121
-0.9165
-0.90886
-0.82734
-0.65923
-0.42488
-0.1294
0.22722
0.63733
1.1111
1.5798
2.0128
2.3618
2.5987
2.7388
2.7312
2.6471
2.4535
2.2243
1.9568
1.6588
1.3658
1.0755
0.79526
0.54308
0.30364
0.10241
-0.083545
-0.24402
-0.38667
-0.48856
-0.59045
-0.65413
-0.71781
-0.77385
-0.80697
-0.82989
-0.82225
-0.74838
-0.60319
-0.37138
-0.083545
0.23996
0.60422
1.0092
1.4168
1.7912
2.1198
2.3414
2.4535
2.4815
2.3949
2.2447
2.0409
1.8065
1.5543
1.3047
1.0449
0.81819
0.59657
0.40043
0.22467
0.071838
-0.060619
-0.1676
-0.27459
-0.3561
-0.42742
-0.48092
-0.52677
-0.55733
-0.57007
-0.51403
-0.3994
-0.20327
0.041271
0.36477
0.7112
1.1035
1.5365
1.9492
2.3109
2.5911
2.7821
2.856
2.828
2.6981
2.5096
2.2676
2.0052
1.7148
1.4321
1.1646
0.90224
0.66535
0.43864
0.2476
0.061649
-0.083545
-0.21345
-0.32299
-0.42233
-0.48856
-0.55988
-0.61337
-0.61337
-0.57007
-0.43761
-0.23383
0.054007
0.40808
0.85639
1.3506
1.8549
2.3211
2.7108
2.9732
3.1235
3.1413
3.0368
2.8382
2.5682
2.265
1.9364
1.5926
1.264
0.93791
0.62205
0.33421
0.092216
-0.14977
-0.34082
-0.5013
-0.64649
-0.76366
-0.87065
-0.94197
-0.99546
-1.0362
-1.0031
-0.90376
-0.72036
-0.46818
-0.13449
0.26543
0.74177
1.2461
1.7097
2.1275
2.423
2.6064
2.6802
2.6191
2.4586
2.2497
1.9823
1.6766
1.3786
1.078
0.77488
0.49468
0.23996
0.013251
-0.19817
-0.37903
-0.52167
-0.64904
-0.75602
-0.84263
-0.90886
-0.9598
-0.99292
-0.98018
-0.90121
-0.73819
-0.5013
-0.19562
0.19665
0.65261
1.1748
1.6843
2.1249
2.4841
2.7184
2.8203
2.7923
2.6828
2.479
2.2217
1.9339
1.6282
1.3225
1.0016
0.71375
0.42845
0.18646
-0.037694
-0.22874
-0.39686
-0.53441
-0.65668
-0.75347
-0.82734
-0.88848
-0.93433
-0.94707
-0.90886
-0.80442
-0.62102
-0.35101
-0.024958
0.37751
0.84111
1.3327
1.804
2.209
2.5045
2.6675
2.7184
2.6497
2.4968
2.2727
1.9976
1.7148
1.4091
1.1111
0.82583
0.53799
0.30109
0.071838
-0.1243
-0.28223
-0.42997
-0.54715
-0.6363
-0.72291
-0.78914
-0.83499
-0.84008
-0.80951
-0.71017
-0.51403
-0.26695
0.056555
0.44883
0.88696
1.3531
1.7963
2.1733
2.4586
2.6497
2.7006
2.6497
2.5121
2.3032
2.0612
1.781
1.4907
1.2079
0.93791
0.67299
0.43864
0.21448
0.025987
-0.14977
-0.29497
-0.41978
-0.52167
-0.61083
-0.67196
-0.72291
-0.74074
-0.71272
-0.5879
-0.40195
-0.12175
0.25524
0.72903
1.2792
1.8269
2.3516
2.8025
3.1362
3.3298
3.3935
3.3298
3.1591
2.9197
2.6089
2.2701
1.9186
1.5543
1.1875
0.8462
0.51761
0.2043
-0.063167
-0.30516
-0.52422
-0.69998
-0.84518
-0.96744
-1.0719
-1.1381
-1.1967
-1.2018
-1.1407
-1.0057
-0.77385
-0.4529
-0.024958
0.49978
1.0678
1.6308
2.1402
2.5478
2.8305
2.9604
2.9604
2.8458
2.6395
2.3593
2.046
1.7123
1.3735
1.0372
0.70356
0.3877
0.10241
-0.16251
-0.38667
-0.58026
-0.75347
-0.89103
-1.0006
-1.0948
-1.1636
-1.2145
-1.2425
-1.2425
-1.2145
-1.1101
-0.92923
-0.64649
-0.30516
0.14571
0.70101
1.2818
1.8396
2.3465
2.7312
2.9986
3.1133
3.0852
2.9655
2.7337
2.4637
2.1504
1.8142
1.4779
1.1493
0.81819
0.51506
0.22467
-0.027505
-0.25421
-0.4529
-0.61083
-0.73819
-0.86301
-0.94452
-1.0082
-1.0591
-1.1075
-1.1152
-1.0974
-1.0107
-0.84518
-0.60064
-0.27459
0.10495
0.58129
1.106
1.6359
2.1198
2.507
2.7668
2.8967
2.9044
2.8025
2.6115
2.3618
2.0714
1.7505
1.4295
1.1213
0.82328
0.54563
0.27562
0.043818
-0.15232
-0.33063
-0.47328
-0.593
-0.68725
-0.77895
-0.82989
-0.88593
-0.92669
-0.92923
-0.92414
-0.83753
-0.66941
-0.43252
-0.14213
0.22722
0.64242
1.1239
1.5951
2.0409
2.4077
2.6777
2.8229
2.8509
2.7719
2.6064
2.3924
2.13
1.8524
1.5569
1.2741
0.98885
0.72139
0.48195
0.25524
0.061649
-0.11666
-0.25421
-0.38667
-0.48092
-0.57517
-0.63121
-0.69234
-0.73055
-0.74328
-0.71017
-0.61337
-0.43252
-0.17015
0.16099
0.58129
1.0882
1.6308
2.1479
2.614
2.9834
3.2253
3.3374
3.3094
3.1617
2.9401
2.6471
2.3313
1.9848
1.6231
1.2716
0.93791
0.62205
0.32656
0.059102
-0.17525
-0.38157
-0.55733
-0.68979
-0.81461
-0.90886
-0.98273
-1.0464
-1.0821
-1.1075
-1.0923
-1.0031
-0.84263
-0.59809
-0.27714
0.12278
0.62205
1.1901
1.7454
2.265
2.693
2.9986
3.1617
3.1897
3.0878
2.9018
2.6395
2.3262
1.9874
1.6257
1.2843
0.95319
0.62205
0.33675
0.066744
-0.1727
-0.38412
-0.55733
-0.71017
-0.8248
-0.9165
-0.99801
-1.0591
-1.0974
-1.133
-1.1432
-1.1203
-1.0388
-0.87574
-0.63885
-0.32044
0.059102
0.53289
1.0551
1.5951
2.0842
2.507
2.8101
2.9834
3.0216
2.9451
2.7516
2.5019
2.209
1.8804
1.5569
1.2283
0.91753
0.61186
0.33421
0.089669
-0.11156
-0.30516
-0.46309
-0.59045
-0.69998
-0.79932
-0.86301
-0.9165
-0.95471
-0.98782
-0.99801
-0.97254
-0.89103
-0.72545
-0.49111
-0.18798
0.15335
0.55072
0.97612
1.427
1.8345
2.1912
2.451
2.6013
2.6216
2.558
2.4051
2.1861
1.9313
1.6588
1.3939
1.1213
0.87168
0.63224
0.42081
0.22467
0.056555
-0.10138
-0.23383
-0.33572
-0.42233
-0.50384
-0.54969
-0.60064
-0.6363
-0.64904
-0.62866
-0.54969
-0.39176
-0.16251
0.14061
0.48449
0.86658
1.3022
1.7428
2.1631
2.5198
2.7847
2.9248
2.9604
2.8891
2.7184
2.4943
2.2268
1.9237
1.6308
1.3353
1.0474
0.77998
0.53289
0.30619
0.11769
-0.045336
-0.19308
-0.3128
-0.42742
-0.52167
-0.593
-0.65158
-0.70508
-0.71526
-0.66687
-0.54205
-0.33318
-0.058072
0.28326
0.69337
1.1697
1.6613
2.1173
2.5147
2.8127
2.991
3.0368
2.9553
2.7949
2.5452
2.2523
1.9364
1.6155
1.2767
0.97357
0.67554
0.39279
0.15335
-0.065714
-0.25421
-0.41724
-0.55479
-0.67196
-0.76366
-0.84518
-0.90121
-0.94961
-0.97763
-0.97254
-0.92414
-0.79932
-0.57262
-0.29751
0.061649
0.46921
0.95828
1.4575
1.9288
2.3542
2.6802
2.8738
2.935
2.8764
2.7184
2.4968
2.2166
1.9135
1.59
1.2869
0.97357
0.68318
0.41572
0.17118
-0.030052
-0.2211
-0.37648
-0.50639
-0.62611
-0.71781
-0.78914
-0.85027
-0.89357
-0.9165
-0.92159
-0.84772
-0.70508
-0.47837
-0.18798
0.15335
0.54818
0.9914
1.4499
1.8728
2.2268
2.4739
2.6216
2.6344
2.5503
2.3847
2.1504
1.8931
1.5976
1.3149
1.0322
0.76469
0.51251
0.296
0.094763
-0.080997
-0.24147
-0.36374
-0.47073
-0.55479
-0.63375
-0.69998
-0.74328
-0.7713
-0.74328
-0.65668
-0.48601
-0.24402
0.048913
0.36732
0.72903
1.1213
1.4958
1.832
2.1071
2.288
2.3644
2.344
2.2396
2.0663
1.8447
1.6078
1.3633
1.1111
0.86913
0.65007
0.44629
0.27307
0.11769
-0.02241
-0.13449
-0.23893
-0.31789
-0.39686
-0.45544
-0.50639
-0.53696
-0.52677
-0.46563
-0.32553
-0.11666
0.17118
0.52016
0.94045
1.399
1.888
2.3262
2.7057
2.9834
3.1285
3.1642
3.0852
2.8967
2.6548
2.3746
2.0612
1.7301
1.4066
1.0882
0.79271
0.50232
0.25269
0.043818
-0.15487
-0.31789
-0.46818
-0.58281
-0.68215
-0.7713
-0.82225
-0.84772
-0.81461
-0.70508
-0.50894
-0.24657
0.11259
0.55582
1.0602
1.59
2.0587
2.4688
2.7719
2.9324
2.9681
2.884
2.7057
2.4535
2.1555
1.8269
1.4932
1.1595
0.84366
0.5227
0.24505
-0.0045796
-0.23383
-0.42997
-0.593
-0.7331
-0.84772
-0.92669
-1.0057
-1.0591
-1.0897
-1.0668
-0.97763
-0.78659
-0.53441
-0.18034
0.26543
0.79526
1.3658
1.9059
2.3567
2.7133
2.935
3.0216
2.9655
2.8101
2.5809
2.293
1.9619
1.618
1.2818
0.943
0.62205
0.31383
0.041271
-0.19562
-0.41214
-0.58535
-0.74583
-0.86555
-0.97254
-1.0617
-1.1101
-1.161
-1.1585
-1.0999
-0.96744
-0.74328
-0.4529
-0.10138
0.35204
0.8462
1.3404
1.7989
2.1682
2.4357
2.5682
2.5834
2.4866
2.3058
2.0765
1.804
1.5059
1.2105
0.91753
0.62205
0.36987
0.13297
-0.068261
-0.25421
-0.41724
-0.54715
-0.64649
-0.73564
-0.79932
-0.84772
-0.88338
-0.87574
-0.82225
-0.67451
-0.43761
-0.15487
0.20939
0.65007
1.1264
1.6155
2.046
2.4077
2.6599
2.7821
2.7923
2.7108
2.5248
2.288
2.0103
1.7301
1.4372
1.1366
0.84875
0.57874
0.3393
0.12788
-0.058072
-0.22619
-0.36374
-0.48856
-0.58535
-0.67196
-0.73055
-0.7713
-0.7713
-0.6847
-0.52167
-0.27459
0.061649
0.50487
1.05
1.6206
2.1631
2.6446
3.0063
3.2432
3.3272
3.2839
3.1285
2.8815
2.5758
2.2268
1.8626
1.5034
1.1315
0.78507
0.46412
0.17118
-0.10392
-0.33827
-0.5395
-0.71526
-0.8681
-0.97763
-1.0719
-1.1458
-1.1891
-1.2069
-1.1585
-1.0235
-0.79678
-0.4962
-0.11921
0.37496
0.93536
1.4907
1.9976
2.423
2.7133
2.8636
2.9018
2.7949
2.6089
2.3414
2.0434
1.725
1.3913
1.0551
0.73667
0.43355
0.1559
-0.098828
-0.30516
-0.49875
-0.66177
-0.79168
-0.89612
-0.98782
-1.0439
-1.0999
-1.1254
-1.1228
-1.0566
-0.90886
-0.6796
-0.38667
-0.0020324
0.45902
0.96847
1.4881
1.9721
2.3618
2.6344
2.777
2.7872
2.6955
2.4994
2.2548
1.9772
1.6766
1.3582
1.0551
0.76469
0.48449
0.24505
0.015798
-0.18034
-0.34082
-0.48346
-0.60064
-0.69743
-0.77895
-0.85791
-0.90121
-0.92414
-0.89867
-0.80697
-0.62356
-0.37648
-0.065714
0.29345
0.71375
1.1544
1.59
1.9543
2.2472
2.4102
2.4637
2.4077
2.2625
2.074
1.8193
1.5696
1.2843
1.022
0.77233
0.52525
0.30873
0.12533
-0.040241
-0.18289
-0.31535
-0.40959
-0.48856
-0.56752
-0.62611
-0.66687
-0.6796
-0.62866
-0.49875
-0.29497
-0.037694
0.28326
0.64242
1.0474
1.4601
1.8524
2.1835
2.4331
2.5682
2.5987
2.5299
2.3771
2.1733
1.9339
1.6741
1.4066
1.1442
0.89715
0.66026
0.44883
0.26543
0.099858
-0.058072
-0.1727
-0.28223
-0.36629
-0.44271
-0.5013
-0.54969
-0.53186
-0.46309
-0.28733
-0.055525
0.27052
0.65261
1.134
1.6308
2.1071
2.5274
2.856
3.0521
3.1285
3.0827
2.935
2.7108
2.4306
2.1096
1.776
1.4448
1.1111
0.80545
0.51761
0.23741
0.0030622
-0.19308
-0.37393
-0.53186
-0.65413
-0.74838
-0.84008
-0.89357
-0.92669
-0.87829
-0.75347
-0.54969
-0.27459
0.099858
0.53799
1.0296
1.5085
1.9466
2.3058
2.5299
2.6522
2.6344
2.5223
2.3287
2.074
1.7887
1.4881
1.1901
0.88441
0.59912
0.33421
0.099858
-0.11921
-0.3077
-0.4529
-0.593
-0.71272
-0.79932
-0.8681
-0.9165
-0.93942
-0.87574
-0.75347
-0.52677
-0.23383
0.14316
0.6144
1.129
1.6435
2.0995
2.4663
2.6955
2.7974
2.7796
2.6471
2.451
2.1835
1.888
1.5849
1.2741
0.96083
0.66026
0.3877
0.13552
-0.091186
-0.29242
-0.45035
-0.59045
-0.70508
-0.79678
-0.8732
-0.93178
-0.93688
-0.90121
-0.7713
-0.55479
-0.25421
0.14061
0.62714
1.1646
1.7021
2.1861
2.5682
2.828
2.9426
2.9248
2.8
2.586
2.3134
2.0027
1.6792
1.3429
1.0143
0.69337
0.39534
0.11514
-0.11666
-0.32808
-0.51913
-0.66941
-0.79932
-0.88848
-0.96999
-1.0362
-1.0693
-1.0591
-0.9598
-0.78914
-0.5395
-0.20836
0.20939
0.70101
1.2156
1.697
2.1096
2.4153
2.5911
2.6446
2.5783
2.4281
2.2013
1.939
1.6511
1.3404
1.0449
0.7545
0.48449
0.22977
0.0081567
-0.18289
-0.34846
-0.47837
-0.593
-0.68215
-0.76112
-0.8248
-0.84263
-0.81716
-0.72291
-0.53696
-0.27459
0.082027
0.55836
1.1162
1.6715
2.2115
2.67
3.0216
3.2304
3.3069
3.2483
3.098
2.8636
2.5656
2.2523
1.9008
1.5569
1.2003
0.86404
0.53799
0.24505
-0.02241
-0.25676
-0.47073
-0.64904
-0.80187
-0.92414
-1.026
-1.0821
-1.0923
-1.026
-0.85791
-0.59045
-0.19562
0.3393
0.96083
1.5951
2.1708
2.6522
3.0165
3.2304
3.2916
3.2355
3.047
2.7847
2.4688
2.1173
1.7377
1.3582
0.99395
0.62459
0.28326
-0.032599
-0.32808
-0.58026
-0.80951
-1.0006
-1.161
-1.2782
-1.3776
-1.3852
-1.3852
-1.3928
-1.3139
-1.1305
-0.8248
-0.39176
0.17628
0.81564
1.4525
2.0281
2.5045
2.8534
3.0394
3.0903
3.0012
2.8076
2.5299
2.2217
1.8753
1.5187
1.1697
0.81819
0.4794
0.15335
-0.13449
-0.39686
-0.63121
-0.83499
-1.0006
-1.1305
-1.2349
-1.3113
-1.375
-1.3852
-1.347
-1.2222
-0.99546
-0.68215
-0.24147
0.296
0.89206
1.4856
2.0001
2.4153
2.6955
2.828
2.8178
2.7057
2.4917
2.2268
1.9161
1.5951
1.2589
0.92262
0.60422
0.28836
0.0081567
-0.23129
-0.4478
-0.62866
-0.78659
-0.90886
-1.0057
-1.077
-1.1432
-1.1559
-1.1305
-1.0337
-0.84518
-0.55988
-0.20072
0.22977
0.73667
1.264
1.7403
2.1275
2.4
2.5554
2.5707
2.4892
2.3262
2.0918
1.8269
1.5391
1.2461
0.95828
0.69082
0.42591
0.1992
-0.0096741
-0.19308
-0.34337
-0.47837
-0.57771
-0.65668
-0.7331
-0.76621
-0.78659
-0.73819
-0.60319
-0.39176
-0.091186
0.30364
0.81054
1.3658
1.9161
2.4153
2.8305
3.1107
3.2534
3.2686
3.1744
2.9808
2.7235
2.4128
2.074
1.7403
1.3964
1.0627
0.73922
0.43864
0.16609
-0.07845
-0.28223
-0.48092
-0.62611
-0.75602
-0.87065
-0.94197
-0.97763
-0.93942
-0.82225
-0.59809
-0.28478
0.15335
0.68827
1.2589
1.804
2.2778
2.6548
2.8942
3.0012
2.9783
2.8433
2.6191
2.3516
2.0307
1.7072
1.3633
1.0372
0.7112
0.3877
0.1075
-0.14977
-0.38157
-0.59045
-0.75347
-0.88593
-1.0082
-1.0897
-1.1407
-1.1636
-1.105
-0.94707
-0.70508
-0.34846
0.12278
0.6628
1.2614
1.8116
2.2752
2.6446
2.856
2.9401
2.9069
2.7566
2.5299
2.2421
1.9262
1.5976
1.2512
0.92772
0.59912
0.29345
-0.0020324
-0.25676
-0.47582
-0.66941
-0.83753
-0.95725
-1.0693
-1.1458
-1.1992
-1.2094
-1.1381
-0.98018
-0.74074
-0.39686
0.041271
0.56601
1.1111
1.6282
2.0765
2.4179
2.6318
2.693
2.6471
2.5045
2.293
2.0281
1.7377
1.4219
1.1137
0.8029
0.51761
0.25269
0.0005149
-0.21855
-0.41214
-0.57262
-0.69489
-0.80187
-0.88338
-0.94197
-0.97763
-0.94707
-0.84008
-0.65413
-0.37648
0.010704
0.48959
1.0449
1.6078
2.1173
2.5452
2.8534
3.0292
3.0878
3.0165
2.8433
2.6013
2.3185
2.0128
1.6843
1.3582
1.0245
0.70611
0.40808
0.13297
-0.10902
-0.32299
-0.52167
-0.66687
-0.80442
-0.90376
-0.97763
-0.99801
-0.95725
-0.8197
-0.57262
-0.21345
0.29345
0.89206
1.5187
2.1071
2.6038
2.9859
3.2304
3.3272
3.2788
3.1311
2.8891
2.5834
2.237
1.8626
1.4983
1.1315
0.76469
0.42591
0.10241
-0.19308
-0.45035
-0.68979
-0.89612
-1.0566
-1.1891
-1.2935
-1.3699
-1.3801
-1.3368
-1.1941
-0.94961
-0.55988
-0.05043
0.55072
1.1901
1.7938
2.2981
2.7032
2.9502
3.0445
2.9935
2.8509
2.5962
2.3032
1.967
1.6206
1.2512
0.8946
0.55327
0.22722
-0.073356
-0.34591
-0.593
-0.79423
-0.96744
-1.105
-1.2196
-1.3062
-1.3699
-1.3852
-1.3444
-1.2094
-1.0031
-0.66432
-0.216
0.32656
0.93281
1.5187
2.0562
2.4714
2.7592
2.8967
2.9044
2.7923
2.5885
2.3236
2.0128
1.6868
1.3353
0.99904
0.67299
0.36223
0.069291
-0.19053
-0.42233
-0.60573
-0.77385
-0.90631
-1.0184
-1.0999
-1.1712
-1.1916
-1.1814
-1.0923
-0.90886
-0.64649
-0.28733
0.16354
0.6679
1.2028
1.6817
2.0944
2.4
2.5783
2.6242
2.5656
2.4
2.1886
1.9211
1.6384
1.3353
1.0423
0.74431
0.46921
0.20684
-0.0096741
-0.20327
-0.37903
-0.50639
-0.62356
-0.71272
-0.7764
-0.84008
-0.86046
-0.84518
-0.76112
-0.57771
-0.33318
0.028535
0.48959
1.0245
1.59
2.1351
2.5987
2.9502
3.1871
3.2788
3.2406
3.0954
2.8636
2.5682
2.2523
1.9084
1.5594
1.213
0.87422
0.55072
0.26543
0.0005149
-0.23893
-0.42742
-0.59809
-0.7331
-0.85027
-0.93688
-1.0031
-1.0235
-0.9649
-0.8248
-0.593
-0.24402
0.19665
0.74686
1.3225
1.8753
2.3516
2.7261
2.963
3.0572
3.0165
2.8662
2.6395
2.3338
2.0078
1.6613
1.2996
0.95319
0.6144
0.29345
0.015798
-0.25166
-0.46054
-0.65158
-0.81461
-0.95216
-1.0515
-1.1356
-1.2018
-1.2298
-1.2018
-1.0948
-0.89357
-0.60573
-0.24402
0.22213
0.76724
1.3149
1.8218
2.2523
2.5478
2.721
2.7465
2.6599
2.4815
2.2243
1.9415
1.6231
1.3073
0.99395
0.68063
0.39025
0.13043
-0.11666
-0.31535
-0.49111
-0.6363
-0.75347
-0.84008
-0.92159
-0.98018
-1.0286
-1.0413
-1.0133
-0.92669
-0.73564
-0.48856
-0.17525
0.20939
0.65261
1.1366
1.5824
1.9874
2.2829
2.479
2.5325
2.4841
2.3465
2.1402
1.8829
1.6078
1.3225
1.0449
0.77998
0.54053
0.31892
0.11514
-0.045336
-0.19308
-0.32044
-0.43252
-0.52167
-0.5879
-0.65158
-0.69234
-0.71781
-0.69234
-0.58535
-0.4045
-0.15742
0.13807
0.46157
0.83092
1.2105
1.5594
1.8728
2.1122
2.2625
2.2956
2.237
2.1122
1.939
1.7276
1.4983
1.2792
1.0423
0.83602
0.63224
0.46412
0.30619
0.17373
0.043818
-0.060619
-0.14213
-0.216
-0.28223
-0.33572
-0.37903
-0.37648
-0.31789
-0.17015
0.048913
0.32147
0.65771
1.0372
1.4575
1.8855
2.265
2.5834
2.7821
2.8917
2.8611
2.7566
2.5656
2.3083
2.0434
1.753
1.4474
1.1519
0.87932
0.63733
0.39789
0.2043
0.028535
-0.12685
-0.25676
-0.37393
-0.46563
-0.55224
-0.61337
-0.65158
-0.62102
-0.52167
-0.32808
-0.086092
0.22467
0.57365
0.96593
1.3709
1.7403
2.0434
2.2701
2.3644
2.3695
2.265
2.1046
1.888
1.6409
1.376
1.129
0.86404
0.63224
0.41572
0.21958
0.041271
-0.10392
-0.23893
-0.35865
-0.44526
-0.5446
-0.60828
-0.68215
-0.71526
-0.70508
-0.64394
-0.47837
-0.25421
0.043818
0.35713
0.70356
1.0627
1.4117
1.7301
1.9695
2.1122
2.1708
2.1377
2.0154
1.8524
1.6562
1.4372
1.2181
0.98376
0.77488
0.59403
0.40553
0.2476
0.1075
-0.012221
-0.12175
-0.216
-0.30006
-0.37903
-0.43761
-0.47582
-0.49365
-0.43761
-0.29751
-0.083545
0.16354
0.46666
0.78507
1.129
1.4601
1.7607
1.9899
2.1402
2.1886
2.1377
2.0179
1.8575
1.6588
1.4448
1.2257
1.0118
0.81309
0.61186
0.45393
0.28581
0.15335
0.028535
-0.073356
-0.1727
-0.25676
-0.33572
-0.38922
-0.4478
-0.42997
-0.36629
-0.19562
0.025987
0.31128
0.64242
0.98121
1.3251
1.6613
1.9517
2.1631
2.293
2.3083
2.2421
2.0995
1.9161
1.6919
1.4499
1.2308
0.99904
0.78762
0.59148
0.41062
0.25524
0.10495
-0.030052
-0.13958
-0.25166
-0.33318
-0.41469
-0.47073
-0.49875
-0.46818
-0.35865
-0.16251
0.087122
0.36987
0.67809
1.0041
1.3327
1.6104
1.8498
2.0078
2.0714
2.046
1.9441
1.7938
1.5976
1.3913
1.185
0.9863
0.79017
0.59912
0.42591
0.28581
0.14571
0.013251
-0.093734
-0.18289
-0.26949
-0.33318
-0.39176
-0.42997
-0.43761
-0.37138
-0.21345
0.015798
0.27817
0.60167
0.92517
1.2589
1.59
1.8906
2.1046
2.2523
2.2956
2.2447
2.1351
1.9568
1.7632
1.5492
1.32
1.1137
0.90734
0.7112
0.5278
0.38006
0.23996
0.11259
0.010704
-0.086092
-0.17779
-0.25421
-0.32044
-0.34082
-0.32553
-0.22364
-0.037694
0.20939
0.52525
0.90479
1.3327
1.7785
2.1963
2.5427
2.7974
2.9299
2.9426
2.8407
2.6624
2.4153
2.1326
1.8294
1.5212
1.2079
0.92262
0.62969
0.3877
0.15335
-0.037694
-0.216
-0.35101
-0.48092
-0.58281
-0.67706
-0.7331
-0.74328
-0.69743
-0.56243
-0.34082
-0.024958
0.35458
0.83856
1.3429
1.804
2.2192
2.5121
2.6828
2.7286
2.6471
2.4714
2.2421
1.9645
1.6562
1.3353
1.0271
0.72394
0.42845
0.16099
-0.065714
-0.27968
-0.46054
-0.61337
-0.74074
-0.84518
-0.91395
-0.98273
-1.0235
-1.0133
-0.94961
-0.78659
-0.53186
-0.20581
0.22977
0.74177
1.2843
1.7861
2.2243
2.5376
2.7286
2.7719
2.7006
2.5427
2.3032
2.0154
1.7148
1.3964
1.0704
0.7596
0.46921
0.2043
-0.05043
-0.25676
-0.44526
-0.593
-0.72291
-0.83244
-0.9165
-0.99546
-1.0337
-1.0566
-1.0031
-0.87574
-0.65413
-0.36374
0.020893
0.50232
1.0322
1.5391
2.0052
2.3669
2.6089
2.7108
2.6904
2.5631
2.3567
2.0816
1.7912
1.4958
1.1748
0.86658
0.57365
0.29854
0.061649
-0.14723
-0.34591
-0.50384
-0.6363
-0.75093
-0.83753
-0.90886
-0.9598
-0.98018
-0.95471
-0.85282
-0.67706
-0.40705
-0.075903
0.33166
0.79017
1.2614
1.6944
2.0612
2.3109
2.4459
2.4637
2.3746
2.2141
1.9925
1.7327
1.4601
1.1672
0.8946
0.62459
0.38515
0.16863
-0.019863
-0.18798
-0.33572
-0.4478
-0.5395
-0.62102
-0.68725
-0.73055
-0.74583
-0.71017
-0.57517
-0.37393
-0.080997
0.30619
0.79017
1.3251
1.8829
2.3695
2.7694
3.0725
3.2203
3.2406
3.1566
2.9757
2.721
2.4102
2.0995
1.7479
1.4091
1.0831
0.7545
0.45902
0.19156
-0.058072
-0.28223
-0.47073
-0.62866
-0.76112
-0.8732
-0.94452
-0.99801
-0.98273
-0.88593
-0.69743
-0.37138
0.082027
0.64497
1.2869
1.8982
2.4459
2.8866
3.1871
3.3425
3.3502
3.2355
3.0139
2.721
2.3898
2.0281
1.6588
1.2818
0.92008
0.56601
0.23486
-0.080997
-0.3561
-0.60828
-0.81716
-1.0031
-1.1458
-1.2757
-1.3572
-1.3979
-1.3979
-1.3572
-1.2196
-0.97254
-0.59809
-0.05043
0.60167
1.2996
1.9492
2.4968
2.9273
3.1897
3.3043
3.2737
3.1184
2.8713
2.5605
2.2243
1.8549
1.4779
1.1188
0.75705
0.40553
0.082027
-0.22364
-0.49365
-0.75093
-0.95471
-1.1356
-1.2731
-1.3954
-1.3852
-1.3979
-1.3903
-1.3928
-1.3393
-1.1789
-0.88848
-0.44526
0.15335
0.83347
1.5187
2.1428
2.6573
3.0318
3.2483
3.3145
3.2381
3.0598
2.7923
2.4739
2.1122
1.7428
1.376
1.0067
0.65771
0.32656
0.010704
-0.28733
-0.54205
-0.7713
-0.96999
-1.1305
-1.2731
-1.3648
-1.3928
-1.3903
-1.3928
-1.3903
-1.3266
-1.1483
-0.87574
-0.47837
0.061649
0.68063
1.3225
1.9059
2.4077
2.7745
2.9757
3.0547
2.9808
2.8076
2.558
2.2523
1.9313
1.5926
1.241
0.90479
0.5711
0.2476
-0.030052
-0.29242
-0.50639
-0.70508
-0.85027
-0.98782
-1.0821
-1.1559
-1.2018
-1.2273
-1.2069
-1.0974
-0.90886
-0.61592
-0.20836
0.31892
0.92772
1.5365
2.1351
2.6369
3.0165
3.2559
3.3527
3.317
3.1668
2.935
2.6471
2.3109
1.9721
1.6206
1.2741
0.93026
0.61186
0.29854
0.020893
-0.23383
-0.4478
-0.64139
-0.79932
-0.92414
-1.0413
-1.1126
-1.1508
-1.1381
-1.0362
-0.82734
-0.48856
0.013251
0.63478
1.3353
2.0128
2.614
3.1056
3.4317
3.6151
3.638
3.5412
3.3247
3.0292
2.6802
2.3032
1.911
1.5161
1.1162
0.74941
0.37751
0.046366
-0.26695
-0.5395
-0.78404
-1.0031
-1.1712
-1.3062
-1.3979
-1.3852
-1.3979
-1.3954
-1.3801
-1.2706
-1.0286
-0.65413
-0.11666
0.55327
1.269
1.9441
2.5223
2.9655
3.2661
3.3986
3.3807
3.2508
3.0114
2.7032
2.3593
1.9823
1.6129
1.2232
0.85894
0.50997
0.17373
-0.13194
-0.42488
-0.66941
-0.89612
-1.0872
-1.2298
-1.3368
-1.3903
-1.3877
-1.3979
-1.3928
-1.3776
-1.2757
-1.0566
-0.71526
-0.23638
0.37751
1.05
1.7021
2.2829
2.7643
3.0802
3.2508
3.2712
3.1489
2.9324
2.642
2.3109
1.9441
1.5773
1.1977
0.83347
0.48704
0.1559
-0.14977
-0.40959
-0.6363
-0.84008
-1.0031
-1.133
-1.2349
-1.3088
-1.3546
-1.3903
-1.3546
-1.2629
-1.0795
-0.79678
-0.42233
0.056555
0.61695
1.2232
1.7938
2.288
2.6471
2.884
2.963
2.9222
2.7617
2.535
2.2497
1.9415
1.6155
1.2894
0.97866
0.67554
0.37751
0.13297
-0.10902
-0.29751
-0.46054
-0.60828
-0.72036
-0.81461
-0.88593
-0.92414
-0.94707
-0.9114
-0.79168
-0.56243
-0.25166
0.20684
0.78762
1.4372
2.0893
2.6624
3.1413
3.4826
3.6456
3.6456
3.5871
3.3986
3.126
2.7974
2.4281
2.0434
1.6562
1.2716
0.89715
0.53544
0.20175
-0.10138
-0.37903
-0.60573
-0.80697
-0.97509
-1.105
-1.2196
-1.2935
-1.3266
-1.2884
-1.1508
-0.92159
-0.56243
-0.042789
0.60167
1.292
1.9441
2.5248
2.9834
3.2839
3.4317
3.424
3.2865
3.0572
2.7388
2.3898
2.0027
1.6231
1.2334
0.8462
0.48195
0.13043
-0.1727
-0.46309
-0.71526
-0.92414
-1.1126
-1.2527
-1.375
-1.3928
-1.3979
-1.3928
-1.3877
-1.3674
-1.2604
-1.0184
-0.65668
-0.13958
0.51506
1.2283
1.911
2.5096
2.9935
3.3196
3.4775
3.4801
3.3425
3.1184
2.8101
2.4586
2.0765
1.6893
1.292
0.91243
0.55072
0.20175
-0.12175
-0.40705
-0.65668
-0.86555
-1.049
-1.1941
-1.3011
-1.3877
-1.3852
-1.3928
-1.3852
-1.3495
-1.2196
-0.99546
-0.65413
-0.20581
0.37241
0.99395
1.6155
2.1733
2.6089
2.9069
3.0445
3.0521
2.9222
2.6955
2.4128
2.0995
1.7428
1.3964
1.0474
0.70356
0.39789
0.10495
-0.17015
-0.39176
-0.5879
-0.74838
-0.87829
-0.98782
-1.0617
-1.1279
-1.1687
-1.1789
-1.1254
-0.99037
-0.76621
-0.44526
-0.0096741
0.53799
1.1519
1.7734
2.3542
2.8254
3.1719
3.3654
3.4037
3.3323
3.1387
2.8636
2.5478
2.1886
1.8345
1.4703
1.1137
0.77998
0.45138
0.14571
-0.11666
-0.34591
-0.54205
-0.70253
-0.84263
-0.9598
-1.0388
-1.0923
-1.1228
-1.0795
-0.9649
-0.7331
-0.38412
0.12788
0.76215
1.4626
2.158
2.7516
3.2508
3.582
3.6431
3.638
3.5769
3.3731
3.0878
2.7337
2.3516
1.9568
1.5442
1.1442
0.76724
0.3877
0.048913
-0.26695
-0.54715
-0.79678
-1.0158
-1.1814
-1.3215
-1.3979
-1.3979
-1.3928
-1.3852
-1.3037
-1.0999
-0.75347
-0.23638
0.42336
1.1213
1.8116
2.4026
2.884
3.2024
3.3603
3.3629
3.2406
3.0114
2.7108
2.3542
1.9772
1.5773
1.1977
0.81564
0.45647
0.11259
-0.21345
-0.5013
-0.75602
-0.98273
-1.161
-1.3062
-1.3979
-1.3903
-1.3928
-1.3928
-1.3877
-1.3444
-1.1865
-0.8732
-0.42742
0.19665
0.90224
1.6155
2.2523
2.7694
3.1489
3.368
3.4138
3.3272
3.1235
2.8305
2.4841
2.0995
1.7199
1.3251
0.92772
0.56601
0.20175
-0.11666
-0.40705
-0.67196
-0.89357
-1.0744
-1.2298
-1.3495
-1.3852
-1.3928
-1.3979
-1.3903
-1.3419
-1.184
-0.92669
-0.53441
-0.0045796
0.60676
1.2487
1.8524
2.3567
2.721
2.9502
3.0165
2.9502
2.7872
2.5376
2.2243
1.8957
1.5518
1.2028
0.85639
0.52525
0.22467
-0.055525
-0.29751
-0.52167
-0.70508
-0.84772
-0.97763
-1.0668
-1.1305
-1.1789
-1.1865
-1.1559
-1.0362
-0.82989
-0.51148
-0.065714
0.52016
1.1926
1.8753
2.5147
3.0445
3.4393
3.6405
3.6405
3.6074
3.4495
3.2075
2.8815
2.5274
2.1504
1.7658
1.3837
1.0067
0.65516
0.31383
0.0005149
-0.27968
-0.53186
-0.75093
-0.93178
-1.0668
-1.1865
-1.2731
-1.3266
-1.3011
-1.1712
-0.94197
-0.56498
-0.0045796
0.69337
1.4117
2.1096
2.7006
3.1668
3.4852
3.6355
3.6253
3.4877
3.2432
2.9222
2.5554
2.1682
1.7556
1.3506
0.95828
0.56346
0.20684
-0.1294
-0.4478
-0.72291
-0.94961
-1.161
-1.3342
-1.3877
-1.3928
-1.4005
-1.3979
-1.3852
-1.3572
-1.1916
-0.85282
-0.33827
0.33421
1.0831
1.8142
2.4484
2.9528
3.3196
3.5004
3.5259
3.4164
3.1897
2.8891
2.5376
2.1606
1.7658
1.3557
0.96847
0.58638
0.21703
-0.11666
-0.43252
-0.71017
-0.95471
-1.1585
-1.3292
-1.3928
-1.3852
-1.3928
-1.3877
-1.3928
-1.3954
-1.3623
-1.2043
-0.91905
-0.48601
0.12024
0.81564
1.5314
2.181
2.7286
3.1184
3.34
3.4037
3.3247
3.1107
2.8331
2.4994
2.13
1.7454
1.3506
0.96593
0.60931
0.26034
-0.060619
-0.35101
-0.60573
-0.81716
-0.99801
-1.1458
-1.2578
-1.3393
-1.3903
-1.3903
-1.3979
-1.3801
-1.3139
-1.1458
-0.88338
-0.51913
-0.040241
0.54563
1.1824
1.8065
2.3338
2.7668
3.0368
3.1693
3.1566
3.0139
2.7898
2.5045
2.1759
1.8345
1.4856
1.134
0.81564
0.49214
0.21448
-0.045336
-0.2644
-0.46054
-0.62102
-0.74583
-0.84518
-0.93178
-0.99546
-1.0235
-1.026
-0.96744
-0.80442
-0.56243
-0.21345
0.27052
0.87168
1.5314
2.1759
2.7414
3.2075
3.5234
3.6456
3.6355
3.5336
3.2992
3.0063
2.6497
2.2701
1.888
1.4958
1.1162
0.74941
0.40298
0.082027
-0.20072
-0.45799
-0.6796
-0.85536
-1.0057
-1.1279
-1.2145
-1.296
-1.3139
-1.2833
-1.1508
-0.93433
-0.59045
-0.10138
0.5278
1.2257
1.9008
2.5045
2.9859
3.3221
3.4928
3.5106
3.3909
3.1591
2.856
2.5019
2.1224
1.7301
1.3378
0.95574
0.59148
0.23741
-0.07845
-0.36629
-0.63121
-0.84518
-1.0388
-1.184
-1.3011
-1.4005
-1.3877
-1.3979
-1.3877
-1.3877
-1.2757
-1.0795
-0.76112
-0.30261
0.28836
0.9863
1.6868
2.3134
2.8484
3.2203
3.4291
3.4903
3.3884
3.1897
2.9044
2.5631
2.1886
1.8142
1.4142
1.0423
0.67299
0.33421
0.02344
-0.27459
-0.51403
-0.74074
-0.92669
-1.0795
-1.1916
-1.2935
-1.3674
-1.3903
-1.3903
-1.3979
-1.3444
-1.2069
-0.95471
-0.62102
-0.1727
0.41827
1.0704
1.725
2.3083
2.7949
3.126
3.2967
3.312
3.1973
2.9859
2.6802
2.3516
1.9848
1.618
1.2487
0.89715
0.55327
0.22722
-0.045336
-0.30006
-0.51658
-0.69743
-0.85536
-0.96744
-1.0719
-1.1381
-1.1891
-1.2222
-1.2247
-1.184
-1.0693
-0.86046
-0.57262
-0.19562
0.27307
0.81564
1.4015
1.9594
2.4255
2.7847
2.9961
3.0623
2.991
2.8229
2.5834
2.2829
1.9645
1.6409
1.3098
0.98885
0.68318
0.41062
0.15844
-0.073356
-0.2644
-0.41978
-0.55479
-0.67196
-0.74838
-0.81461
-0.8732
-0.89612
-0.89867
-0.81716
-0.65413
-0.39686
-0.045336
0.44374
1.0296
1.6817
2.3032
2.856
3.2941
3.5871
3.6456
3.6355
3.5132
3.2814
2.9706
2.6216
2.2421
1.8524
1.4626
1.0806
0.71884
0.36987
0.059102
-0.21345
-0.45799
-0.65668
-0.83499
-0.98782
-1.0948
-1.1916
-1.2553
-1.2833
-1.2324
-1.0897
-0.85536
-0.50894
-0.02241
0.58638
1.2385
1.8778
2.451
2.8891
3.1795
3.317
3.2941
3.1489
2.9044
2.5987
2.2421
1.8651
1.4856
1.1111
0.74686
0.39534
0.071838
-0.216
-0.47837
-0.69743
-0.89103
-1.0413
-1.1712
-1.2655
-1.3393
-1.3852
-1.3979
-1.3852
-1.3368
-1.1712
-0.9165
-0.56752
-0.083545
0.52525
1.2079
1.8778
2.4637
2.9375
3.2661
3.4189
3.4164
3.2992
3.0572
2.7643
2.4153
2.0383
1.6639
1.2818
0.91498
0.55582
0.23232
-0.073356
-0.34082
-0.57007
-0.76876
-0.92923
-1.0591
-1.1636
-1.2425
-1.3037
-1.3317
-1.347
-1.2859
-1.1458
-0.90886
-0.59809
-0.17779
0.34694
0.9481
1.5416
2.0816
2.5325
2.8484
3.0114
3.0318
2.9299
2.721
2.4535
2.1377
1.8116
1.4626
1.1188
0.78507
0.47685
0.18646
-0.060619
-0.28733
-0.48601
-0.6363
-0.7764
-0.87829
-0.96999
-1.0286
-1.0821
-1.105
-1.0795
-0.99801
-0.80951
-0.5395
-0.18034
0.28581
0.8513
1.4652
2.0485
2.5707
2.9859
3.2636
3.396
3.3833
3.2457
3.0241
2.7337
2.4077
2.0485
1.7021
1.3327
0.98885
0.67044
0.34949
0.07948
-0.1676
-0.38412
-0.55988
-0.71781
-0.84518
-0.93942
-1.0235
-1.0719
-1.0795
-1.0184
-0.85536
-0.59045
-0.20327
0.32402
0.98121
1.6715
2.3236
2.8866
3.3221
3.5998
3.6431
3.6329
3.4954
3.2457
2.9171
2.5427
2.1402
1.7403
1.3378
0.93791
0.55327
0.20939
-0.12175
-0.42233
-0.67196
-0.89103
-1.0821
-1.24
-1.3623
-1.3928
-1.3928
-1.3979
-1.3648
-1.2273
-0.98782
-0.59809
-0.055525
0.61186
1.3022
1.9746
2.5325
2.963
3.2559
3.3705
3.3349
3.1769
2.9146
2.5987
2.2396
1.8447
1.4499
1.0755
0.69337
0.32911
-0.0020324
-0.30516
-0.57517
-0.81206
-1.0184
-1.1916
-1.3164
-1.3852
-1.3852
-1.3852
-1.3928
-1.3852
-1.2782
-1.0591
-0.73564
-0.26185
0.35968
1.0449
1.7046
2.2905
2.7592
3.0878
3.2508
3.261
3.1311
2.9018
2.5962
2.2574
1.8855
1.5009
1.1264
0.76469
0.41317
0.084574
-0.21345
-0.47328
-0.69998
-0.88593
-1.049
-1.1763
-1.268
-1.3419
-1.3928
-1.3903
-1.3368
-1.2043
-0.9598
-0.61847
-0.17525
0.36477
0.97866
1.5722
2.0995
2.5147
2.8
2.9146
2.9069
2.7745
2.5529
2.2752
1.9568
1.6231
1.2767
0.94045
0.62205
0.31892
0.043818
-0.20072
-0.40705
-0.5879
-0.72545
-0.84772
-0.94197
-1.0184
-1.0821
-1.0974
-1.0617
-0.94707
-0.73819
-0.41978
0.010704
0.59148
1.241
1.9135
2.5299
3.047
3.424
3.638
3.6456
3.5896
3.4011
3.1285
2.7949
2.4306
2.0383
1.6562
1.2665
0.90734
0.54053
0.21448
-0.07845
-0.34337
-0.57007
-0.7764
-0.94452
-1.077
-1.184
-1.2629
-1.2884
-1.2298
-1.0719
-0.79932
-0.35101
0.25524
0.96338
1.6919
2.3669
2.9324
3.3578
3.6227
3.6431
3.6074
3.4546
3.1897
2.8611
2.4815
2.0663
1.6511
1.2487
0.8513
0.46921
0.10495
-0.22364
-0.53441
-0.80442
-1.0388
-1.2425
-1.3928
-1.3979
-1.3903
-1.3852
-1.3979
-1.3979
-1.2935
-1.0413
-0.61083
0.020893
0.75705
1.5059
2.2013
2.7719
3.2101
3.475
3.5667
3.5106
3.3349
3.0623
2.7184
2.3236
1.9339
1.5238
1.1188
0.72903
0.34694
0.0005149
-0.33318
-0.63121
-0.90121
-1.1305
-1.3215
-1.3954
-1.4005
-1.3928
-1.3928
-1.3928
-1.3979
-1.3826
-1.2502
-0.98273
-0.53696
0.084574
0.8029
1.5263
2.1708
2.7006
3.0776
3.2916
3.3578
3.2559
3.0521
2.7719
2.4306
2.0612
1.6817
1.2818
0.8997
0.5278
0.17628
-0.14468
-0.42742
-0.6847
-0.90886
-1.0923
-1.2349
-1.3546
-1.3979
-1.3979
-1.3928
-1.3928
-1.3546
-1.2196
-0.96235
-0.59045
-0.091186
0.53034
1.1952
1.8371
2.3873
2.8203
3.0852
3.2075
3.1744
3.047
2.8076
2.5121
2.1784
1.8371
1.4856
1.1442
0.79271
0.47431
0.17628
-0.10392
-0.33827
-0.5395
-0.72291
-0.8732
-0.98018
-1.0642
-1.1381
-1.1763
-1.1712
-1.1126
-0.94452
-0.67451
-0.25421
0.32656
1.0322
1.7836
2.4866
3.0878
3.5412
3.6456
3.6405
3.6456
3.5972
3.4062
3.1285
2.777
2.3822
1.9772
1.5645
1.157
0.76215
0.38006
0.036177
-0.28733
-0.57517
-0.82989
-1.0591
-1.2349
-1.3801
-1.3979
-1.3903
-1.3877
-1.3877
-1.3776
-1.2502
-0.98273
-0.55224
0.05146
0.78252
1.5263
2.2243
2.8076
3.2508
3.5183
3.6278
3.5972
3.4087
3.1464
2.8152
2.4357
2.0332
1.618
1.2156
0.81564
0.44374
0.084574
-0.24402
-0.5446
-0.80442
-1.0286
-1.2324
-1.3801
-1.3852
-1.3903
-1.3979
-1.4005
-1.3928
-1.3903
-1.3113
-1.0974
-0.73564
-0.21091
0.46666
1.1977
1.8982
2.5198
3.0037
3.3323
3.4877
3.4954
3.3705
3.1235
2.8152
2.451
2.0765
1.6817
1.2843
0.90224
0.53289
0.18137
-0.13194
-0.41469
-0.68215
-0.89103
-1.0719
-1.2298
-1.3419
-1.4005
-1.3954
-1.3877
-1.3979
-1.3903
-1.3292
-1.1712
-0.90121
-0.51913
-0.0096741
0.6195
1.2996
1.9441
2.4994
2.9171
3.1795
3.2916
3.2559
3.0878
2.8356
2.5248
2.181
1.8244
1.4525
1.0806
0.74431
0.40808
0.10241
-0.1676
-0.39686
-0.60064
-0.76876
-0.90376
-1.0158
-1.0999
-1.161
-1.2043
-1.2196
-1.1967
-1.1126
-0.92669
-0.64904
-0.27204
0.22467
0.83347
1.511
2.1631
2.7516
3.2075
3.5208
3.638
3.6431
3.5208
3.2992
3.0012
2.6522
2.2854
1.8982
1.5187
1.1442
0.78507
0.44883
0.14061
-0.13958
-0.38412
-0.593
-0.7713
-0.91395
-1.0286
-1.1203
-1.1891
-1.2145
-1.2018
-1.105
-0.89357
-0.593
-0.13704
0.46666
1.1697
1.8753
2.5096
3.0394
3.4291
3.6507
3.638
3.5972
3.3986
3.1158
2.7592
2.3822
1.9772
1.5696
1.1697
0.77743
0.39534
0.064196
-0.25931
-0.52422
-0.77385
-0.97763
-1.1534
-1.2859
-1.3954
-1.3903
-1.3928
-1.3979
-1.3903
-1.3139
-1.1228
-0.81716
-0.38667
0.2043
0.8946
1.5798
2.2243
2.7516
3.1387
3.3578
3.4215
3.34
3.1438
2.8509
2.507
2.1377
1.7479
1.3531
0.97866
0.61186
0.26543
-0.040241
-0.32553
-0.57771
-0.78914
-0.96744
-1.1203
-1.2349
-1.3139
-1.375
-1.3928
-1.3903
-1.3826
-1.296
-1.1203
-0.84772
-0.45799
0.061649
0.69082
1.3633
2.0154
2.5707
3.0114
3.2916
3.3935
3.3603
3.1948
2.9451
2.6115
2.2574
1.8957
1.5161
1.1417
0.78507
0.44883
0.13807
-0.14723
-0.38922
-0.60319
-0.78149
-0.92159
-1.0464
-1.1483
-1.2196
-1.2655
-1.2909
-1.268
-1.1661
-0.97763
-0.68215
-0.32044
0.1508
0.72139
1.3378
1.9161
2.4102
2.7949
3.0216
3.1107
3.0623
2.8891
2.6446
2.3593
2.0383
1.7072
1.3684
1.0347
0.71884
0.42081
0.1508
-0.080997
-0.29751
-0.47328
-0.61083
-0.7331
-0.83753
-0.91395
-0.9649
-1.0006
-0.97763
-0.89867
-0.71272
-0.42742
-0.042789
0.46412
1.0678
1.6868
2.2778
2.7617
3.1158
3.3196
3.3705
3.2839
3.0929
2.8178
2.5019
2.1529
1.7836
1.427
1.0678
0.72648
0.40043
0.10495
-0.14468
-0.37648
-0.57262
-0.73564
-0.87065
-0.98018
-1.0617
-1.1203
-1.1381
-1.0974
-0.97763
-0.75602
-0.43761
0.0005149
0.55836
1.1799
1.7887
2.3465
2.8101
3.126
3.3069
3.3323
3.2279
3.0318
2.749
2.4382
2.0867
1.7199
1.3557
0.98885
0.64242
0.30873
0.0030622
-0.27204
-0.49875
-0.71526
-0.87829
-1.026
-1.1356
-1.2145
-1.2833
-1.3215
-1.296
-1.1865
-0.99546
-0.72291
-0.33827
0.16354
0.73413
1.3098
1.8447
2.288
2.6038
2.7719
2.805
2.7083
2.5223
2.2727
1.9721
1.6562
1.3378
1.0016
0.69082
0.3877
0.11514
-0.13194
-0.34591
-0.53186
-0.6796
-0.80442
-0.91395
-1.0006
-1.0439
-1.0846
-1.0744
-0.99801
-0.83499
-0.60828
-0.29751
0.1075
0.57874
1.0856
1.5722
1.9899
2.3032
2.4688
2.5121
2.4459
2.3032
2.0791
1.8294
1.5543
1.2741
0.9863
0.72394
0.46412
0.24505
0.046366
-0.13449
-0.29242
-0.42233
-0.52167
-0.61083
-0.6796
-0.73564
-0.74838
-0.71017
-0.57007
-0.3612
-0.068261
0.32911
0.80545
1.3455
1.8855
2.3491
2.7083
2.9451
3.0139
2.963
2.8101
2.5682
2.2956
1.9874
1.6562
1.3404
1.0322
0.72394
0.44629
0.18646
-0.030052
-0.2211
-0.39176
-0.53696
-0.65158
-0.7331
-0.80697
-0.85536
-0.83244
-0.72291
-0.52167
-0.22874
0.17118
0.69337
1.2614
1.8294
2.3465
2.7414
2.9986
3.0929
3.0623
2.9146
2.6624
2.3746
2.0383
1.6843
1.3276
0.97866
0.64752
0.33675
0.046366
-0.20581
-0.42488
-0.60573
-0.75857
-0.89612
-0.99801
-1.0744
-1.1177
-1.0948
-0.98782
-0.79423
-0.48856
-0.060619
0.47431
1.0653
1.6588
2.1733
2.586
2.8509
2.963
2.9375
2.7898
2.5656
2.2727
1.9594
1.6078
1.2614
0.91498
0.59403
0.296
0.010704
-0.24147
-0.4478
-0.6363
-0.78404
-0.89612
-0.99037
-1.0617
-1.0795
-1.0566
-0.92669
-0.68725
-0.30006
0.25524
0.94045
1.6486
2.3287
2.9095
3.3731
3.6482
3.6482
3.6456
3.5692
3.3629
3.0878
2.7363
2.3644
1.9695
1.5875
1.2028
0.83092
0.4794
0.14826
-0.15996
-0.4478
-0.69743
-0.92159
-1.1279
-1.2833
-1.3903
-1.3852
-1.3368
-1.1101
-0.66941
-0.014769
0.76215
1.5518
2.2676
2.8611
3.3145
3.5998
3.638
3.6253
3.4954
3.2508
2.9222
2.5529
2.1479
1.7301
1.3174
0.91753
0.5227
0.1508
-0.20581
-0.52677
-0.83499
-1.1152
-1.3648
-1.3954
-1.3928
-1.3954
-1.3928
-1.4005
-1.3928
-1.3139
-0.9598
-0.34846
0.39534
1.1621
1.8626
2.4459
2.8687
3.1489
3.2559
3.2228
3.0572
2.805
2.4841
2.1351
1.7505
1.3658
0.98885
0.61186
0.27052
-0.073356
-0.38667
-0.68215
-0.95471
-1.1967
-1.3903
-1.3928
-1.3979
-1.3979
-1.3928
-1.3928
-1.3928
-1.3776
-1.1712
-0.66941
0.038724
0.8462
1.6206
2.3083
2.8534
3.2355
3.4317
3.4852
3.396
3.1846
2.8967
2.5605
2.1886
1.8116
1.427
1.05
0.67044
0.32147
-0.0071269
-0.32299
-0.60319
-0.87829
-1.1279
-1.347
-1.3979
-1.3928
-1.3877
-1.3877
-1.3954
-1.3928
-1.375
-1.1636
-0.69743
-0.032599
0.74431
1.4983
2.1912
2.7363
3.126
3.3425
3.4037
3.2992
3.0954
2.8127
2.4765
2.102
1.7225
1.3378
0.96847
0.59657
0.26543
-0.063167
-0.36374
-0.64139
-0.89103
-1.1152
-1.3062
-1.3928
-1.3928
-1.3928
-1.3903
-1.3928
-1.3903
-1.3342
-1.1024
-0.70253
-0.10647
0.59148
1.3073
1.9645
2.5147
2.9095
3.1515
3.2126
3.1515
2.9757
2.7133
2.3949
2.0511
1.6868
1.3276
0.96593
0.63478
0.30364
0.0030622
-0.27714
-0.54205
-0.75347
-0.93942
-1.1024
-1.2222
-1.3164
-1.3699
-1.3877
-1.3648
-1.2451
-1.0311
-0.64394
-0.091186
0.61186
1.376
2.1224
2.7821
3.312
3.6456
3.6405
3.6405
3.6355
3.4775
3.2406
2.912
2.558
2.181
1.7989
1.4168
1.0474
0.69082
0.35713
0.036177
-0.26185
-0.51658
-0.74838
-0.9598
-1.1407
-1.2731
-1.3801
-1.3928
-1.3648
-1.2069
-0.8681
-0.31535
0.40553
1.2028
1.9746
2.6548
3.1948
3.5743
3.6482
3.6431
3.5998
3.4266
3.1387
2.805
2.423
2.0179
1.6104
1.2156
0.82073
0.45902
0.1075
-0.2211
-0.53186
-0.80697
-1.0541
-1.2757
-1.3928
-1.3979
-1.3852
-1.3928
-1.3979
-1.3979
-1.3215
-1.0209
-0.48601
0.23996
1.0474
1.8167
2.4994
3.0318
3.4037
3.6074
3.6482
3.5387
3.3272
3.019
2.67
2.2803
1.8804
1.4805
1.0856
0.70865
0.34949
0.0005149
-0.31535
-0.61083
-0.87829
-1.1228
-1.3342
-1.3928
-1.3877
-1.3903
-1.4005
-1.3928
-1.4005
-1.3623
-1.133
-0.68979
-0.052978
0.69592
1.4601
2.1529
2.7337
3.154
3.396
3.4775
3.4164
3.2304
2.9579
2.6166
2.2396
1.8422
1.4575
1.0729
0.70356
0.33675
0.0005149
-0.3128
-0.59809
-0.85791
-1.0897
-1.2833
-1.3852
-1.3979
-1.3928
-1.3979
-1.3852
-1.3903
-1.2935
-1.0413
-0.62611
-0.024958
0.67299
1.3786
2.0256
2.5707
2.963
3.2024
3.2814
3.2101
3.0216
2.7541
2.4459
2.0842
1.7225
1.3531
0.99904
0.65007
0.31638
0.0030622
-0.28733
-0.54715
-0.75857
-0.94707
-1.1075
-1.2375
-1.3139
-1.3801
-1.3877
-1.3648
-1.2502
-1.0388
-0.66177
-0.096281
0.6195
1.4142
2.181
2.8738
3.4189
3.6456
3.638
3.638
3.6456
3.5488
3.34
3.0343
2.6675
2.2829
1.9008
1.4983
1.1137
0.73922
0.38515
0.048913
-0.26695
-0.54969
-0.79678
-1.0235
-1.2145
-1.3801
-1.3852
-1.3877
-1.3928
-1.3623
-1.1738
-0.77385
-0.14723
0.62205
1.4142
2.1682
2.8076
3.3043
3.6278
3.6456
3.6482
3.5514
3.3221
3.0165
2.6471
2.2548
1.8422
1.4142
1.022
0.6144
0.25015
-0.11156
-0.43507
-0.74838
-1.0184
-1.2655
-1.3928
-1.3928
-1.3928
-1.3877
-1.3903
-1.3928
-1.3928
-1.3852
-1.2655
-0.90886
-0.3077
0.46666
1.2818
2.0612
2.7286
3.2508
3.5947
3.638
3.6507
3.5539
3.3323
3.0394
2.6853
2.288
1.8804
1.4652
1.0755
0.69337
0.32402
-0.024958
-0.34846
-0.65668
-0.92669
-1.1712
-1.3776
-1.4005
-1.3928
-1.3979
-1.3928
-1.3852
-1.3979
-1.3928
-1.319
-1.0413
-0.56498
0.11005
0.88696
1.6359
2.3313
2.8764
3.2763
3.5004
3.5514
3.4521
3.2457
2.9553
2.5962
2.2217
1.8345
1.427
1.0398
0.67044
0.30364
-0.030052
-0.34591
-0.6363
-0.89612
-1.1203
-1.296
-1.3979
-1.3928
-1.3928
-1.3877
-1.3928
-1.3877
-1.3928
-1.3011
-1.0795
-0.71017
-0.18034
0.49214
1.2207
1.8931
2.4892
2.9401
3.233
3.3629
3.3374
3.1795
2.9477
2.6267
2.2905
1.9186
1.5569
1.1824
0.83347
0.49468
0.17373
-0.11411
-0.37648
-0.60573
-0.80187
-0.95471
-1.077
-1.1763
-1.24
-1.2833
-1.3011
-1.2757
-1.1916
-1.0209
-0.7331
-0.3077
0.26543
0.95828
1.6995
2.4077
3.0139
3.4979
3.6533
3.6482
3.6507
3.5922
3.396
3.1209
2.7796
2.3975
2.0128
1.6206
1.2283
0.85639
0.48704
0.1559
-0.15742
-0.42997
-0.6796
-0.88593
-1.0515
-1.1916
-1.296
-1.3852
-1.3903
-1.3776
-1.2476
-1.0209
-0.64904
-0.10138
0.58638
1.3404
2.0485
2.6853
3.1769
3.531
3.6507
3.6431
3.5412
3.3094
2.9961
2.6318
2.2396
1.8269
1.4142
1.0245
0.63224
0.27817
-0.068261
-0.37648
-0.64139
-0.88338
-1.0897
-1.2604
-1.3928
-1.3928
-1.3979
-1.3954
-1.3928
-1.3877
-1.3444
-1.1738
-0.86555
-0.39176
0.26543
1.0143
1.7709
2.4612
3.019
3.4342
3.6456
3.638
3.5947
3.4062
3.1336
2.7872
2.4051
1.995
1.5875
1.1926
0.80545
0.41827
0.082027
-0.24912
-0.52932
-0.78914
-1.0107
-1.1891
-1.3393
-1.4005
-1.3877
-1.3979
-1.3877
-1.3954
-1.3954
-1.296
-1.0999
-0.7713
-0.30516
0.31383
1.0092
1.7276
2.3491
2.8687
3.2304
3.4291
3.4495
3.3527
3.1311
2.8305
2.4866
2.0995
1.7123
1.3302
0.95574
0.58893
0.24505
-0.073356
-0.34591
-0.59045
-0.79932
-0.97763
-1.105
-1.2247
-1.3062
-1.3648
-1.3979
-1.3928
-1.3852
-1.3139
-1.1534
-0.90631
-0.55479
-0.13194
0.3826
0.97357
1.5492
2.0816
2.4892
2.7694
2.8993
2.8917
2.7719
2.5478
2.2854
1.9746
1.6613
1.3276
1.0194
0.70611
0.42845
0.16354
-0.05043
-0.25421
-0.41978
-0.55224
-0.67196
-0.75857
-0.83499
-0.88338
-0.92414
-0.93688
-0.90121
-0.80697
-0.61592
-0.34591
0.0005149
0.42591
0.92517
1.4677
1.995
2.4637
2.8407
3.0649
3.1719
3.1362
3.0088
2.7872
2.5198
2.2141
1.8931
1.5594
1.2487
0.93026
0.65516
0.38515
0.15844
-0.040241
-0.21855
-0.36884
-0.47837
-0.59045
-0.66687
-0.728
-0.78404
-0.77895
-0.70762
-0.5446
-0.29497
0.069291
0.54563
1.1239
1.7556
2.3771
2.912
3.3247
3.6023
3.6405
3.6227
3.475
3.2279
2.9018
2.5325
2.1453
1.7454
1.3608
0.97357
0.60931
0.28071
-0.014769
-0.29242
-0.51913
-0.71017
-0.8732
-1.0057
-1.1152
-1.1992
-1.268
-1.2986
-1.3037
-1.2273
-1.0566
-0.79168
-0.41469
0.059102
0.67299
1.32
1.9746
2.5325
2.9757
3.2636
3.396
3.3731
3.2177
2.9681
2.67
2.3109
1.9364
1.5569
1.1875
0.81564
0.46921
0.16099
-0.11921
-0.38157
-0.593
-0.7713
-0.93178
-1.0541
-1.1585
-1.2222
-1.2859
-1.3215
-1.3164
-1.2655
-1.1024
-0.86301
-0.50894
-0.065714
0.49214
1.1417
1.7658
2.3364
2.7872
3.1107
3.2585
3.2508
3.1336
2.912
2.6216
2.2803
1.9262
1.5696
1.1977
0.85639
0.5278
0.21958
-0.05043
-0.29751
-0.4962
-0.6847
-0.82989
-0.9598
-1.0591
-1.1254
-1.1967
-1.2247
-1.2196
-1.1534
-0.99292
-0.74074
-0.38412
0.069291
0.62714
1.2436
1.8498
2.3847
2.8076
3.0776
3.1897
3.1591
3.0012
2.7541
2.4586
2.1122
1.753
1.3913
1.0296
0.69592
0.36732
0.087122
-0.17779
-0.38667
-0.59045
-0.74583
-0.88084
-0.98273
-1.0744
-1.1432
-1.1916
-1.212
-1.1941
-1.0999
-0.9165
-0.65923
-0.31789
0.099858
0.59912
1.1493
1.6843
2.1555
2.535
2.7694
2.8738
2.8331
2.7032
2.479
2.1988
1.8829
1.5722
1.2512
0.93791
0.65007
0.36732
0.13297
-0.073356
-0.25676
-0.42488
-0.5446
-0.65158
-0.74838
-0.81206
-0.85791
-0.89612
-0.89612
-0.84772
-0.69489
-0.47837
-0.16251
0.2476
0.74431
1.3276
1.9441
2.4994
2.9732
3.3196
3.5055
3.5438
3.4368
3.2381
2.9655
2.6318
2.2778
1.911
1.5442
1.1926
0.8462
0.52525
0.22722
-0.032599
-0.24402
-0.43761
-0.61083
-0.75602
-0.8681
-0.9598
-1.0235
-1.0566
-1.0388
-0.92159
-0.71781
-0.40705
0.059102
0.64752
1.3404
2.0281
2.6573
3.1795
3.5514
3.6405
3.638
3.6023
3.4164
3.126
2.7821
2.3975
1.9797
1.5722
1.1672
0.77743
0.39534
0.059102
-0.2644
-0.53696
-0.78149
-0.99037
-1.1585
-1.2986
-1.3928
-1.3877
-1.3928
-1.3928
-1.3852
-1.2833
-1.0591
-0.69998
-0.18034
0.48959
1.2181
1.9237
2.5478
3.0521
3.3884
3.5616
3.5922
3.4673
3.2228
2.9146
2.558
2.1657
1.7632
1.3633
0.96593
0.59148
0.22467
-0.098828
-0.40705
-0.67451
-0.9114
-1.1203
-1.2782
-1.3852
-1.3928
-1.3877
-1.3979
