0.82073
0.77233
0.72903
0.69337
0.65007
0.62459
0.58893
0.56091
0.53289
0.50997
0.4794
0.46666
0.45138
0.42336
0.41827
0.39789
0.39789
0.39789
0.44883
0.54053
0.66026
0.78252
0.8946
0.98885
1.0576
1.0856
1.0958
1.0958
1.0755
1.0322
0.97866
0.93791
0.87932
0.83347
0.78507
0.73667
0.69592
0.67299
0.62714
0.59403
0.56855
0.53544
0.51506
0.48959
0.46157
0.44883
0.4361
0.41827
0.39789
0.39025
0.40043
0.45138
0.54563
0.65261
0.78252
0.8997
0.98121
1.0474
1.0806
1.1009
1.0831
1.0627
1.0169
0.97612
0.91753
0.87422
0.82583
0.79017
0.74941
0.70611
0.67044
0.63733
0.60676
0.57365
0.55072
0.52016
0.49723
0.47431
0.45138
0.44374
0.42845
0.41062
0.41317
0.42336
0.47431
0.58129
0.70356
0.82583
0.92772
1.0169
1.0678
1.1035
1.1137
1.106
1.0704
1.0322
0.97866
0.92517
0.86404
0.82073
0.77488
0.73922
0.70356
0.65261
0.6195
0.59657
0.5711
0.54563
0.50997
0.47685
0.46921
0.43864
0.431
0.41062
0.40043
0.3877
0.41062
0.47685
0.59148
0.71375
0.83602
0.95064
1.0322
1.0856
1.1086
1.1264
1.1188
1.0907
1.0576
1.0067
0.9481
0.8946
0.8462
0.80545
0.75705
0.71629
0.67044
0.64242
0.60931
0.56346
0.54053
0.51506
0.48449
0.47176
0.44629
0.42591
0.41827
0.39279
0.3877
0.42591
0.48195
0.60167
0.72139
0.8513
0.95064
1.0169
1.0704
1.0984
1.1111
1.1009
1.0602
1.022
0.97866
0.91498
0.86658
0.81054
0.76979
0.72139
0.68063
0.63988
0.6195
0.58384
0.54563
0.5227
0.48959
0.46921
0.45902
0.43355
0.41827
0.40298
0.39025
0.38006
0.41317
0.46157
0.58129
0.69846
0.82583
0.92517
1.0092
1.0576
1.0856
1.1009
1.0882
1.0627
1.022
0.9863
0.92262
0.87932
0.82583
0.77743
0.72903
0.69846
0.65007
0.62714
0.59148
0.55327
0.52016
0.49723
0.46412
0.44629
0.43355
0.41062
0.39789
0.39025
0.3877
0.40298
0.46412
0.55582
0.68573
0.80035
0.91753
0.99904
1.0653
1.1009
1.1111
1.1009
1.0755
1.0372
0.97612
0.92772
0.87422
0.83092
0.77233
0.73922
0.69592
0.66026
0.62714
0.59912
0.5711
0.54053
0.50742
0.48449
0.46157
0.44119
0.42591
0.41572
0.39789
0.39025
0.40298
0.44629
0.53799
0.65516
0.77743
0.8946
0.98376
1.05
1.0806
1.0907
1.0882
1.0602
1.0118
0.96847
0.90479
0.86658
0.80545
0.77743
0.73413
0.69592
0.65771
0.63733
0.59148
0.57365
0.54053
0.50997
0.49978
0.4794
0.45138
0.43355
0.41827
0.40553
0.39025
0.41317
0.45647
0.54308
0.67044
0.80035
0.90989
1.0067
1.078
1.1111
1.1239
1.1188
1.0831
1.0423
1.0092
0.95574
0.88951
0.84111
0.79526
0.75196
0.7112
0.68063
0.65007
0.60167
0.5711
0.54308
0.51761
0.49468
0.47431
0.45647
0.431
0.41572
0.40808
0.39789
0.41572
0.4794
0.5762
0.69337
0.82583
0.94555
1.0296
1.0907
1.1213
1.129
1.1264
1.1009
1.0627
1.0041
0.95319
0.88951
0.84366
0.79526
0.74941
0.70865
0.67044
0.62714
0.59148
0.55836
0.53544
0.50487
0.48704
0.46412
0.44374
0.42081
0.40553
0.38515
0.38515
0.40298
0.45902
0.5762
0.69592
0.82328
0.93026
1.0143
1.0627
1.1009
1.1213
1.1035
1.0806
1.0423
0.99395
0.93536
0.88696
0.82583
0.77743
0.72903
0.68827
0.65516
0.62205
0.58129
0.54818
0.52525
0.48959
0.45902
0.44629
0.42336
0.40298
0.39534
0.38515
0.38006
0.39534
0.44883
0.55327
0.67809
0.808
0.92008
0.99649
1.0576
1.0882
1.0907
1.078
1.0576
1.0143
0.96847
0.91753
0.86404
0.81564
0.76469
0.72648
0.69082
0.64752
0.62205
0.57874
0.55836
0.52016
0.50487
0.47685
0.46157
0.42845
0.42591
0.40808
0.40043
0.39279
0.40808
0.46157
0.55327
0.67554
0.80035
0.90989
0.99904
1.0602
1.0933
1.1009
1.0806
1.0551
1.0169
0.97357
0.91498
0.86658
0.81564
0.77743
0.73158
0.69337
0.65261
0.6195
0.58638
0.55327
0.53544
0.49978
0.47176
0.44883
0.44374
0.42591
0.41827
0.39534
0.39025
0.41572
0.45138
0.55836
0.67809
0.79271
0.91243
0.99904
1.0653
1.0933
1.0984
1.0882
1.0678
1.0245
0.97102
0.93026
0.87422
0.83092
0.78252
0.73667
0.70356
0.67044
0.62969
0.60167
0.56601
0.54308
0.5227
0.48704
0.46921
0.45393
0.43355
0.42591
0.40043
0.40808
0.41572
0.46412
0.56091
0.69337
0.80545
0.93281
1.0194
1.0729
1.1086
1.1111
1.1035
1.0704
1.0347
0.9914
0.93281
0.87422
0.82837
0.78507
0.74941
0.70356
0.66026
0.63988
0.60167
0.5711
0.54818
0.51506
0.48959
0.46921
0.44883
0.4361
0.41317
0.40808
0.39534
0.41572
0.48449
0.58638
0.70865
0.83602
0.95574
1.0398
1.0984
1.1315
1.1417
1.129
1.1009
1.0525
1.0143
0.943
0.8946
0.84366
0.78762
0.75705
0.70865
0.6679
0.62459
0.59657
0.56346
0.53289
0.49978
0.48195
0.45647
0.42845
0.41827
0.40298
0.39534
0.39025
0.41062
0.4794
0.58893
0.7112
0.84366
0.94045
1.0245
1.0755
1.0958
1.1111
1.0984
1.0576
1.0271
0.96338
0.91753
0.86658
0.81309
0.7596
0.72139
0.67809
0.65007
0.6144
0.5711
0.53799
0.50997
0.48449
0.46666
0.45393
0.431
0.40808
0.39025
0.38006
0.3826
0.41062
0.48449
0.58638
0.72139
0.85385
0.95064
1.0194
1.0806
1.0958
1.1009
1.0907
1.05
1.0143
0.96338
0.90989
0.8513
0.8029
0.75705
0.72139
0.68573
0.64242
0.61186
0.57365
0.54308
0.52016
0.48959
0.46666
0.45138
0.42591
0.40808
0.39789
0.3877
0.3877
0.41572
0.49468
0.60676
0.73413
0.85385
0.95828
1.0347
1.0831
1.0984
1.0984
1.0856
1.0449
0.99904
0.95574
0.90989
0.85385
0.80035
0.7596
0.71629
0.68063
0.64242
0.61186
0.58638
0.55327
0.51761
0.48449
0.46921
0.44629
0.42336
0.41572
0.40298
0.39279
0.39025
0.42336
0.48959
0.60931
0.73667
0.8513
0.95319
1.0296
1.0755
1.0984
1.0958
1.0678
1.0372
0.9863
0.93536
0.88441
0.83856
0.80035
0.76724
0.72139
0.69337
0.64752
0.6144
0.58384
0.55836
0.52016
0.49978
0.48959
0.45647
0.45393
0.431
0.42336
0.40808
0.41062
0.44374
0.50487
0.62205
0.75196
0.87422
0.97357
1.0449
1.0882
1.1137
1.106
1.078
1.0474
1.0041
0.95319
0.8997
0.85385
0.80035
0.77233
0.72648
0.68063
0.65261
0.6195
0.59403
0.56601
0.53799
0.50742
0.47685
0.45647
0.4361
0.42591
0.40298
0.40298
0.39534
0.44119
0.52525
0.64497
0.77743
0.8997
0.99649
1.0602
1.1137
1.1264
1.1315
1.1188
1.078
1.0296
0.97612
0.92772
0.86658
0.82073
0.76215
0.72648
0.69592
0.65516
0.62205
0.5762
0.54818
0.5227
0.49468
0.46921
0.45393
0.42845
0.40298
0.39534
0.3826
0.39534
0.44883
0.55582
0.68573
0.81054
0.92008
1.0067
1.0755
1.1111
1.1111
1.1086
1.0831
1.0347
0.99904
0.9481
0.87932
0.83602
0.77233
0.73413
0.69337
0.65771
0.62205
0.58893
0.55327
0.53034
0.50997
0.46921
0.45647
0.431
0.41827
0.39534
0.37751
0.38515
0.39789
0.45647
0.56091
0.68063
0.808
0.93026
1.0067
1.0653
1.0907
1.1111
1.0907
1.0678
1.0296
0.97866
0.92008
0.86658
0.82328
0.78507
0.73922
0.69337
0.66026
0.62714
0.59657
0.55836
0.53544
0.50232
0.48195
0.44629
0.42845
0.41062
0.40298
0.38515
0.37496
0.40043
0.46157
0.55836
0.68318
0.81309
0.92262
1.0016
1.0653
1.0907
1.1009
1.0933
1.0653
1.0296
0.97357
0.92008
0.87168
0.82837
0.77488
0.73413
0.69592
0.6628
0.62714
0.59403
0.57365
0.54563
0.51761
0.48449
0.46921
0.45647
0.431
0.42081
0.40043
0.40553
0.42591
0.48449
0.58129
0.70865
0.82837
0.93536
1.0092
1.0525
1.078
1.0933
1.0704
1.0372
0.99395
0.95064
0.88696
0.84366
0.79781
0.75705
0.7112
0.68318
0.64242
0.61695
0.58384
0.56091
0.53799
0.49978
0.48449
0.46412
0.44374
0.42591
0.41317
0.39534
0.40298
0.43864
0.51251
0.62459
0.7545
0.87932
0.97357
1.0474
1.0907
1.1086
1.0984
1.078
1.0525
0.99904
0.94555
0.89206
0.83856
0.78507
0.74941
0.71629
0.68063
0.63733
0.60422
0.5762
0.55072
0.5227
0.49978
0.4794
0.46412
0.43355
0.42845
0.41062
0.39789
0.41062
0.46666
0.5711
0.69337
0.82073
0.93536
1.0347
1.0882
1.1264
1.1519
1.1468
1.1162
1.078
1.0271
0.97102
0.91498
0.85894
0.80035
0.76469
0.71375
0.67554
0.63478
0.59403
0.5711
0.53289
0.50997
0.47176
0.45902
0.42591
0.41317
0.39534
0.37751
0.37751
0.39789
0.47685
0.58893
0.70356
0.83347
0.94045
1.0169
1.078
1.1009
1.0984
1.0933
1.0704
1.022
0.97866
0.91753
0.86913
0.81564
0.76724
0.72139
0.67809
0.65007
0.6144
0.58638
0.55072
0.51761
0.49978
0.47685
0.44629
0.431
0.41827
0.39534
0.39279
0.39279
0.42336
0.49978
0.6144
0.74686
0.85894
0.9481
1.0271
1.078
1.0831
1.0831
1.0806
1.0398
0.99395
0.95064
0.89715
0.8462
0.79017
0.75196
0.71375
0.67044
0.63224
0.59657
0.55836
0.53289
0.50997
0.4794
0.45902
0.44374
0.41827
0.40298
0.39025
0.37751
0.39025
0.42845
0.51761
0.63733
0.76215
0.88696
0.97612
1.0449
1.0831
1.106
1.1009
1.0755
1.05
0.99904
0.943
0.89206
0.84366
0.79781
0.76215
0.72394
0.68318
0.63988
0.60931
0.58384
0.55327
0.52016
0.49214
0.47176
0.45138
0.43355
0.42336
0.40553
0.39789
0.40808
0.44883
0.53289
0.65516
0.78507
0.89715
0.98885
1.05
1.078
1.0958
1.0831
1.0551
1.0143
0.97102
0.91498
0.85639
0.81054
0.77233
0.73158
0.69592
0.66026
0.62714
0.58893
0.55836
0.54053
0.51506
0.49468
0.46921
0.45393
0.44119
0.42336
0.39789
0.40808
0.431
0.48959
0.59148
0.71375
0.84366
0.95319
1.0271
1.078
1.1035
1.1086
1.0933
1.0653
1.0118
0.95574
0.8997
0.8462
0.80545
0.7596
0.71629
0.68063
0.65261
0.61186
0.58638
0.55072
0.52525
0.49978
0.48449
0.45138
0.44374
0.42845
0.40298
0.39534
0.40553
0.45647
0.54818
0.67299
0.8029
0.92008
1.0067
1.0729
1.1162
1.134
1.129
1.1086
1.0704
1.0143
0.95574
0.89715
0.8513
0.79781
0.74686
0.71884
0.67554
0.64242
0.60422
0.56855
0.53799
0.50997
0.47685
0.45902
0.44119
0.41572
0.39534
0.37496
0.38515
0.40298
0.48704
0.59148
0.72394
0.83602
0.93791
1.0169
1.0755
1.1009
1.1009
1.0907
1.0602
1.0169
0.96593
0.91753
0.85894
0.80545
0.76469
0.71629
0.67809
0.65007
0.61695
0.57874
0.54818
0.52525
0.49723
0.47431
0.45138
0.44119
0.42591
0.41572
0.40808
0.41062
0.45902
0.55582
0.66535
0.78252
0.8997
0.98885
1.0423
1.0755
1.0856
1.078
1.0551
1.0194
0.97612
0.92008
0.87677
0.82583
0.78762
0.73922
0.70356
0.6628
0.64242
0.60422
0.56855
0.54818
0.51761
0.48959
0.47685
0.44883
0.4361
0.41827
0.40808
0.41062
0.431
0.50487
0.62205
0.73667
0.84875
0.94045
1.0143
1.0627
1.078
1.078
1.0627
1.022
0.98376
0.93281
0.88441
0.83347
0.78507
0.73922
0.69846
0.66535
0.63733
0.61186
0.5762
0.54818
0.51506
0.49978
0.47176
0.45393
0.43864
0.43355
0.41827
0.42081
0.44119
0.49978
0.61186
0.73413
0.84875
0.95574
1.022
1.0856
1.1111
1.1086
1.1035
1.0755
1.0347
0.98376
0.92008
0.87422
0.82583
0.77233
0.72648
0.68318
0.65516
0.61695
0.58638
0.55072
0.53034
0.50487
0.48704
0.46157
0.44374
0.42081
0.40808
0.39789
0.40808
0.45138
0.55072
0.67044
0.79781
0.89715
0.98376
1.0372
1.0729
1.0806
1.0755
1.0525
1.0143
0.97866
0.92008
0.86913
0.82328
0.77233
0.73667
0.69846
0.66026
0.62459
0.59912
0.56346
0.53034
0.51251
0.48704
0.46921
0.44883
0.431
0.41062
0.39279
0.39789
0.42845
0.50997
0.60931
0.72139
0.84111
0.93536
1.0016
1.0398
1.0729
1.0729
1.05
1.0067
0.96593
0.91498
0.86404
0.81564
0.76215
0.72648
0.68063
0.65261
0.6195
0.58893
0.56601
0.53289
0.49978
0.47685
0.46921
0.43864
0.42845
0.41317
0.40298
0.40043
0.41062
0.44883
0.53289
0.65771
0.78762
0.8946
0.97357
1.0398
1.078
1.0806
1.0704
1.0347
0.99904
0.95574
0.88951
0.84111
0.79526
0.7596
0.72903
0.69337
0.65516
0.62205
0.58384
0.55836
0.53034
0.50742
0.48195
0.46157
0.44883
0.42336
0.40808
0.40553
0.40808
0.42591
0.48959
0.60422
0.72648
0.84875
0.943
1.0245
1.0704
1.0907
1.0856
1.0678
1.0271
0.97612
0.93281
0.86658
0.81819
0.77488
0.73413
0.70101
0.68063
0.64497
0.61695
0.59657
0.56091
0.53799
0.50742
0.48959
0.47176
0.45647
0.44119
0.431
0.42591
0.431
0.48195
0.57365
0.69082
0.81819
0.92517
1.0169
1.0806
1.1009
1.1162
1.1035
1.0831
1.0449
0.99395
0.93281
0.87422
0.82328
0.77488
0.72648
0.68827
0.64752
0.61186
0.58384
0.55327
0.53034
0.51506
0.49214
0.46666
0.44119
0.42845
0.41572
0.39789
0.40043
0.45138
0.5278
0.64242
0.76215
0.88441
0.98121
1.0423
1.0882
1.1035
1.1086
1.0882
1.0576
1.0092
0.95828
0.90989
0.85385
0.8029
0.7596
0.71375
0.68063
0.64497
0.6195
0.58638
0.55072
0.5227
0.50232
0.48195
0.45647
0.43864
0.41572
0.40808
0.40043
0.40808
0.46412
0.55072
0.68063
0.8029
0.91498
0.99904
1.0627
1.0933
1.0984
1.0882
1.0551
1.0041
0.95828
0.91243
0.84875
0.80035
0.7596
0.71884
0.67299
0.63733
0.61186
0.58384
0.55072
0.53034
0.49723
0.4794
0.45902
0.431
0.42081
0.41317
0.40298
0.39534
0.40808
0.47431
0.58129
0.70101
0.82583
0.93026
1.0016
1.0525
1.0806
1.078
1.0653
1.0271
0.9914
0.93281
0.88441
0.83856
0.78762
0.74431
0.70611
0.6679
0.62714
0.59403
0.5711
0.54308
0.50997
0.48959
0.47431
0.45138
0.4361
0.42336
0.39789
0.39789
0.39534
0.41827
0.48959
0.61186
0.73413
0.85385
0.96083
1.0347
1.0882
1.106
1.0958
1.078
1.0372
0.98376
0.93536
0.87677
0.82328
0.77998
0.74686
0.7112
0.67809
0.64497
0.60931
0.58638
0.55072
0.53544
0.51506
0.48704
0.47431
0.45138
0.43864
0.41827
0.41317
0.42081
0.45902
0.53289
0.64497
0.76979
0.88696
0.96847
1.0398
1.078
1.0831
1.0704
1.0474
1.0067
0.95319
0.90224
0.85385
0.81564
0.76979
0.72394
0.69592
0.67044
0.63478
0.60422
0.5711
0.53799
0.51251
0.48959
0.48195
0.45902
0.44374
0.42591
0.41317
0.41572
0.43355
0.49214
0.59403
0.70865
0.83602
0.95064
1.0347
1.0856
1.1137
1.1111
1.0856
1.0576
1.0092
0.96083
0.90479
0.8462
0.80545
0.7545
0.72139
0.67809
0.65771
0.6195
0.58638
0.55582
0.53799
0.50232
0.49214
0.46666
0.45393
0.4361
0.41572
0.41572
0.41317
0.46157
0.53799
0.66026
0.78507
0.91243
1.0118
1.0856
1.129
1.1417
1.1417
1.1188
1.078
1.0194
0.96847
0.91753
0.85639
0.80545
0.76979
0.72903
0.67809
0.65007
0.6144
0.58129
0.55072
0.52525
0.50742
0.48449
0.46666
0.44374
0.42845
0.40808
0.40808
0.41572
0.46666
0.5762
0.69337
0.81309
0.92517
1.0092
1.0678
1.0958
1.0984
1.0907
1.0653
1.0143
0.95828
0.90989
0.86404
0.81054
0.75705
0.71629
0.68573
0.65007
0.61186
0.58893
0.55327
0.54053
0.51251
0.49723
0.46921
0.45138
0.43355
0.42081
0.41062
0.41572
0.431
0.49978
0.60931
0.72648
0.8462
0.95319
1.0169
1.0704
1.0984
1.0933
1.0704
1.0347
0.98376
0.93281
0.88187
0.83092
0.77998
0.74431
0.69592
0.66026
0.63224
0.59912
0.56855
0.54053
0.51506
0.49723
0.47431
0.45647
0.4361
0.41572
0.41062
0.40808
0.40553
0.43355
0.50997
0.61695
0.74941
0.85894
0.95828
1.0296
1.0678
1.0806
1.0704
1.05
1.0143
0.95828
0.8997
0.84875
0.80545
0.77233
0.73667
0.69082
0.6679
0.63224
0.60931
0.58129
0.56091
0.53799
0.50232
0.48959
0.4794
0.46666
0.44374
0.43864
0.42591
0.4361
0.46921
0.55582
0.67554
0.80035
0.90989
0.99904
1.0576
1.0933
1.0958
1.0806
1.0449
0.99649
0.94555
0.89206
0.8462
0.79526
0.7596
0.72903
0.69082
0.65261
0.63733
0.59657
0.5762
0.54563
0.53799
0.51506
0.49468
0.47176
0.45393
0.44119
0.431
0.42845
0.44374
0.50232
0.58384
0.71629
0.84366
0.95319
1.0347
1.0856
1.1188
1.1213
1.0907
1.0627
1.0245
0.97357
0.91243
0.86149
0.82073
0.76979
0.72394
0.70356
0.66535
0.62714
0.59912
0.5711
0.54053
0.50487
0.48449
0.46157
0.44883
0.43864
0.42591
0.42336
0.42336
0.45138
0.52016
0.63224
0.7596
0.87422
0.97102
1.0423
1.0933
1.1111
1.1009
1.0856
1.0423
0.99904
0.9481
0.8946
0.83092
0.78507
0.74941
0.70865
0.67299
0.63478
0.61186
0.56855
0.54563
0.51761
0.49214
0.47431
0.44883
0.4361
0.43355
0.41827
0.40808
0.41317
0.46412
0.55836
0.67809
0.8029
0.92517
1.0194
1.078
1.106
1.1162
1.106
1.078
1.0372
0.98885
0.93536
0.88696
0.83092
0.77743
0.74686
0.70611
0.6679
0.62969
0.59912
0.5711
0.55072
0.51761
0.48959
0.47685
0.46157
0.43864
0.42591
0.41062
0.40808
0.41827
0.45902
0.54818
0.67044
0.79526
0.8997
0.98885
1.0576
1.0958
1.1009
1.078
1.0551
1.0067
0.95319
0.90734
0.85385
0.8029
0.75705
0.71884
0.68063
0.63988
0.6144
0.58638
0.56346
0.53034
0.49723
0.47685
0.46157
0.44374
0.42845
0.41827
0.40553
0.40553
0.40553
0.46157
0.54818
0.67809
0.81054
0.91243
0.99904
1.0602
1.0958
1.1086
1.0933
1.0551
1.0143
0.96083
0.90989
0.85639
0.80545
0.76469
0.72648
0.69592
0.6628
0.62459
0.59403
0.56601
0.54053
0.51506
0.48959
0.46412
0.45393
0.431
0.42336
0.40808
0.40808
0.41572
0.46157
0.54818
0.67554
0.8029
0.92517
1.0067
1.0704
1.0984
1.1111
1.1009
1.0678
1.0194
0.96083
0.90479
0.85385
0.80035
0.76469
0.72903
0.69082
0.65261
0.63478
0.59148
0.56855
0.54053
0.51251
0.48704
0.47431
0.45647
0.44883
0.42591
0.42336
0.41572
0.41827
0.46157
0.55582
0.67299
0.80035
0.91753
1.0067
1.0678
1.1009
1.1137
1.0856
1.0576
1.0143
0.96847
0.91243
0.85385
0.80545
0.77233
0.72903
0.70101
0.6679
0.63988
0.59912
0.56855
0.54818
0.5227
0.49978
0.47176
0.46412
0.44119
0.42845
0.42591
0.42336
0.42081
0.46921
0.56091
0.68063
0.8029
0.91498
1.0041
1.0627
1.0958
1.1086
1.0958
1.0678
1.022
0.96847
0.90224
0.86149
0.8029
0.7596
0.72903
0.69337
0.66026
0.62714
0.59403
0.57365
0.54818
0.52525
0.49214
0.4794
0.46157
0.44629
0.42845
0.42591
0.41572
0.42336
0.4794
0.58129
0.71375
0.84111
0.95319
1.0398
1.0933
1.129
1.1468
1.1239
1.1035
1.0602
0.99904
0.9481
0.88187
0.83602
0.79526
0.74941
0.70865
0.6628
0.62714
0.59912
0.56091
0.53799
0.50742
0.48959
0.46412
0.45138
0.4361
0.42591
0.40553
0.41062
0.41317
0.47685
0.5711
0.68827
0.82073
0.93281
1.0092
1.0755
1.106
1.1137
1.1009
1.0678
1.0245
0.96847
0.91753
0.86658
0.81564
0.77743
0.72394
0.69337
0.6628
0.6195
0.58893
0.55836
0.53544
0.49723
0.48195
0.46157
0.44629
0.43864
0.42336
0.40808
0.40553
0.41062
0.45647
0.54818
0.67044
0.79781
0.91753
0.99904
1.0653
1.1009
1.0984
1.0882
1.0551
1.0092
0.95574
0.90479
0.85639
0.8029
0.76724
0.72139
0.68573
0.65771
0.61186
0.58893
0.56601
0.53034
0.49978
0.48959
0.46157
0.45647
0.43864
0.42591
0.41317
0.40808
0.41317
0.44883
0.53289
0.65516
0.77488
0.8997
0.99649
1.0678
1.0933
1.1111
1.1009
1.0704
1.0296
0.97357
0.91753
0.87168
0.81819
0.77743
0.73667
0.70865
0.6679
0.63478
0.60422
0.56855
0.53799
0.51761
0.49468
0.47431
0.44629
0.43864
0.42336
0.41317
0.39534
0.40298
0.43355
0.50742
0.6195
0.75196
0.87422
0.97102
1.05
1.0907
1.1137
1.106
1.078
1.0372
0.98885
0.93536
0.88696
0.83347
0.78507
0.75705
0.71629
0.68827
0.64752
0.61186
0.58893
0.56346
0.53799
0.50997
0.48704
0.4794
0.45902
0.44374
0.431
0.41317
0.40808
0.42336
0.48959
0.59148
0.71884
0.85385
0.96083
1.0322
1.0806
1.1162
1.1086
1.0806
1.0449
0.99649
0.94045
0.89206
0.83602
0.79017
0.7545
0.7112
0.67554
0.64242
0.61186
0.58893
0.55327
0.51761
0.49978
0.46921
0.45393
0.44374
0.431
0.41827
0.41317
0.41317
0.431
0.49468
0.60167
0.73667
0.87677
0.97866
1.0704
1.1213
1.1519
1.1621
1.1442
1.0984
1.05
1.0041
0.93791
0.87932
0.83092
0.77998
0.74431
0.70611
0.67044
0.63478
0.60931
0.56601
0.53799
0.51251
0.48195
0.47176
0.44883
0.43355
0.41317
0.40808
0.40043
0.42845
0.49723
0.60676
0.73413
0.86404
0.96847
1.0398
1.0831
1.1162
1.1188
1.0984
1.0653
1.0118
0.95319
0.89715
0.83856
0.78762
0.74431
0.7112
0.67809
0.63224
0.60676
0.5762
0.54308
0.5278
0.49978
0.46921
0.44883
0.43355
0.41572
0.40298
0.40553
0.39279
0.41317
0.48195
0.60422
0.72648
0.8513
0.95574
1.0347
1.0856
1.1137
1.1035
1.0907
1.0551
0.99904
0.95574
0.90224
0.8513
0.79781
0.7596
0.72139
0.68063
0.64242
0.61695
0.58384
0.54818
0.52016
0.49214
0.4794
0.45393
0.4361
0.41827
0.40808
0.39789
0.39789
0.42591
0.49468
0.60422
0.73413
0.86404
0.95828
1.0271
1.078
1.0882
1.0958
1.0627
1.0245
0.97866
0.93281
0.87932
0.82073
0.78507
0.74431
0.7112
0.67299
0.64752
0.60422
0.58129
0.55072
0.52016
0.49978
0.48195
0.45647
0.44883
0.431
0.41572
0.39789
0.40298
0.42336
0.48704
0.59403
0.71629
0.85385
0.95319
1.0296
1.0882
1.1035
1.1009
1.0806
1.0398
0.98376
0.93791
0.88696
0.83602
0.79526
0.74431
0.71629
0.68318
0.64752
0.6144
0.58384
0.55836
0.53034
0.50742
0.48449
0.46921
0.44629
0.431
0.42591
0.40553
0.40043
0.431
0.49468
0.60676
0.73667
0.86149
0.95828
1.0347
1.0933
1.1137
1.1111
1.0806
1.0398
0.97866
0.92772
0.88441
0.83092
0.79526
0.74941
0.7112
0.68318
0.64752
0.6195
0.58893
0.55327
0.53799
0.51761
0.49723
0.46921
0.45902
0.44374
0.431
0.42591
0.42336
0.45138
0.5227
0.63478
0.76215
0.88696
0.99395
1.0602
1.1086
1.1111
1.106
1.0882
1.0474
0.99649
0.94555
0.89206
0.84366
0.79781
0.76215
0.7112
0.68318
0.64752
0.62205
0.58384
0.55582
0.5278
0.50232
0.47685
0.46157
0.44374
0.42591
0.42591
0.41317
0.42845
0.46412
0.55072
0.6679
0.8029
0.91753
1.0169
1.078
1.1162
1.1315
1.1162
1.0933
1.0525
1.0016
0.94555
0.88441
0.84111
0.78762
0.74686
0.7112
0.68318
0.64752
0.6144
0.5711
0.54818
0.5227
0.48959
0.47431
0.44883
0.44629
0.42336
0.41062
0.41317
0.431
0.48959
0.59148
0.71884
0.83347
0.95064
1.0271
1.0831
1.106
1.1188
1.1086
1.0806
1.0372
0.97866
0.92517
0.87677
0.82583
0.77488
0.72648
0.68573
0.66026
0.61695
0.58638
0.55072
0.53034
0.50232
0.48704
0.45647
0.43864
0.42336
0.41572
0.39789
0.39789
0.41317
0.48449
0.5762
0.7112
0.83092
0.93281
1.0194
1.0704
1.1009
1.0984
1.0806
1.0551
0.99904
0.94045
0.89715
0.83856
0.79781
0.74941
0.71629
0.67809
0.64242
0.6144
0.5711
0.54053
0.52016
0.49978
0.46921
0.45647
0.43355
0.41317
0.41317
0.39789
0.40043
0.40808
0.48195
0.57874
0.70356
0.82837
0.93791
1.0118
1.0627
1.0856
1.0856
1.0678
1.0449
0.9914
0.94045
0.88696
0.83856
0.79781
0.74431
0.71375
0.68063
0.64242
0.60676
0.58129
0.55072
0.51761
0.49978
0.47685
0.45902
0.44374
0.42845
0.42591
0.40553
0.40808
0.43355
0.49978
0.60167
0.72903
0.84875
0.95828
1.0271
1.0806
1.0933
1.0856
1.0602
1.0296
0.98121
0.92772
0.87422
0.82073
0.78252
0.74941
0.69846
0.67809
0.63478
0.61695
0.58384
0.55072
0.53544
0.50997
0.48704
0.47176
0.45902
0.44374
0.42591
0.41317
0.41572
0.44629
0.5278
0.64242
0.77233
0.88441
0.98376
1.0525
1.1009
1.1111
1.106
1.0856
1.0423
1.0067
0.95574
0.89715
0.84111
0.80035
0.76215
0.7112
0.68318
0.64497
0.61186
0.58893
0.55582
0.52525
0.50742
0.48704
0.47431
0.45138
0.4361
0.41827
0.42081
0.43355
0.48449
0.57365
0.70101
0.83092
0.93536
1.0194
1.0729
1.106
1.1188
1.1086
1.0806
1.0423
0.9863
0.92772
0.87422
0.82328
0.76724
0.72394
0.69846
0.65261
0.6195
0.59148
0.55836
0.5278
0.50997
0.48704
0.46157
0.44119
0.42591
0.42591
0.41317
0.40298
0.41827
0.4794
0.59403
0.70611
0.82837
0.93791
1.0118
1.0602
1.0907
1.1009
1.0704
1.0398
0.99649
0.93536
0.89206
0.83856
0.78762
0.74941
0.7112
0.67554
0.63988
0.60167
0.58129
0.55836
0.51761
0.50232
0.4794
0.45902
0.44629
0.42336
0.42591
0.41317
0.40808
0.44629
0.51506
0.62714
0.76215
0.87422
0.96847
1.0322
1.0678
1.0958
1.0831
1.05
1.022
0.97612
0.91753
0.86404
0.81054
0.77233
0.73413
0.69846
0.66026
0.63224
0.59657
0.55836
0.5278
0.50232
0.47685
0.46666
0.45138
0.43355
0.41317
0.41317
0.40553
0.40553
0.45138
0.5278
0.64242
0.76979
0.88441
0.97357
1.0398
1.0806
1.0958
1.0831
1.0602
1.022
0.96847
0.92517
0.87168
0.82837
0.78762
0.74941
0.70611
0.67299
0.63988
0.60931
0.58129
0.56091
0.5227
0.50487
0.48704
0.47431
0.46157
0.43864
0.43864
0.42081
0.43864
0.48195
0.57874
0.68573
0.808
0.91753
0.99649
1.0525
1.0907
1.106
1.0882
1.0627
1.0169
0.97357
0.91498
0.86404
0.82073
0.77743
0.73158
0.69592
0.66026
0.63224
0.60167
0.5711
0.55072
0.52525
0.49978
0.47685
0.45393
0.44629
0.42591
0.42081
0.42081
0.44374
0.52016
0.62714
0.74686
0.85894
0.97357
1.0398
1.0933
1.106
1.1137
1.0984
1.0729
1.022
0.97866
0.91243
0.86658
0.81819
0.76469
0.72903
0.69337
0.6628
0.6144
0.59403
0.55582
0.52525
0.50487
0.48195
0.45902
0.4361
0.41827
0.41317
0.40298
0.41827
0.46921
0.56855
0.68827
0.80035
0.90734
0.98885
1.0602
1.0933
1.0984
1.0907
1.0678
1.0347
0.97866
0.92262
0.87677
0.82073
0.78252
0.74431
0.70356
0.66026
0.61695
0.59657
0.56601
0.54053
0.49723
0.47176
0.45902
0.43355
0.42081
0.40298
0.40043
0.39025
0.42845
0.49214
0.60676
0.72903
0.8462
0.93281
1.0194
1.0627
1.0755
1.0755
1.0627
1.0271
0.98885
0.94555
0.88696
0.83347
0.77998
0.74941
0.7112
0.67299
0.63478
0.59912
0.56601
0.5278
0.50742
0.48704
0.45902
0.44374
0.42336
0.40298
0.39534
0.38515
0.39789
0.43864
0.51761
0.63478
0.76215
0.88441
0.97866
1.0474
1.078
1.0933
1.0856
1.0602
1.0118
0.96338
0.91243
0.86404
0.81564
0.77488
0.73158
0.69337
0.65261
0.62459
0.59148
0.56601
0.54308
0.51251
0.48704
0.46412
0.45647
0.42845
0.42591
0.41572
0.41572
0.42591
0.49468
0.59148
0.72394
0.84366
0.94045
1.0245
1.0806
1.0984
1.0958
1.0907
1.0423
1.0067
0.9481
0.8946
0.83602
0.78762
0.75196
0.71375
0.6679
0.63988
0.59912
0.57874
0.53799
0.50997
0.49468
0.46921
0.44374
0.42591
0.41827
0.40553
0.39534
0.40808
0.4361
0.5278
0.63988
0.76724
0.89206
0.97357
1.0398
1.0907
1.0933
1.1009
1.0653
1.0194
0.96593
0.92772
0.86658
0.81819
0.76979
0.73667
0.69337
0.6628
0.62714
0.59403
0.56091
0.54053
0.51506
0.4794
0.45647
0.44883
0.42845
0.42591
0.41062
0.41317
0.42591
0.4794
0.57365
0.69337
0.81819
0.92517
1.0118
1.0551
1.0806
1.0882
1.0627
1.0398
0.98885
0.93536
0.87932
0.82837
0.79526
0.75705
0.7112
0.68318
0.63988
0.62205
0.58893
0.55072
0.53544
0.50742
0.49214
0.47176
0.45138
0.44374
0.42591
0.40808
0.41572
0.44883
0.51761
0.62969
0.76215
0.87677
0.97612
1.0474
1.0882
1.1111
1.1009
1.0882
1.0474
0.99649
0.9481
0.88187
0.83092
0.79017
0.75196
0.70611
0.67044
0.62969
0.59912
0.57365
0.54308
0.51506
0.49468
0.46412
0.45138
0.42336
0.41572
0.39534
0.39789
0.41572
0.47176
0.58638
0.71375
0.85385
0.95319
1.05
1.106
1.1213
1.1366
1.1239
1.0806
1.0398
0.9914
0.92517
0.88187
0.82583
0.77488
0.73922
0.69846
0.65516
0.62714
0.59403
0.55327
0.53034
0.49468
0.46921
0.45393
0.431
0.41062
0.40298
0.3877
0.39025
0.41317
0.48449
0.60167
0.73922
0.87422
0.96847
1.0423
1.0882
1.1009
1.1009
1.0856
1.0474
0.99395
0.93536
0.88441
0.83347
0.78507
0.73922
0.70101
0.6628
0.62714
0.59403
0.56346
0.53289
0.50487
0.47431
0.46412
0.431
0.42591
0.41317
0.39534
0.3826
0.39534
0.43864
0.53799
0.67044
0.79271
0.91753
1.0016
1.0704
1.106
1.1035
1.0933
1.0551
1.0092
0.96847
0.91753
0.8513
0.81564
0.77233
0.71884
0.68827
0.65771
0.6195
0.58893
0.55836
0.52016
0.49214
0.46921
0.45902
0.42845
0.42336
0.41062
0.39279
0.39025
0.41062
0.47685
0.58129
0.70356
0.83347
0.94555
1.0296
1.0729
1.0856
1.0933
1.0755
1.0372
0.9863
0.92517
0.86658
0.82328
0.77998
0.74686
0.70356
0.67554
0.63988
0.60422
0.56855
0.54308
0.52016
0.48959
0.46921
0.44629
0.4361
0.42336
0.40808
0.40553
0.41062
0.44629
0.53799
0.6628
0.79526
0.91243
1.0143
1.0755
1.1035
1.1188
1.1009
1.0678
1.0194
0.96083
0.90479
0.86658
0.80545
0.76469
0.73413
0.69082
0.66026
0.63224
0.59403
0.56091
0.54053
0.51251
0.48449
0.45902
0.43864
0.431
0.42591
0.41317
0.41062
0.431
0.49468
0.60931
0.74177
0.86658
0.96847
1.0423
1.0907
1.1035
1.0958
1.0704
1.0271
0.97612
0.92008
0.86658
0.83092
0.78507
0.74177
0.71629
0.68827
0.64752
0.61186
0.58893
0.56601
0.5278
0.51251
0.48449
0.46412
0.44883
0.43355
0.42591
0.41062
0.42336
0.47685
0.58129
0.70865
0.83347
0.95064
1.0296
1.0856
1.1035
1.1009
1.0831
1.05
1.0016
0.9481
0.89206
0.83602
0.79017
0.75196
0.70865
0.66535
0.63988
0.6144
0.58129
0.54818
0.52525
0.50232
0.48704
0.46412
0.44374
0.42845
0.42336
0.40553
0.40553
0.44883
0.53289
0.64242
0.77998
0.8997
0.99649
1.0551
1.0958
1.106
1.0856
1.0602
1.0143
0.96593
0.90479
0.85385
0.80545
0.76979
0.71629
0.68573
0.65771
0.62969
0.59148
0.5711
0.53289
0.51251
0.48704
0.46666
0.44629
0.4361
0.42081
0.40553
0.39789
0.40808
0.47431
0.58129
0.70611
0.84366
0.95828
1.05
1.1035
1.1264
1.1239
1.0933
1.05
0.99904
0.93791
0.88441
0.83092
0.78507
0.75196
0.7112
0.68063
0.65516
0.6195
0.60167
0.56855
0.53799
0.51506
0.48195
0.46666
0.44629
0.42336
0.40808
0.40298
0.41062
0.46157
0.55072
0.68318
0.81564
0.94045
1.0372
1.1111
1.1442
1.1468
1.1391
1.106
1.0551
1.0016
0.93536
0.88696
0.83856
0.78762
0.7596
0.71375
0.68318
0.63733
0.61695
0.5711
0.54053
0.52016
0.48704
0.46921
0.44883
0.42591
0.42336
0.40043
0.41062
0.43864
0.50997
0.63224
0.77233
0.89715
1.0041
1.078
1.1188
1.1442
1.1417
1.1111
1.0653
1.0143
0.96083
0.8946
0.83856
0.79526
0.75196
0.71375
0.67554
0.63224
0.59657
0.56601
0.52525
0.50742
0.4794
0.46157
0.4361
0.42081
0.40808
0.39279
0.37751
0.39025
0.44883
0.54308
0.68063
0.8029
0.92772
1.0169
1.0729
1.1035
1.106
1.0831
1.0398
0.99649
0.943
0.87932
0.82328
0.78252
0.74686
0.70611
0.66535
0.62969
0.59657
0.57365
0.54053
0.51251
0.48959
0.47431
0.45138
0.42845
0.41827
0.41572
0.40298
0.40298
0.42845
0.49214
0.61186
0.74177
0.85639
0.96338
1.0423
1.0856
1.1035
1.0984
1.0678
1.0271
0.96593
0.91753
0.85894
0.81819
0.76724
0.73158
0.69592
0.6628
0.63224
0.60676
0.58129
0.54818
0.5227
0.49723
0.46921
0.45393
0.44374
0.42081
0.40043
0.39025
0.40043
0.43355
0.5227
0.63988
0.77998
0.91243
1.0067
1.0729
1.1111
1.1137
1.0984
1.0627
1.0245
0.97102
0.91753
0.86658
0.81819
0.76979
0.73413
0.69846
0.6628
0.63733
0.59912
0.5711
0.54563
0.51761
0.49978
0.47431
0.44883
0.4361
0.42081
0.40553
0.40808
0.42336
0.4794
0.57874
0.70865
0.84111
0.94555
1.0372
1.0958
1.1086
1.1137
1.0907
1.0423
0.99395
0.93281
0.88696
0.83602
0.79526
0.7545
0.71375
0.68063
0.65007
0.6144
0.58638
0.55836
0.54053
0.52016
0.49978
0.47176
0.45647
0.44374
0.43355
0.42591
0.43355
0.47431
0.57365
0.68827
0.83092
0.95319
1.05
1.1111
1.1417
1.1544
1.129
1.0984
1.0576
0.98885
0.93791
0.88696
0.82328
0.78507
0.74177
0.70865
0.6679
0.62714
0.60167
0.57874
0.54563
0.52016
0.49978
0.47685
0.44883
0.4361
0.42845
0.41062
0.40553
0.44629
0.53034
0.64752
0.78762
0.90224
1.0067
1.0882
1.129
1.1544
1.1442
1.1188
1.0831
1.0322
0.96847
0.91753
0.85639
0.8029
0.7545
0.71884
0.68573
0.64497
0.60931
0.58384
0.55072
0.51761
0.48959
0.46412
0.44374
0.41827
0.40298
0.3877
0.39534
0.41062
0.45902
0.55836
0.69082
0.82583
0.93026
1.0067
1.0704
1.0958
1.1009
1.0882
1.0474
1.0016
0.9481
0.88951
0.8462
0.8029
0.75705
0.71375
0.67299
0.63733
0.59657
0.57874
0.54308
0.5227
0.48195
0.46921
0.44629
0.431
0.41572
0.40808
0.40298
0.39789
0.43355
0.51506
0.62969
0.75705
0.87168
0.96847
1.0372
1.0831
1.0882
1.0831
1.0525
1.0143
0.96338
0.90734
0.8513
0.8029
0.76724
0.71629
0.68318
0.65007
0.61186
0.58638
0.55836
0.52525
0.50742
0.48449
0.46921
0.44374
0.43355
0.41827
0.40043
0.39534
0.41827
0.46666
0.56855
0.69337
0.81819
0.93281
1.0194
1.0755
1.1111
1.1086
1.0882
1.0525
0.99649
0.93536
0.87677
0.83347
0.77488
0.73158
0.69846
0.6628
0.62969
0.60167
0.57874
0.55072
0.53289
0.49978
0.48449
0.46412
0.45138
0.43355
0.42081
0.41827
0.41827
0.44119
0.50487
0.6195
0.74941
0.87422
0.9863
1.0525
1.0882
1.1086
1.0882
1.0755
1.0271
0.98121
0.93026
0.87168
0.83602
0.78762
0.75196
0.71375
0.67809
0.65261
0.6144
0.58638
0.55582
0.5227
0.50742
0.48449
0.45902
0.45647
0.43355
0.41572
0.41062
0.43864
0.48195
0.58129
0.7112
0.8462
0.95319
1.0296
1.0856
1.1213
1.1137
1.0933
1.0602
1.0194
0.96338
0.90734
0.84875
0.81309
0.76469
0.72903
0.69082
0.65771
0.62969
0.58893
0.56855
0.53289
0.50232
0.47685
0.46921
0.44119
0.42591
0.40808
0.40553
0.40808
0.46412
0.54818
0.67044
0.80545
0.91753
1.0143
1.0882
1.129
1.1417
1.1366
1.1111
1.0678
1.0143
0.95828
0.8997
0.84366
0.80545
0.74941
0.7112
0.67299
0.63733
0.60167
0.5762
0.54563
0.51506
0.49468
0.47176
0.45138
0.431
0.41062
0.39534
0.3877
0.41827
0.4794
0.57874
0.7112
0.83602
0.94045
1.0118
1.0704
1.1035
1.0933
1.0806
1.0525
1.0067
0.9481
0.8946
0.83602
0.79781
0.74686
0.71375
0.68318
0.64242
0.60167
0.57365
0.54818
0.51761
0.48704
0.46666
0.44374
0.42336
0.42081
0.40298
0.39534
0.38515
0.41572
0.49468
0.60676
0.73413
0.8513
0.96338
1.0296
1.0755
1.1009
1.1035
1.0729
1.0271
0.9863
0.93536
0.87932
0.82583
0.78762
0.75196
0.70865
0.67299
0.63733
0.61186
0.5711
0.55582
0.52525
0.49978
0.48449
0.45902
0.4361
0.42845
0.41317
0.40043
0.40808
0.44883
0.52525
0.63988
0.7545
0.88187
0.97612
1.05
1.0882
1.0984
1.0907
1.0627
1.0169
0.97612
0.91243
0.86913
0.82837
0.78762
0.74431
0.70101
0.66535
0.63478
0.60167
0.5711
0.55327
0.5227
0.50487
0.48704
0.46157
0.45393
0.44374
0.42845
0.41572
0.42845
0.4794
0.57874
0.69592
0.82328
0.93791
1.0118
1.0806
1.106
1.1111
1.0984
1.0755
1.0194
0.97866
0.92517
0.86658
0.81819
0.76724
0.72903
0.69846
0.6628
0.63478
0.59912
0.56855
0.54563
0.51251
0.49723
0.46666
0.45138
0.44119
0.42845
0.41827
0.42081
0.45393
0.53034
0.64752
0.76979
0.8946
0.9863
1.0627
1.1086
1.1315
1.1162
1.1009
1.0729
1.0194
0.95574
0.90479
0.8513
0.80545
0.7545
0.72139
0.67554
0.63478
0.60931
0.58129
0.54308
0.5227
0.48704
0.47176
0.44883
0.43864
0.42591
0.41062
0.40553
0.40808
0.44883
0.53289
0.64242
0.77743
0.89715
0.98885
1.0423
1.0806
1.0958
1.0933
1.0678
1.0296
0.97866
0.93026
0.88441
0.83092
0.77998
0.73667
0.70101
0.6628
0.62714
0.59148
0.56601
0.53034
0.49978
0.47431
0.45138
0.44374
0.41827
0.39534
0.3826
0.3826
0.39279
0.43864
0.51506
0.63733
0.77233
0.8946
0.9863
1.0525
1.0907
1.106
1.0984
1.0755
1.0322
0.97357
0.91753
0.86658
0.81054
0.77998
0.74177
0.69082
0.6679
0.62969
0.59148
0.57365
0.53799
0.51251
0.48449
0.47685
0.44629
0.44119
0.41572
0.40553
0.39789
0.40553
0.45902
0.55582
0.66535
0.80545
0.92008
1.0092
1.0653
1.0907
1.1111
1.0907
1.0602
1.0143
0.96593
0.90479
0.86658
0.82073
0.77233
0.73413
0.69337
0.65771
0.6144
0.58893
0.55072
0.53034
0.50487
0.48195
0.45902
0.44119
0.43355
0.41572
0.41317
0.40298
0.41062
0.46666
0.56855
0.70101
0.83092
0.93791
1.0169
1.0856
1.1213
1.134
1.1111
1.0806
1.0474
0.99904
0.93281
0.8946
0.83347
0.79526
0.74431
0.70611
0.67299
0.63224
0.60422
0.5711
0.53034
0.50997
0.48449
0.45902
0.4361
0.42591
0.41827
0.40808
0.40043
0.41827
0.47685
0.58129
0.71375
0.84366
0.95828
1.0296
1.0907
1.1213
1.1315
1.1188
1.0958
1.0474
0.9914
0.93026
0.87168
0.82328
0.78507
0.73922
0.69082
0.65261
0.61186
0.58384
0.54563
0.52525
0.48704
0.46921
0.44629
0.43355
0.40298
0.40298
0.38515
0.38515
0.39279
0.45138
0.54308
0.67299
0.81564
0.92772
1.0041
1.0678
1.106
1.1035
1.1009
1.0729
1.0245
0.97866
0.92517
0.87422
0.81309
0.77233
0.72394
0.68573
0.65007
0.61186
0.59148
0.56091
0.52016
0.48959
0.46412
0.44119
0.42591
0.41062
0.40043
0.38515
0.37751
0.3826
0.4361
0.52525
0.64752
0.78762
0.90734
0.99904
1.0602
1.1035
1.1162
1.1035
1.0806
1.0347
0.9914
0.93536
0.87677
0.83347
0.79271
0.74941
0.70101
0.6628
0.6195
0.58638
0.56601
0.5227
0.50232
0.47176
0.45902
0.44629
0.42081
0.41317
0.40808
0.39534
0.39789
0.42845
0.51761
0.62969
0.76469
0.88951
0.98885
1.0602
1.0984
1.1162
1.106
1.0729
1.0398
0.97866
0.92517
0.86404
0.81564
0.78252
0.73158
0.69082
0.6628
0.63733
0.60167
0.57365
0.54563
0.52016
0.48959
0.46412
0.45647
0.43355
0.41827
0.41062
0.40298
0.40808
0.45138
0.5227
0.65007
0.78507
0.90734
0.99904
1.0729
1.106
1.1239
1.1264
1.1009
1.0704
1.0092
0.95319
0.90224
0.8462
0.79526
0.74686
0.71375
0.67809
0.63988
0.60676
0.56601
0.54053
0.51506
0.48959
0.46921
0.45902
0.4361
0.42081
0.41062
0.40043
0.41572
0.45138
0.54818
0.67299
0.80545
0.92772
1.0169
1.0806
1.1213
1.1366
1.1315
1.1086
1.0551
1.0118
0.9481
0.90734
0.84875
0.80035
0.76215
0.71629
0.67044
0.64242
0.59912
0.5711
0.54563
0.51506
0.48449
0.47176
0.45393
0.431
0.41317
0.40808
0.40808
0.42591
0.4794
0.58638
0.70611
0.83856
0.94045
1.0169
1.078
1.1035
1.1035
1.1009
1.0627
1.022
0.97866
0.92262
0.86658
0.81054
0.76215
0.72648
0.67809
0.64242
0.61186
0.57874
0.53799
0.50742
0.48449
0.46157
0.43864
0.41317
0.41062
0.38515
0.3826
0.37496
0.41062
0.48449
0.59403
0.72903
0.83856
0.94555
1.0143
1.0704
1.0755
1.078
1.0551
1.022
0.97866
0.91498
0.87677
0.81564
0.78507
0.73158
0.69846
0.67044
0.63224
0.59657
0.56346
0.54053
0.50997
0.49214
0.45902
0.45138
0.43355
0.40808
0.40043
0.39279
0.39789
0.44629
0.53034
0.65007
0.78252
0.90479
1.0092
1.0806
1.1162
1.1366
1.1188
1.0882
1.0525
0.99649
0.94045
0.88696
0.82837
0.79017
0.75196
0.70611
0.67809
0.63733
0.60422
0.57874
0.53799
0.51761
0.49978
0.47176
0.44883
0.43355
0.41317
0.39789
0.39789
0.41062
0.46412
0.55072
0.68063
0.82328
0.93791
1.0296
1.0755
1.1111
1.1213
1.1009
1.0729
1.0347
0.9863
0.93281
0.87422
0.82328
0.77233
0.72903
0.69337
0.65771
0.6144
0.58129
0.55327
0.5227
0.49723
0.46921
0.45902
0.43864
0.41827
0.41062
0.40043
0.39789
0.41062
0.46921
0.58129
0.69592
0.83092
0.94555
1.0296
1.078
1.106
1.0984
1.0882
1.0551
1.0016
0.9481
0.88951
0.8462
0.79271
0.76215
0.71629
0.67299
0.63988
0.60676
0.5762
0.54818
0.52016
0.48704
0.47431
0.45647
0.43355
0.41827
0.40808
0.39789
0.39025
0.41572
0.47685
0.59148
0.72648
0.84875
0.95828
1.0347
1.0882
1.0984
1.1035
1.0882
1.0398
1.0016
0.94555
0.8997
0.84366
0.80035
0.76215
0.72139
0.68318
0.64497
0.6144
0.56855
0.55072
0.51506
0.49214
0.47176
0.44374
0.42591
0.41572
0.39789
0.39534
0.40553
0.41572
0.49723
0.59912
0.73413
0.85894
0.96338
1.0347
1.0806
1.0984
1.0933
1.078
1.0372
0.98121
0.93536
0.88187
0.82583
0.79017
0.74941
0.71375
0.68063
0.65261
0.61695
0.59148
0.55072
0.53799
0.51251
0.4794
0.46921
0.45647
0.44119
0.42591
0.41062
0.40808
0.44119
0.5278
0.63988
0.77998
0.90224
1.0092
1.0755
1.1162
1.1239
1.1188
1.0958
1.0474
1.0092
0.9481
0.89206
0.84111
0.8029
0.75196
0.71884
0.67044
0.63733
0.61695
0.57874
0.54563
0.51506
0.49978
0.47431
0.45393
0.43864
0.41317
0.40808
0.40808
0.41062
0.45647
0.56346
0.69082
0.82583
0.93536
1.0322
1.0882
1.134
1.134
1.1213
1.0933
1.0602
0.99904
0.95319
0.88441
0.84366
0.79526
0.74686
0.70356
0.67299
0.62969
0.60167
0.56091
0.53034
0.50487
0.46921
0.45138
0.431
0.41827
0.40043
0.39279
0.37751
0.39534
0.46921
0.56855
0.69082
0.82328
0.93536
1.0296
1.0755
1.1162
1.1213
1.1111
1.0806
1.0347
0.97866
0.91753
0.87168
0.81819
0.76724
0.73413
0.68318
0.65516
0.6144
0.58129
0.54818
0.52016
0.49214
0.47431
0.45138
0.41827
0.41572
0.39789
0.39025
0.38515
0.40808
0.47176
0.58638
0.71375
0.8462
0.9481
1.0398
1.0806
1.1111
1.1213
1.0984
1.0551
1.0067
0.95828
0.90224
0.84111
0.79526
0.7596
0.70865
0.67044
0.63988
0.60676
0.5711
0.53799
0.51251
0.49214
0.47431
0.44883
0.431
0.42336
0.40808
0.39789
0.3877
0.41572
0.47431
0.58638
0.7112
0.84366
0.95319
1.0347
1.078
1.1137
1.1035
1.0755
1.0449
0.99904
0.9481
0.89715
0.84366
0.79526
0.74686
0.70611
0.67554
0.63478
0.6144
0.57874
0.54818
0.52016
0.49214
0.47685
0.45138
0.4361
0.42336
0.41062
0.39279
0.40553
0.42591
0.49214
0.59912
0.73667
0.87168
0.96593
1.05
1.0958
1.1111
1.1111
1.0907
1.05
1.0067
0.94045
0.8946
0.83856
0.78507
0.7545
0.70865
0.67299
0.63733
0.59912
0.5711
0.54818
0.52525
0.48959
0.46921
0.44883
0.43355
0.41317
0.40298
0.40553
0.41317
0.44883
0.53799
0.66535
0.80035
0.92517
1.0194
1.0856
1.134
1.1519
1.1366
1.1162
1.078
1.0296
0.97357
0.91498
0.86149
0.81054
0.75705
0.72139
0.68827
0.64497
0.6144
0.5762
0.54563
0.52016
0.48704
0.46666
0.44629
0.42845
0.40808
0.40808
0.39534
0.40298
0.46666
0.55836
0.68827
0.82073
0.93536
1.0245
1.0806
1.1137
1.1264
1.129
1.0984
1.0449
0.99904
0.93791
0.88187
0.83092
0.78252
0.73158
0.69082
0.6628
0.6144
0.59403
0.55582
0.53289
0.49978
0.47176
0.44883
0.42845
0.41062
0.39534
0.3877
0.37241
0.38006
0.44883
0.54563
0.67554
0.81054
0.92772
1.0194
1.0856
1.1086
1.1239
1.1137
1.0856
1.0347
0.98885
0.93026
0.86404
0.82328
0.76979
0.71884
0.67809
0.63988
0.60931
0.58129
0.55072
0.51761
0.48959
0.46412
0.4361
0.42845
0.40808
0.3877
0.3877
0.37241
0.39789
0.44374
0.54308
0.67554
0.8029
0.91498
1.0041
1.0704
1.0958
1.106
1.0984
1.0678
1.0296
0.97357
0.90989
0.86658
0.82328
0.77233
0.73158
0.69592
0.65261
0.6195
0.59912
0.56601
0.53289
0.49978
0.48704
0.44883
0.44374
0.42336
0.40043
0.39279
0.38515
0.39789
0.44883
0.53034
0.67044
0.79781
0.91498
1.0194
1.0729
1.1188
1.1213
1.1086
1.0704
1.0296
0.97357
0.91498
0.85639
0.81309
0.76215
0.72648
0.67809
0.64497
0.60422
0.58129
0.55582
0.5227
0.49978
0.47685
0.45138
0.4361
0.42845
0.41062
0.41572
0.39279
0.40553
0.43864
0.52525
0.6628
0.78252
0.90479
1.0092
1.0729
1.1086
1.1239
1.1137
1.0806
1.0296
0.97612
0.91753
0.86658
0.81564
0.77743
0.72903
0.69082
0.65771
0.61695
0.58893
0.56091
0.54563
0.51761
0.49978
0.4794
0.45393
0.44629
0.42336
0.40043
0.39534
0.39789
0.45138
0.54053
0.6628
0.808
0.92262
1.0194
1.0958
1.1315
1.1391
1.1391
1.1111
1.0551
1.0092
0.94555
0.89715
0.84366
0.79781
0.75196
0.71375
0.67299
0.63478
0.59657
0.5711
0.54563
0.50232
0.4794
0.46157
0.4361
0.42336
0.40553
0.40043
0.39025
0.40808
0.46412
0.56601
0.70101
0.83092
0.94045
1.0398
1.1009
1.1264
1.1391
1.134
1.1035
1.0576
1.0067
0.9481
0.8946
0.84366
0.79017
0.7596
0.7112
0.6679
0.64242
0.60167
0.56091
0.53799
0.50742
0.47685
0.45902
0.44374
0.41827
0.40298
0.39025
0.3826
0.40298
0.46157
0.56601
0.70101
0.83602
0.94045
1.022
1.0856
1.1137
1.1188
1.1035
1.0627
1.022
0.97357
0.90989
0.85385
0.8029
0.7545
0.70865
0.67044
0.62969
0.60167
0.57365
0.53289
0.50487
0.48959
0.46412
0.4361
0.42591
0.41062
0.40298
0.39789
0.3877
0.40808
0.47431
0.5762
0.69846
0.83602
0.94045
1.0245
1.0882
1.1111
1.1162
1.0882
1.0627
1.0067
0.94555
0.88696
0.84366
0.79526
0.75196
0.71375
0.67554
0.63988
0.60422
0.57874
0.54053
0.50487
0.48195
0.45138
0.43355
0.41062
0.39789
0.38515
0.37496
0.36732
0.39534
0.45393
0.56855
0.69337
0.83347
0.9481
1.0347
1.0882
1.1137
1.1111
1.0933
1.0627
1.022
0.96083
0.90734
0.8513
0.81564
0.77233
0.72648
0.69082
0.65516
0.62205
0.59403
0.56091
0.53034
0.50232
0.48959
0.45902
0.44883
0.43355
0.42591
0.41062
0.40553
0.431
0.48959
0.59657
0.73158
0.86404
0.96847
1.0423
1.1035
1.1239
1.129
1.0958
1.0653
1.0092
0.9481
0.90479
0.84111
0.8029
0.7596
0.72903
0.68318
0.64752
0.60931
0.5762
0.54818
0.52525
0.49978
0.48195
0.44883
0.4361
0.42081
0.40298
0.39789
0.40553
0.43355
0.50742
0.6195
0.75196
0.88441
0.99395
1.0678
1.1162
1.129
1.129
1.1111
1.0576
1.0143
0.96083
0.90224
0.85385
0.8029
0.74941
0.72139
0.67809
0.64242
0.60931
0.58129
0.55327
0.51251
0.49214
0.46412
0.44374
0.42591
0.42336
0.40553
0.39025
0.40808
0.45138
0.55072
0.67809
0.81054
0.93791
1.0347
1.1035
1.1519
1.1621
1.1621
1.1213
1.0806
1.0296
0.97102
0.91243
0.86404
0.80545
0.7596
0.70865
0.67299
0.62969
0.60167
0.56855
0.53544
0.49978
0.47685
0.45647
0.431
0.41317
0.40553
0.39789
0.39025
0.40808
0.46666
0.56346
0.69337
0.82073
0.94045
1.0372
1.0882
1.1162
1.1264
1.1137
1.0806
1.0347
0.97102
0.91498
0.86658
0.80545
0.75705
0.7112
0.67299
0.63224
0.60167
0.5711
0.54563
0.50742
0.47685
0.45902
0.44374
0.42336
0.40808
0.40043
0.39789
0.39534
0.41827
0.4794
0.60422
0.72648
0.85385
0.96593
1.0423
1.0856
1.1137
1.1111
1.0856
1.0551
1.0067
0.95828
0.8946
0.85385
0.79781
0.7545
0.7112
0.68063
0.64752
0.61695
0.58384
0.54563
0.52016
0.49214
0.46412
0.44629
0.42845
0.41062
0.40298
0.38006
0.38515
0.42081
0.49978
0.62205
0.75705
0.87932
0.9914
1.0576
1.0984
1.1213
1.1035
1.0831
1.0449
0.9863
0.93791
0.88441
0.83347
0.78762
0.75196
0.70101
0.67299
0.63478
0.59912
0.57365
0.54563
0.51761
0.49468
0.46921
0.45902
0.44119
0.41062
0.41317
0.39789
0.40553
0.43864
0.53544
0.6628
0.79271
0.90734
0.99904
1.0576
1.106
1.1111
1.0984
1.0729
1.022
0.97102
0.92517
0.86404
0.82583
0.77488
0.73667
0.70611
0.6679
0.62969
0.60167
0.5711
0.53034
0.50487
0.48704
0.45902
0.43864
0.42591
0.41572
0.40553
0.40808
0.42845
0.49723
0.59403
0.73158
0.86149
0.97357
1.05
1.1111
1.1391
1.1315
1.1264
1.0882
1.0398
0.97357
0.91753
0.86658
0.82583
0.77233
0.72394
0.68063
0.64497
0.6144
0.58384
0.55836
0.51761
0.49978
0.47431
0.45902
0.43864
0.42591
0.40553
0.39279
0.41572
0.45138
0.53799
0.67044
0.8029
0.92772
1.0169
1.078
1.1213
1.1391
1.1366
1.0984
1.0602
1.0092
0.9481
0.88951
0.82837
0.77998
0.73413
0.69082
0.65261
0.62459
0.59657
0.55836
0.52525
0.49978
0.46921
0.44883
0.431
0.41317
0.39789
0.38515
0.38006
0.40298
0.46666
0.57874
0.71375
0.83092
0.95319
1.0194
1.0831
1.1035
1.106
1.0806
1.0449
1.0092
0.9481
0.89715
0.84111
0.77743
0.73922
0.69082
0.6628
0.6195
0.58893
0.55836
0.53544
0.49978
0.47685
0.46157
0.4361
0.41827
0.40298
0.3877
0.38006
0.3877
0.42591
0.49978
0.62205
0.7545
0.88187
0.98885
1.0551
1.0907
1.1111
1.0958
1.0755
1.0398
0.98121
0.91753
0.87422
0.82583
0.77488
0.73413
0.68827
0.66026
0.61186
0.58129
0.54818
0.51761
0.48959
0.47176
0.44629
0.43355
0.41317
0.40298
0.39279
0.39789
0.40043
0.45902
0.55582
0.69082
0.81564
0.943
1.0296
1.0882
1.1111
1.1213
1.0958
1.0678
1.0194
0.96083
0.90224
0.8513
0.80545
0.77743
0.72648
0.69337
0.66026
0.62459
0.59148
0.56601
0.5227
0.49978
0.47176
0.45393
0.43355
0.41572
0.39534
0.38515
0.38515
0.42591
0.52525
0.63478
0.77743
0.90734
0.99649
1.0729
1.1213
1.1239
1.1264
1.1009
1.0627
1.0092
0.94555
0.89206
0.8462
0.8029
0.74941
0.71375
0.67044
0.64242
0.59912
0.57365
0.54053
0.51251
0.49214
0.46666
0.4361
0.42081
0.40553
0.39025
0.39279
0.41827
0.49468
0.59912
0.74686
0.86404
0.98885
1.0653
1.1162
1.1417
1.1442
1.1188
1.0958
1.0398
0.9863
0.92008
0.86404
0.81564
0.77233
0.72139
0.67554
0.63733
0.60931
0.57365
0.53544
0.50232
0.47176
0.46157
0.43864
0.40808
0.39789
0.39025
0.37496
0.39279
0.44883
0.55072
0.68063
0.808
0.93281
1.022
1.078
1.1111
1.1137
1.1086
1.078
1.0322
0.97866
0.92772
0.87168
0.81309
0.76215
0.71884
0.68063
0.64242
0.60167
0.56855
0.53289
0.50742
0.46412
0.43864
0.42336
0.40553
0.3877
0.37751
0.36732
0.37241
0.41062
0.49723
0.62205
0.76215
0.87932
0.98885
1.0551
1.106
1.1239
1.1111
1.0958
1.0602
1.0016
0.9481
0.88696
0.83092
0.78762
0.73922
0.70101
0.6628
0.62969
0.59148
0.56091
0.5278
0.49978
0.47176
0.44883
0.42336
0.41827
0.40298
0.39025
0.38515
0.39025
0.44883
0.54308
0.67554
0.81054
0.93536
1.0169
1.0729
1.1111
1.1213
1.1035
1.0729
1.0296
0.98376
0.92262
0.87422
0.81819
0.76979
0.73413
0.68063
0.64752
0.61186
0.56855
0.54308
0.51506
0.49468
0.47176
0.44374
0.431
0.40808
0.39534
0.38006
0.3826
0.40553
0.47176
0.58384
0.72139
0.85385
0.97612
1.0525
1.106
1.1239
1.1264
1.1188
1.0755
1.0322
0.97357
0.91498
0.85639
0.81054
0.76979
0.72394
0.68063
0.65007
0.61186
0.58129
0.55327
0.52525
0.49723
0.47431
0.43864
0.42591
0.40808
0.39025
0.39534
0.3877
0.41572
0.49978
0.6195
0.7596
0.88951
0.98885
1.0627
1.1137
1.1264
1.1162
1.0933
1.0474
0.99649
0.94555
0.88441
0.83092
0.77998
0.73922
0.70611
0.6679
0.62205
0.59657
0.55072
0.53034
0.49978
0.48195
0.44883
0.4361
0.41827
0.40808
0.38515
0.38006
0.3877
0.44883
0.54308
0.68573
0.82328
0.9481
1.05
1.106
1.1595
1.1646
1.157
1.134
1.078
1.022
0.96593
0.91243
0.84111
0.79526
0.74431
0.70101
0.6628
0.62459
0.59148
0.56091
0.51506
0.49468
0.46921
0.44883
0.42591
0.41062
0.3877
0.37751
0.37241
0.40298
0.46157
0.5711
0.70611
0.84111
0.95828
1.05
1.1035
1.134
1.1442
1.1315
1.106
1.0602
1.0016
0.94045
0.88187
0.81309
0.76979
0.72648
0.67809
0.63988
0.60931
0.56601
0.53289
0.50997
0.47685
0.45393
0.4361
0.41062
0.40043
0.37751
0.36223
0.36987
0.40298
0.47431
0.59403
0.72394
0.86404
0.96593
1.05
1.106
1.1239
1.1239
1.1111
1.0704
1.0194
0.96593
0.90989
0.84875
0.8029
0.74686
0.71375
0.6679
0.62714
0.59148
0.56855
0.52525
0.49978
0.47176
0.44883
0.42081
0.40808
0.39534
0.3877
0.36987
0.37241
0.40553
0.48449
0.61186
0.74941
0.88696
0.99649
1.0729
1.1035
1.1213
1.1239
1.0933
1.0602
1.0067
0.9481
0.89206
0.83856
0.78507
0.73667
0.70101
0.6679
0.62714
0.59403
0.55836
0.53289
0.49978
0.4794
0.45393
0.43864
0.42591
0.41317
0.39025
0.3826
0.38515
0.41827
0.50487
0.63224
0.77233
0.8997
0.99649
1.0678
1.1188
1.1366
1.1213
1.0907
1.05
0.99649
0.93536
0.87932
0.82583
0.77998
0.73667
0.70101
0.6628
0.63224
0.59657
0.56855
0.5278
0.51251
0.47685
0.45902
0.43864
0.41572
0.40808
0.39534
0.39025
0.40808
0.44374
0.54308
0.67809
0.81054
0.92262
1.0245
1.0831
1.1264
1.129
1.1239
1.1009
1.05
0.9863
0.92517
0.87422
0.82837
0.77743
0.73667
0.69337
0.65516
0.62969
0.58384
0.56601
0.53544
0.50742
0.48195
0.45902
0.43355
0.41572
0.40808
0.39534
0.37751
0.40298
0.46157
0.58129
0.72648
0.86149
0.97866
1.078
1.1391
1.1723
1.1748
1.1621
1.1391
1.0907
1.0296
0.96593
0.90479
0.8462
0.79781
0.73667
0.70101
0.65261
0.62459
0.58129
0.54818
0.5227
0.48959
0.46412
0.43864
0.42845
0.41062
0.3877
0.36987
0.37241
0.39789
0.47685
0.59657
0.72903
0.86149
0.97102
1.0525
1.1162
1.1417
1.1366
1.1315
1.0907
1.0372
0.98376
0.91753
0.86149
0.808
0.7545
0.7112
0.6679
0.62969
0.58638
0.55582
0.52525
0.48704
0.46921
0.44374
0.41062
0.39789
0.38006
0.36732
0.36732
0.36223
0.39025
0.47685
0.60676
0.73413
0.87168
0.97866
1.0602
1.106
1.1188
1.1213
1.0831
1.0551
0.99649
0.94045
0.88441
0.82328
0.78252
0.73667
0.69592
0.66535
0.61695
0.59912
0.55836
0.53799
0.50487
0.48449
0.46412
0.44374
0.42591
0.40298
0.39534
0.3877
0.39789
0.44374
0.54053
0.66535
0.80035
0.92262
1.0245
1.0831
1.129
1.129
1.129
1.1009
1.0423
0.99649
0.93791
0.88441
0.82328
0.78252
0.73158
0.69592
0.65007
0.63224
0.58893
0.56091
0.52525
0.49723
0.47176
0.44883
0.42845
0.41572
0.40298
0.39025
0.3826
0.41572
0.4794
0.60167
0.73413
0.86913
0.98376
1.0602
1.1239
1.1417
1.1544
1.1366
1.1009
1.0551
0.98885
0.92772
0.87677
0.82583
0.77233
0.73158
0.69082
0.65261
0.60931
0.58129
0.54563
0.51506
0.48704
0.46921
0.44883
0.41827
0.40808
0.39279
0.37751
0.38006
0.43864
0.5278
0.65261
0.79526
0.91753
1.0143
1.0806
1.1213
1.1366
1.1264
1.106
1.0602
0.99904
0.94045
0.87677
0.82583
0.77743
0.72394
0.69082
0.66026
0.6195
0.57874
0.56091
0.52525
0.49978
0.47176
0.44883
0.43355
0.41317
0.39534
0.36987
0.37751
0.38006
0.44629
0.56601
0.69337
0.82328
0.93536
1.022
1.0882
1.1162
1.1162
1.0958
1.0704
1.0245
0.97102
0.91243
0.85385
0.8029
0.76469
0.71375
0.67299
0.64242
0.60676
0.56855
0.53544
0.51506
0.48449
0.46666
0.43864
0.42081
0.40553
0.3877
0.37751
0.38515
0.41572
0.48704
0.61186
0.74686
0.87677
0.97612
1.0525
1.1035
1.129
1.1137
1.0933
1.0602
1.0041
0.93791
0.88187
0.82837
0.79271
0.74177
0.69337
0.6679
0.6195
0.59912
0.55582
0.53544
0.49723
0.48449
0.44883
0.4361
0.42336
0.39534
0.39534
0.38515
0.3826
0.41317
0.49723
0.6195
0.76215
0.8946
1.0041
1.0704
1.1213
1.1366
1.1188
1.0958
1.0474
0.99649
0.943
0.87932
0.82328
0.78252
0.74431
0.70101
0.67044
0.63733
0.59657
0.5711
0.54053
0.51761
0.49978
0.4794
0.45393
0.4361
0.41062
0.41062
0.3877
0.40043
0.45138
0.54053
0.6628
0.81309
0.92517
1.022
1.0958
1.129
1.1468
1.1315
1.0984
1.0423
0.9914
0.92517
0.86913
0.81564
0.76724
0.72648
0.69337
0.65007
0.61186
0.5762
0.55327
0.53289
0.49978
0.48195
0.45647
0.44119
0.41827
0.40298
0.39789
0.3877
0.39534
0.45393
0.56601
0.69592
0.84111
0.96593
1.0602
1.1162
1.1417
1.1493
1.1366
1.1009
1.0602
1.0067
0.93791
0.88187
0.82837
0.77743
0.73667
0.70101
0.6628
0.6195
0.58384
0.54563
0.5278
0.49978
0.46921
0.43864
0.41827
0.40043
0.38515
0.37751
0.36987
0.39789
0.47176
0.59148
0.72394
0.85894
0.97357
1.0551
1.1137
1.1417
1.1468
1.129
1.0958
1.0449
0.98885
0.93026
0.87168
0.81819
0.76469
0.71629
0.68063
0.63478
0.59912
0.57365
0.54308
0.50997
0.47176
0.4361
0.41827
0.40553
0.39279
0.36987
0.36732
0.36477
0.39025
0.48449
0.6144
0.75196
0.88951
0.99395
1.0653
1.1188
1.1417
1.129
1.1111
1.078
1.0143
0.95828
0.90479
0.84366
0.78507
0.73922
0.70356
0.66535
0.62969
0.59403
0.55836
0.53034
0.49723
0.48449
0.45647
0.431
0.42081
0.40553
0.38006
0.38006
0.37496
0.40043
0.48449
0.60931
0.76215
0.88441
0.99395
1.0729
1.1188
1.1442
1.1366
1.106
1.0627
1.0143
0.95064
0.89206
0.83092
0.78507
0.73413
0.69846
0.6679
0.62459
0.58893
0.55327
0.5278
0.49978
0.47176
0.45138
0.431
0.42081
0.39534
0.3877
0.38515
0.3877
0.42591
0.50487
0.62969
0.77233
0.89715
1.0067
1.0882
1.1315
1.1417
1.1391
1.0984
1.0551
0.99904
0.943
0.88441
0.83347
0.77488
0.74431
0.69592
0.66535
0.62205
0.59403
0.55582
0.5278
0.49978
0.48449
0.46412
0.4361
0.41827
0.40808
0.40553
0.39025
0.39279
0.431
0.52016
0.63478
0.78762
0.91243
1.0143
1.0907
1.1239
1.1315
1.1213
1.0856
1.0322
0.98121
0.92262
0.86658
0.81564
0.77233
0.73667
0.69337
0.65516
0.6144
0.58384
0.55836
0.53289
0.49978
0.4794
0.44883
0.42845
0.40808
0.40043
0.39025
0.37751
0.37751
0.43355
0.51761
0.65516
0.79781
0.92262
1.0296
1.1009
1.1442
1.1417
1.129
1.0958
1.0602
0.99395
0.943
0.87932
0.84111
0.78507
0.75196
0.7112
0.6679
0.62969
0.59403
0.56855
0.53034
0.49978
0.47685
0.45138
0.4361
0.41827
0.40553
0.39025
0.3826
0.39279
0.45138
0.55072
0.68318
0.82583
0.95828
1.0627
1.134
1.1723
1.1824
1.1799
1.134
1.0933
1.0322
0.96847
0.90734
0.84366
0.79271
0.75196
0.70865
0.6679
0.63224
0.59148
0.55072
0.53034
0.48959
0.47176
0.44374
0.431
0.42336
0.39789
0.3826
0.37751
0.40298
0.47176
0.59403
0.72648
0.86913
0.98121
1.0704
1.1137
1.1442
1.1468
1.1188
1.0882
1.0372
0.97866
0.90734
0.85894
0.81054
0.7545
0.7112
0.67299
0.63478
0.59148
0.55836
0.53289
0.50487
0.46412
0.44883
0.42845
0.41827
0.39789
0.3826
0.38006
0.37751
0.40553
0.48704
0.60167
0.74431
0.86658
0.9863
1.0627
1.1188
1.1417
1.129
1.1086
1.0678
1.0169
0.95828
0.90479
0.8462
0.79017
0.75196
0.70356
0.67044
0.63224
0.59912
0.5711
0.53544
0.50232
0.46921
0.44883
0.42845
0.40808
0.39279
0.38006
0.37241
0.37751
0.39789
0.46666
0.59403
0.73413
0.87168
0.98376
1.0627
1.1188
1.1417
1.1366
1.1137
1.0678
1.0143
0.943
0.88696
0.83856
0.79017
0.73922
0.7112
0.67044
0.62459
0.60167
0.5762
0.53289
0.52016
0.48959
0.45902
0.44374
0.43355
0.41317
0.39789
0.3877
0.3877
0.41062
0.49978
0.61186
0.75196
0.87932
0.98885
1.0678
1.1162
1.1213
1.1188
1.0907
1.0372
0.9914
0.93026
0.87168
0.82583
0.77233
0.73413
0.68827
0.6628
0.62205
0.59657
0.55072
0.53289
0.50232
0.4794
0.45902
0.4361
0.42591
0.41317
0.40808
0.39534
0.40808
0.44629
0.53544
0.66535
0.80035
0.93791
1.0398
1.1111
1.1493
1.1697
1.1544
1.1239
1.0755
1.0194
0.95064
0.89206
0.83347
0.77743
0.73413
0.69337
0.65261
0.6195
0.58638
0.55582
0.5278
0.50487
0.47685
0.45647
0.4361
0.41062
0.39789
0.3877
0.3877
0.39534
0.45902
0.56601
0.69846
0.8462
0.97612
1.0704
1.1366
1.1824
1.1926
1.1672
1.1417
1.0958
1.0398
0.97357
0.90479
0.85385
0.79526
0.7596
0.71375
0.67299
0.63478
0.59912
0.56346
0.52525
0.49978
0.46666
0.45138
0.42591
0.40553
0.39789
0.38515
0.37241
0.39025
0.46412
0.56855
0.70356
0.8462
0.96847
1.0551
1.106
1.1391
1.1315
1.1137
1.0678
1.0169
0.95828
0.8946
0.83602
0.78507
0.74177
0.69082
0.65261
0.61695
0.58384
0.55327
0.53034
0.50232
0.47431
0.45138
0.43864
0.41827
0.39789
0.39025
0.3826
0.37751
0.40553
0.46666
0.59148
0.72903
0.86658
0.97357
1.0551
1.1162
1.134
1.1239
1.106
1.0653
1.0143
0.95574
0.8946
0.84111
0.79017
0.74941
0.69592
0.66026
0.62459
0.59148
0.5711
0.53544
0.50742
0.47431
0.45393
0.431
0.42081
0.40298
0.39025
0.38006
0.36987
0.40553
0.47176
0.58893
0.72394
0.87422
0.9863
1.0704
1.1162
1.1417
1.1391
1.1086
1.0678
1.0118
0.95064
0.8946
0.82837
0.78507
0.73922
0.69846
0.65771
0.62969
0.59657
0.56601
0.54308
0.50742
0.49468
0.46666
0.44629
0.42591
0.40808
0.39279
0.38006
0.37751
0.41827
0.4794
0.59657
0.73667
0.86404
0.97612
1.0602
1.1162
1.1417
1.1391
1.1086
1.0602
1.0067
0.9481
0.8946
0.84111
0.8029
0.74941
0.71884
0.67044
0.64497
0.61186
0.56855
0.54308
0.50742
0.48449
0.46412
0.45647
0.43355
0.41827
0.40298
0.40298
0.39789
0.44374
0.5227
0.65261
0.79781
0.92772
1.0322
1.0933
1.1468
1.1519
1.1417
1.1162
1.0678
1.0092
0.95064
0.88441
0.83602
0.77743
0.74431
0.69337
0.66026
0.62714
0.58893
0.55582
0.53034
0.51251
0.48959
0.46412
0.44883
0.42845
0.40553
0.39789
0.38515
0.40553
0.45902
0.5711
0.69592
0.83856
0.95828
1.0653
1.1315
1.1672
1.1723
1.1595
1.1264
1.0806
1.0271
0.96593
0.90224
0.8513
0.79781
0.73667
0.70611
0.6679
0.61695
0.59148
0.55327
0.52525
0.49723
0.47431
0.45393
0.41827
0.41317
0.39534
0.38006
0.36732
0.39534
0.46666
0.5711
0.7112
0.84111
0.97102
1.0551
1.1111
1.1391
1.1391
1.1188
1.0755
1.0296
0.96847
0.90734
0.8513
0.79781
0.7545
0.7112
0.66535
0.62205
0.58638
0.55836
0.53034
0.49468
0.46666
0.44119
0.431
0.40553
0.3877
0.37751
0.36732
0.36987
0.39279
0.47685
0.59148
0.73667
0.87677
0.98885
1.0627
1.1111
1.1239
1.1315
1.1086
1.0653
1.0067
0.94555
0.88696
0.83602
0.77233
0.73413
0.69846
0.65516
0.62205
0.58893
0.55836
0.53544
0.49978
0.47685
0.45138
0.43355
0.41317
0.40043
0.3877
0.37241
0.3877
0.41827
0.49723
0.62459
0.76215
0.8997
1.0067
1.0831
1.1137
1.1391
1.1188
1.0933
1.0474
0.98376
0.92517
0.87168
0.82837
0.77743
0.73413
0.69846
0.65771
0.63224
0.59403
0.5711
0.53544
0.50997
0.48195
0.46921
0.44629
0.43864
0.431
0.42081
0.40808
0.41827
0.46157
0.56601
0.69592
0.83347
0.9481
1.0474
1.1111
1.1417
1.1417
1.129
1.0984
1.0449
0.98376
0.92772
0.87677
0.82328
0.77233
0.72903
0.68827
0.65261
0.61186
0.58129
0.55327
0.52525
0.49468
0.46157
0.4361
0.41827
0.40808
0.38515
0.38006
0.38006
0.40808
0.48704
0.60422
0.75196
0.8946
1.0041
1.0831
1.1366
1.1621
1.1646
1.1468
1.1137
1.0551
0.9914
0.92772
0.86404
0.808
0.76979
0.71884
0.68318
0.64242
0.60931
0.56855
0.53544
0.50997
0.48449
0.45138
0.42845
0.41062
0.39279
0.38515
0.36477
0.3826
0.42336
0.51761
0.64752
0.79017
0.92008
1.022
1.0882
1.1366
1.1544
1.1468
1.1009
1.0627
1.0092
0.94555
0.88441
0.82583
0.76979
0.72139
0.68063
0.63988
0.60676
0.57365
0.54053
0.50997
0.47685
0.45902
0.42591
0.40553
0.40298
0.37751
0.36477
0.35968
0.3826
0.44374
0.55072
0.69082
0.82583
0.9481
1.0398
1.0984
1.1315
1.1391
1.1239
1.0755
1.0296
0.97102
0.91243
0.85639
0.81309
0.76215
0.71629
0.68827
0.64497
0.60422
0.57365
0.54818
0.52525
0.50232
0.46921
0.45647
0.44374
0.41062
0.39789
0.38515
0.3826
0.40808
0.47176
0.58638
0.72394
0.85639
0.96847
1.0525
1.1035
1.1239
1.1137
1.0933
1.0398
0.99395
0.94555
0.88187
0.82583
0.78762
0.75196
0.70865
0.67809
0.63733
0.60422
0.5711
0.54053
0.51251
0.49214
0.46157
0.44629
0.41827
0.40808
0.39279
0.38515
0.39025
0.43355
0.54053
0.67044
0.81054
0.92008
1.0245
1.0882
1.1239
1.1417
1.129
1.0958
1.0449
0.99395
0.92772
0.87168
0.81564
0.76215
0.72903
0.68573
0.64752
0.6195
0.57365
0.54818
0.51761
0.49723
0.46921
0.44374
0.42081
0.40298
0.3877
0.38006
0.37751
0.41062
0.48959
0.62205
0.75196
0.89206
1.0067
1.0806
1.1391
1.1672
1.1621
1.134
1.1035
1.0372
0.98885
0.92008
0.86404
0.81054
0.75705
0.70865
0.6679
0.63478
0.60422
0.55836
0.53034
0.50742
0.47431
0.44883
0.43355
0.42081
0.40043
0.39025
0.3826
0.37751
0.42845
0.5278
0.66026
0.80035
0.93281
1.0245
1.0958
1.134
1.129
1.1213
1.0907
1.0372
0.98885
0.92517
0.86913
0.81054
0.76215
0.71884
0.67554
0.63224
0.60422
0.56091
0.53799
0.50997
0.48449
0.45902
0.42845
0.42081
0.39789
0.37751
0.36732
0.36477
0.39279
0.45138
0.56346
0.70865
0.8462
0.95574
1.0576
1.1086
1.1442
1.1468
1.1213
1.0831
1.0143
0.96083
0.8997
0.83602
0.79017
0.74686
0.70101
0.66535
0.6195
0.58384
0.56091
0.53289
0.49978
0.46921
0.45138
0.431
0.41827
0.39789
0.37751
0.37241
0.37241
0.40298
0.48704
0.60167
0.73922
0.87677
0.98885
1.0729
1.1213
1.1442
1.1442
1.1162
1.0704
1.0194
0.95574
0.8946
0.83856
0.78507
0.74431
0.69592
0.6628
0.62459
0.59148
0.56855
0.54308
0.50997
0.48195
0.45138
0.4361
0.42336
0.40298
0.39534
0.38515
0.39534
0.42845
0.51506
0.64242
0.78507
0.91498
1.022
1.0958
1.1239
1.1391
1.1264
1.0933
1.05
0.98885
0.93026
0.86913
0.808
0.7596
0.72394
0.67554
0.64752
0.61186
0.57365
0.55072
0.5227
0.49468
0.47431
0.44629
0.42845
0.40808
0.3877
0.3877
0.37751
0.39025
0.43864
0.53544
0.67554
0.81564
0.94045
1.0474
1.1162
1.1442
1.1544
1.1442
1.1009
1.05
0.99649
0.93536
0.87677
0.82837
0.77743
0.72139
0.68318
0.64242
0.60931
0.57874
0.55327
0.5227
0.49214
0.46921
0.44883
0.42845
0.41572
0.40043
0.38515
0.3826
0.40808
0.45902
0.5762
0.72394
0.86913
0.98885
1.078
1.1417
1.1723
1.1748
1.157
1.1213
1.0729
1.0143
0.95064
0.8946
0.83347
0.77488
0.73922
0.69082
0.65007
0.6144
0.58129
0.54818
0.51761
0.48959
0.46412
0.44374
0.42336
0.40553
0.39789
0.38515
0.3826
0.41572
0.50997
0.63733
0.77998
0.90734
1.0194
1.1009
1.1417
1.157
1.1519
1.1188
1.0729
1.0245
0.95828
0.90224
0.8462
0.79526
0.74686
0.70101
0.65516
0.6195
0.5762
0.55582
0.51761
0.49723
0.46412
0.43864
0.41317
0.40043
0.38515
0.36987
0.36477
0.37241
0.41062
0.50997
0.65007
0.79017
0.91753
1.022
1.0958
1.1366
1.1468
1.134
1.1086
1.0551
0.98885
0.93791
0.87168
0.81819
0.76469
0.72648
0.67299
0.63988
0.59912
0.56601
0.53034
0.50232
0.46666
0.44883
0.42591
0.40298
0.39789
0.37751
0.36223
0.35968
0.37241
0.4361
0.53544
0.68063
0.82073
0.95828
1.0602
1.1137
1.1544
1.1621
1.1519
1.106
1.05
0.99395
0.93026
0.87168
0.82073
0.76469
0.72139
0.69082
0.64752
0.61186
0.57874
0.54818
0.50997
0.48449
0.46666
0.44119
0.42336
0.40553
0.39025
0.3877
0.38006
0.39789
0.45647
0.56091
0.70865
0.84875
0.96847
1.0627
1.106
1.1391
1.1315
1.1137
1.0704
1.0118
0.95319
0.90734
0.84366
0.80035
0.75196
0.70101
0.6628
0.63478
0.59912
0.56855
0.53034
0.50997
0.4794
0.45647
0.44119
0.42081
0.40553
0.3877
0.37496
0.38515
0.42081
0.49723
0.6144
0.76724
0.90479
1.0169
1.1035
1.1519
1.1672
1.157
1.129
1.0856
1.0296
0.97102
0.90224
0.85894
0.79526
0.7596
0.71629
0.67044
0.63733
0.60167
0.56601
0.51761
0.49978
0.46921
0.44883
0.42845
0.40553
0.39534
0.38515
0.36732
0.38515
0.42845
0.53034
0.6628
0.81819
0.9481
1.0653
1.1391
1.1773
1.1926
1.1824
1.1442
1.1009
1.0474
0.97612
0.90224
0.8513
0.79526
0.73922
0.69846
0.65261
0.62205
0.58129
0.54818
0.5227
0.48704
0.46412
0.4361
0.40808
0.39025
0.3826
0.36732
0.36223
0.38006
0.44629
0.55836
0.70356
0.84875
0.97102
1.0678
1.1213
1.1621
1.1519
1.1468
1.1111
1.05
0.99904
0.93536
0.85894
0.81309
0.74686
0.70101
0.6628
0.62205
0.58638
0.55836
0.53289
0.50487
0.48449
0.46412
0.44119
0.41572
0.39534
0.38515
0.37241
0.35968
0.3877
0.45902
0.57874
0.71884
0.85639
0.97612
1.0627
1.1239
1.1493
1.1417
1.1188
1.0882
1.0271
0.96083
0.90224
0.8513
0.79271
0.74431
0.7112
0.6679
0.62969
0.59148
0.55836
0.5278
0.50232
0.46157
0.44883
0.42591
0.40298
0.3877
0.37751
0.36732
0.36987
0.39279
0.47431
0.59148
0.74177
0.87932
0.9863
1.0755
1.1213
1.1544
1.1519
1.1213
1.0729
1.0143
0.94555
0.88951
0.82837
0.77488
0.72648
0.68827
0.65771
0.62459
0.58893
0.55836
0.5278
0.50997
0.48195
0.45902
0.431
0.40808
0.39789
0.3826
0.36477
0.36987
0.39789
0.48195
0.60167
0.75705
0.89715
1.0169
1.0907
1.1315
1.1493
1.1493
1.1264
1.0806
1.0169
0.95828
0.89206
0.84111
0.79271
0.73922
0.7112
0.66535
0.62969
0.59912
0.55327
0.5278
0.49978
0.46921
0.45138
0.42081
0.40298
0.39789
0.37496
0.36987
0.36987
0.40043
0.48959
0.6144
0.76215
0.90734
1.0245
1.0984
1.1493
1.1595
1.1442
1.1162
1.0704
1.0016
0.94555
0.87932
0.82583
0.78507
0.73922
0.70101
0.6628
0.62714
0.59657
0.55327
0.53034
0.50232
0.48195
0.44629
0.43864
0.41062
0.40298
0.39534
0.37751
0.37496
0.42336
0.50997
0.63988
0.78507
0.92008
1.0372
1.1162
1.1621
1.1773
1.1723
1.1391
1.0907
1.0322
0.96593
0.90734
0.84875
0.79017
0.74177
0.69337
0.66535
0.62205
0.58638
0.56091
0.5278
0.49723
0.46666
0.44883
0.431
0.40808
0.40553
0.3826
0.3826
0.37496
0.41827
0.52016
0.65771
0.8029
0.95319
1.0576
1.1366
1.1672
1.185
1.1773
1.1493
1.0882
1.0423
0.97357
0.91243
0.86149
0.808
0.76215
0.7112
0.67044
0.63224
0.59403
0.55836
0.5227
0.49723
0.46921
0.4361
0.40808
0.39534
0.37751
0.35968
0.36223
0.35204
0.40298
0.49468
0.62969
0.77743
0.92008
1.0194
1.0984
1.1442
1.1595
1.1519
1.1213
1.0653
1.0067
0.9481
0.87422
0.82837
0.77488
0.72139
0.67554
0.65007
0.61186
0.58638
0.54818
0.51761
0.48959
0.46921
0.44883
0.41827
0.40553
0.39025
0.3826
0.35968
0.36732
0.40553
0.48704
0.6195
0.77743
0.92262
1.0296
1.1162
1.1493
1.1697
1.1621
1.1264
1.0755
1.0245
0.95574
0.90224
0.83347
0.78507
0.73667
0.69592
0.6628
0.62714
0.59403
0.55582
0.5227
0.49978
0.46666
0.44374
0.42591
0.40808
0.39789
0.37751
0.37241
0.37241
0.40298
0.47176
0.60422
0.75196
0.88951
1.0092
1.0958
1.1417
1.1468
1.1442
1.1162
1.0551
1.0041
0.943
0.88441
0.83092
0.78252
0.74431
0.70101
0.6679
0.63733
0.60422
0.57365
0.53544
0.50742
0.48449
0.45138
0.44119
0.42081
0.40298
0.39025
0.38515
0.37496
0.39534
0.4794
0.60676
0.7545
0.89715
1.0143
1.1035
1.1417
1.1595
1.1519
1.1264
1.0704
1.0092
0.9481
0.88441
0.83602
0.79271
0.74941
0.70611
0.67554
0.62714
0.60422
0.56855
0.54308
0.50232
0.48959
0.46666
0.4361
0.41062
0.41317
0.39534
0.37751
0.38515
0.41827
0.50487
0.61695
0.76724
0.91498
1.0347
1.1111
1.1748
1.1926
1.185
1.157
1.1035
1.0525
0.98376
0.93536
0.87422
0.81309
0.76724
0.72648
0.68063
0.63478
0.60167
0.5711
0.53289
0.49723
0.47176
0.44883
0.41827
0.40808
0.39025
0.37241
0.36732
0.36987
0.40553
0.50742
0.63988
0.78762
0.92772
1.0347
1.1213
1.1723
1.185
1.1824
1.1621
1.1111
1.0551
0.9863
0.93281
0.86149
0.81054
0.76469
0.70865
0.67044
0.63733
0.59403
0.55836
0.53034
0.50487
0.46921
0.44629
0.42845
0.40553
0.39025
0.36987
0.36732
0.37751
0.41317
0.49468
0.62459
0.77488
0.91243
1.0245
1.0958
1.1468
1.1595
1.1442
1.1213
1.0729
1.0296
0.96338
0.8997
0.8462
0.78762
0.74431
0.68827
0.65261
0.6144
0.5762
0.53799
0.50742
0.49214
0.45902
0.431
0.41827
0.39789
0.39025
0.37241
0.35458
0.35713
0.39534
0.48959
0.61186
0.76469
0.90224
1.0016
1.0907
1.129
1.1417
1.1442
1.1035
1.0627
1.0143
0.93791
0.87932
0.82328
0.77998
0.73667
0.69082
0.66535
0.62459
0.58638
0.56091
0.5227
0.49978
0.47685
0.45902
0.42591
0.41062
0.39534
0.3877
0.38006
0.39534
0.4361
0.54563
0.67299
0.82328
0.9481
1.0449
1.1086
1.1468
1.1595
1.1417
1.1137
1.0551
1.0067
0.943
0.88441
0.83856
0.78252
0.73667
0.70356
0.65007
0.62205
0.57874
0.55327
0.52016
0.48959
0.46666
0.44629
0.42591
0.40808
0.38515
0.38515
0.37241
0.39025
0.44883
0.56601
0.70865
0.84875
0.97866
1.0653
1.129
1.1621
1.1621
1.1366
1.106
1.05
0.99649
0.93281
0.87677
0.81819
0.76215
0.71375
0.67554
0.63988
0.61186
0.58129
0.54818
0.52016
0.48959
0.45647
0.44629
0.42591
0.40553
0.39025
0.3877
0.3877
0.41572
0.51251
0.63478
0.78762
0.92262
1.0245
1.1009
1.1493
1.1646
1.1595
1.1417
1.0984
1.0423
0.98376
0.92008
0.85385
0.79781
0.7545
0.70865
0.66535
0.62459
0.58638
0.55072
0.52016
0.49468
0.46412
0.43864
0.42591
0.41062
0.3877
0.37496
0.36223
0.38006
0.42591
0.5278
0.67044
0.808
0.93536
1.0322
1.1009
1.129
1.1442
1.1417
1.0984
1.0602
0.99904
0.94045
0.87422
0.81564
0.76469
0.71884
0.67809
0.64752
0.60931
0.57365
0.5278
0.50742
0.47431
0.45393
0.42591
0.40553
0.3826
0.36732
0.35458
0.35458
0.36732
0.41827
0.53544
0.68318
0.82837
0.95064
1.0449
1.106
1.1391
1.1391
1.1239
1.0958
1.0551
0.9914
0.93026
0.86658
0.81054
0.76979
0.71629
0.67554
0.64242
0.60676
0.5711
0.54563
0.51251
0.47431
0.45647
0.431
0.40808
0.39789
0.38515
0.36477
0.36223
0.38006
0.44629
0.55836
0.69592
0.84366
0.96847
1.0576
1.1213
1.1442
1.1544
1.1239
1.0933
1.0398
0.98376
0.92262
0.87168
0.81309
0.76469
0.71629
0.67809
0.63988
0.60931
0.58129
0.55072
0.51506
0.48449
0.45902
0.42845
0.42081
0.39789
0.39025
0.37241
0.38006
0.39534
0.47431
0.58638
0.73413
0.86658
0.98121
1.0755
1.129
1.1468
1.1442
1.129
1.0958
1.0372
0.97102
0.90734
0.84366
0.79017
0.74686
0.69846
0.65771
0.63478
0.59657
0.55836
0.53034
0.50742
0.48195
0.45138
0.431
0.41062
0.40043
0.38515
0.38006
0.3826
0.41572
0.50742
0.64752
0.79526
0.92517
1.0296
1.1162
1.1544
1.1799
1.1672
1.1493
1.1035
1.0576
0.98121
0.92262
0.86149
0.80545
0.75705
0.7112
0.66535
0.6195
0.58129
0.54818
0.51251
0.49468
0.46157
0.44119
0.41827
0.40553
0.38515
0.37241
0.35713
0.36987
0.431
0.53034
0.67299
0.82073
0.94045
1.0372
1.106
1.1468
1.157
1.1315
1.106
1.0576
0.9914
0.92772
0.87422
0.81564
0.76215
0.70611
0.66535
0.62969
0.58638
0.56091
0.53544
0.50997
0.4794
0.44883
0.431
0.41827
0.40298
0.3826
0.36987
0.36987
0.38515
0.45138
0.5762
0.71375
0.85894
0.97102
1.0602
1.1264
1.1544
1.1544
1.1315
1.0882
1.0372
0.97102
0.91753
0.8513
0.8029
0.75196
0.7112
0.6628
0.63478
0.59148
0.56601
0.5278
0.49468
0.47176
0.44374
0.41062
0.40043
0.3826
0.37496
0.35713
0.35458
0.38515
0.45393
0.57365
0.72139
0.86658
0.98121
1.0678
1.1239
1.1493
1.1417
1.1213
1.0704
1.0169
0.95574
0.89715
0.83856
0.79017
0.74431
0.70356
0.6679
0.62205
0.58893
0.56091
0.53544
0.49468
0.4794
0.45138
0.431
0.41572
0.40043
0.3877
0.37496
0.37241
0.40808
0.48959
0.61695
0.77488
0.90989
1.0194
1.0882
1.1366
1.1544
1.1442
1.1213
1.0704
1.0118
0.95574
0.89715
0.83347
0.78507
0.74431
0.70611
0.65771
0.62205
0.59403
0.55836
0.53034
0.50232
0.47431
0.44629
0.42845
0.41317
0.39789
0.38515
0.37496
0.38515
0.43864
0.54563
0.69337
0.83347
0.96338
1.0627
1.1315
1.1621
1.1799
1.157
1.1213
1.0755
1.0169
0.9481
0.88441
0.82583
0.77233
0.73413
0.68573
0.64497
0.61186
0.58129
0.54563
0.51506
0.48195
0.45647
0.44629
0.41572
0.40808
0.3877
0.37751
0.36477
0.39025
0.45647
0.58129
0.73158
0.87677
0.99649
1.0933
1.1519
1.1748
1.1875
1.1697
1.129
1.0856
1.0194
0.96593
0.90224
0.83092
0.78507
0.73413
0.68063
0.64497
0.60676
0.57365
0.53289
0.49723
0.4794
0.44374
0.42591
0.41317
0.39025
0.37496
0.36477
0.35458
0.3877
0.46412
0.58893
0.73667
0.87677
0.9863
1.0729
1.129
1.1519
1.1468
1.1162
1.0831
1.0347
0.97102
0.89715
0.83602
0.79271
0.73922
0.69592
0.65261
0.61695
0.57874
0.54563
0.51506
0.48195
0.45647
0.431
0.41827
0.39025
0.37241
0.36732
0.36223
0.35713
0.38515
0.47176
0.60167
0.74431
0.8946
1.0092
1.078
1.134
1.1621
1.1544
1.129
1.0907
1.0347
0.96593
0.90479
0.8462
0.78762
0.74686
0.69592
0.6679
0.62459
0.59403
0.55582
0.51761
0.48959
0.46412
0.43355
0.41827
0.40043
0.37751
0.36987
0.35968
0.35968
0.3877
0.48195
0.61186
0.76215
0.90224
1.0194
1.0958
1.1366
1.1646
1.1544
1.1188
1.0755
1.0169
0.95319
0.8997
0.83092
0.79017
0.73667
0.69846
0.65261
0.62459
0.58129
0.54818
0.5227
0.49214
0.46921
0.43864
0.41827
0.40808
0.38515
0.38006
0.37751
0.37751
0.40808
0.49214
0.6144
0.7545
0.90734
1.0092
1.0831
1.1264
1.1493
1.1315
1.1137
1.0653
1.0092
0.94555
0.88187
0.81564
0.77233
0.73158
0.69337
0.65007
0.60931
0.58129
0.54818
0.52016
0.48704
0.46412
0.44374
0.42845
0.40298
0.38515
0.37751
0.36223
0.36732
0.40298
0.49978
0.62714
0.78507
0.93026
1.0347
1.1162
1.1595
1.1773
1.1697
1.1417
1.0984
1.0398
0.97612
0.90734
0.84875
0.78762
0.74941
0.7112
0.67044
0.62459
0.60676
0.56346
0.53289
0.50487
0.47176
0.45647
0.42591
0.41062
0.38515
0.36732
0.36223
0.36987
0.42336
0.52525
0.6628
0.81564
0.9481
1.0551
1.1264
1.1697
1.1824
1.1773
1.1417
1.0958
1.0474
0.9863
0.92517
0.86404
0.82073
0.77488
0.72394
0.69082
0.65007
0.62205
0.58129
0.54818
0.52525
0.49978
0.47431
0.44629
0.42845
0.41317
0.39534
0.37751
0.3877
0.431
0.53799
0.6628
0.80035
0.92262
1.0245
1.078
1.1035
1.1137
1.0958
1.0627
1.0067
0.9481
0.8946
0.82583
0.78507
0.72394
0.68827
0.65516
0.61186
0.5711
0.54053
0.50742
0.48449
0.45902
0.43355
0.41062
0.39534
0.3826
0.3826
0.35968
0.36477
0.38515
0.44629
0.56601
0.70865
0.85894
0.98121
1.078
1.1468
1.1748
1.1875
1.1723
1.1391
1.0907
1.0296
0.96338
0.90734
0.84111
0.78762
0.73413
0.68827
0.64752
0.60167
0.56091
0.53289
0.49978
0.46921
0.44883
0.42336
0.39534
0.38515
0.37751
0.35968
0.35458
0.3826
0.46157
0.58893
0.72394
0.87422
0.99649
1.0806
1.1417
1.1748
1.1646
1.157
1.1111
1.0576
0.99395
0.93281
0.86658
0.82073
0.75705
0.71884
0.66026
0.62969
0.58893
0.54563
0.51761
0.48195
0.45902
0.43355
0.41827
0.39279
0.36987
0.36732
0.34949
0.34694
0.36732
0.43355
0.55072
0.70356
0.84366
0.97102
1.0627
1.1213
1.1493
1.1493
1.1239
1.0831
1.0194
0.96083
0.8997
0.84366
0.78252
0.74177
0.69337
0.65516
0.61695
0.58384
0.55836
0.52016
0.48959
0.46412
0.43864
0.41062
0.40298
0.38006
0.38006
0.36477
0.35204
0.37751
0.44883
0.55836
0.70865
0.85385
0.98121
1.078
1.1315
1.1697
1.1646
1.1417
1.0984
1.0449
0.97612
0.91498
0.85639
0.80545
0.76469
0.72394
0.67299
0.63733
0.60931
0.5762
0.53799
0.50742
0.4794
0.46157
0.43864
0.41572
0.39789
0.39279
0.38515
0.37751
0.39025
0.47176
0.59148
0.73413
0.88441
1.0067
1.1035
1.1621
1.1773
1.1824
1.1442
1.1137
1.0449
0.98885
0.92772
0.86658
0.808
0.7545
0.72394
0.68827
0.65261
0.61186
0.5762
0.53544
0.50232
0.4794
0.45138
0.431
0.41317
0.39534
0.3826
0.36223
0.36477
0.38515
0.46412
0.59403
0.75705
0.90479
1.022
1.1137
1.1723
1.2003
1.2028
1.1773
1.134
1.0907
1.022
0.95574
0.89715
0.83602
0.77743
0.74177
0.68827
0.66026
0.60931
0.57874
0.54308
0.50997
0.48704
0.45902
0.42845
0.40298
0.39025
0.37751
0.36477
0.36223
0.39025
0.46921
0.58893
0.74686
0.87932
1.0092
1.0831
1.1468
1.1672
1.1646
1.134
1.0958
1.0372
0.97866
0.90734
0.83856
0.79526
0.73158
0.69592
0.64497
0.61186
0.57874
0.54053
0.50997
0.48195
0.45902
0.43864
0.40808
0.39025
0.3826
0.36732
0.34439
0.34439
0.36732
0.44629
0.56346
0.7112
0.8513
0.98376
1.0755
1.1213
1.1417
1.1468
1.1213
1.0831
1.0169
0.95319
0.90479
0.83092
0.78252
0.74177
0.70356
0.66026
0.62459
0.58893
0.55327
0.5227
0.48704
0.46666
0.44883
0.41572
0.40808
0.3877
0.36732
0.36477
0.35713
0.37751
0.44629
0.56601
0.7112
0.86658
0.9914
1.0882
1.1468
1.1723
1.1621
1.1366
1.0933
1.0372
0.98121
0.92772
0.86404
0.80545
0.76724
0.72394
0.69082
0.65007
0.61186
0.58384
0.54053
0.51506
0.48704
0.46412
0.44629
0.42336
0.39789
0.39025
0.37751
0.37241
0.39025
0.44629
0.56601
0.7112
0.8513
0.98121
1.0755
1.1366
1.1621
1.1595
1.1417
1.0882
1.0271
0.95828
0.89206
0.82583
0.77998
0.73158
0.68827
0.6628
0.62205
0.59148
0.56091
0.53289
0.50742
0.47431
0.45647
0.4361
0.41827
0.39279
0.3826
0.37751
0.36987
0.39534
0.47176
0.59148
0.74177
0.88441
1.0092
1.106
1.1646
1.1952
1.185
1.1595
1.1188
1.0551
0.99904
0.92517
0.86658
0.81054
0.76469
0.72139
0.68063
0.63224
0.59912
0.56855
0.53544
0.50997
0.4794
0.45902
0.431
0.41827
0.40043
0.37751
0.36732
0.36732
0.40553
0.49214
0.62714
0.78507
0.92008
1.0423
1.1239
1.1723
1.1901
1.1799
1.1519
1.1162
1.0423
0.98376
0.91753
0.85639
0.79271
0.74941
0.69846
0.6628
0.62969
0.58384
0.55072
0.5227
0.49468
0.46666
0.44374
0.42336
0.40298
0.3826
0.37751
0.36477
0.3826
0.4361
0.54563
0.68827
0.83602
0.96083
1.0602
1.1366
1.1672
1.185
1.1773
1.1442
1.0882
1.0194
0.96083
0.89715
0.83347
0.77743
0.72903
0.69082
0.65771
0.6144
0.5762
0.54818
0.50487
0.47685
0.45393
0.431
0.41572
0.39279
0.37751
0.37496
0.36477
0.37751
0.44629
0.55836
0.70865
0.8513
0.97612
1.0576
1.1137
1.1391
1.1417
1.129
1.0831
1.0372
0.97357
0.90989
0.85385
0.79526
0.75196
0.70356
0.6628
0.62714
0.59148
0.55072
0.51761
0.48449
0.45393
0.42845
0.40808
0.39279
0.37751
0.35968
0.34694
0.34694
0.37241
0.45902
0.58129
0.73413
0.87168
1.0041
1.0856
1.1366
1.1621
1.1595
1.134
1.0984
1.0296
0.97357
0.90479
0.85385
0.80545
0.75196
0.71375
0.67554
0.63224
0.60167
0.56855
0.53799
0.49468
0.47431
0.44883
0.43355
0.40553
0.39534
0.39025
0.38006
0.37751
0.41827
0.50997
0.63224
0.79271
0.92262
1.0347
1.1086
1.157
1.1748
1.1519
1.1264
1.0806
1.022
0.95828
0.89206
0.84111
0.79526
0.73667
0.70101
0.6628
0.61695
0.59148
0.55836
0.5227
0.49214
0.46666
0.4361
0.42591
0.39789
0.3826
0.37496
0.35968
0.36987
0.41062
0.50742
0.63733
0.79017
0.91753
1.0194
1.0958
1.1213
1.1366
1.1239
1.0907
1.0423
0.98121
0.92008
0.86404
0.82073
0.77488
0.73158
0.69337
0.63988
0.60931
0.5711
0.54563
0.50997
0.49468
0.45902
0.44119
0.42081
0.40298
0.39789
0.3877
0.37751
0.39534
0.4361
0.54818
0.68573
0.83602
0.97612
1.0729
1.1366
1.1621
1.1723
1.1544
1.1111
1.0551
0.99904
0.93791
0.87168
0.81309
0.76215
0.71629
0.68318
0.63988
0.60422
0.56601
0.54563
0.50997
0.48195
0.45647
0.43864
0.42081
0.40553
0.38515
0.3826
0.36987
0.38515
0.46412
0.58384
0.72903
0.87677
1.0067
1.0984
1.1621
1.1875
1.1901
1.1748
1.1442
1.0856
1.0245
0.96338
0.8997
0.83347
0.77998
0.73413
0.68318
0.64752
0.61186
0.57365
0.54818
0.50487
0.47685
0.45393
0.4361
0.41572
0.3877
0.37496
0.36732
0.35204
0.38515
0.46412
0.58893
0.73667
0.88187
1.0041
1.0933
1.1391
1.1697
1.1621
1.1417
1.1009
1.0449
0.98376
0.91753
0.85639
0.8029
0.75196
0.70356
0.65516
0.6195
0.59403
0.54563
0.52016
0.47685
0.44883
0.42081
0.40298
0.3826
0.35968
0.34185
0.33675
0.34439
0.36732
0.45647
0.57365
0.72903
0.87168
1.0041
1.0806
1.1391
1.1672
1.1519
1.1315
1.0806
1.0372
0.96593
0.90989
0.84366
0.79017
0.74431
0.70356
0.6679
0.62459
0.58893
0.55072
0.5278
0.49723
0.47176
0.45138
0.42081
0.40808
0.39789
0.3826
0.36477
0.36732
0.39534
0.47431
0.59657
0.75196
0.89715
1.0092
1.0984
1.1544
1.1723
1.1621
1.1493
1.0958
1.0423
0.96338
0.90989
0.84111
0.77743
0.73667
0.69337
0.65261
0.61186
0.58893
0.54308
0.50997
0.48704
0.45902
0.4361
0.40553
0.39789
0.36732
0.36477
0.35458
0.35204
0.3877
0.45902
0.59403
0.74431
0.89206
1.0118
1.0984
1.1442
1.1723
1.1672
1.1366
1.0882
1.0372
0.96593
0.90224
0.83856
0.79526
0.74177
0.69337
0.6679
0.62714
0.59148
0.55836
0.53544
0.50232
0.46921
0.45138
0.42845
0.41062
0.39534
0.3877
0.36732
0.37241
0.39534
0.4794
0.59657
0.7596
0.8997
1.0296
1.1086
1.1646
1.1799
1.1824
1.1519
1.1009
1.0398
0.97866
0.91753
0.8513
0.80035
0.75196
0.70101
0.66026
0.62205
0.59403
0.54818
0.51251
0.48959
0.46412
0.42845
0.41062
0.3877
0.36223
0.35968
0.34439
0.34439
0.37241
0.44883
0.58638
0.73922
0.8946
1.0118
1.0958
1.1621
1.1799
1.1773
1.1366
1.0958
1.0322
0.97102
0.90734
0.84366
0.78507
0.74431
0.70356
0.65771
0.62714
0.60167
0.56346
0.5278
0.50997
0.4794
0.46157
0.43355
0.41827
0.39789
0.39025
0.38515
0.37751
0.431
0.51506
0.65516
0.79781
0.93536
1.0398
1.1086
1.1621
1.1723
1.1519
1.1086
1.0653
1.0016
0.943
0.87168
0.82328
0.76469
0.72139
0.68573
0.65261
0.60676
0.56855
0.53799
0.50742
0.48449
0.44629
0.43355
0.40553
0.40043
0.38515
0.35968
0.35713
0.37496
0.44374
0.56601
0.71629
0.87168
1.0041
1.1035
1.1723
1.2028
1.2079
1.185
1.1595
1.0984
1.0347
0.97612
0.90479
0.8462
0.78762
0.74941
0.71375
0.6679
0.63224
0.59403
0.55072
0.51761
0.48449
0.45138
0.431
0.40808
0.39279
0.37241
0.35458
0.36223
0.3826
0.45902
0.59148
0.74431
0.88951
1.0067
1.0984
1.1519
1.1723
1.157
1.1417
1.0907
1.0296
0.96593
0.91498
0.84111
0.79526
0.74431
0.69846
0.66026
0.63733
0.60167
0.55582
0.53034
0.49468
0.47685
0.45393
0.42845
0.41827
0.40808
0.39025
0.3826
0.3826
0.41572
0.49723
0.6144
0.75705
0.89206
0.99649
1.0704
1.1188
1.134
1.1188
1.078
1.0372
0.97357
0.92517
0.86658
0.81564
0.76215
0.72139
0.67554
0.64752
0.61186
0.5762
0.54818
0.50997
0.47685
0.45902
0.4361
0.41317
0.39789
0.3877
0.38006
0.36477
0.39279
0.46412
0.5711
0.72394
0.86149
0.97612
1.0653
1.1188
1.1468
1.1544
1.134
1.0933
1.0372
0.98376
0.92772
0.86913
0.81309
0.77743
0.72903
0.69592
0.64752
0.62459
0.58638
0.55072
0.52016
0.50232
0.47431
0.45138
0.43355
0.42591
0.41317
0.40298
0.41062
0.45647
0.55327
0.69337
0.84366
0.96338
1.0653
1.1239
1.157
1.1723
1.1519
1.1264
1.0704
1.0143
0.94045
0.88441
0.82583
0.76215
0.72394
0.68063
0.63988
0.60167
0.55582
0.53544
0.48959
0.47431
0.44119
0.41062
0.39025
0.38515
0.36732
0.34439
0.35204
0.38006
0.4794
0.61186
0.74941
0.8946
0.99904
1.0831
1.134
1.1595
1.1621
1.129
1.1035
1.0398
0.98885
0.91498
0.85894
0.79526
0.74941
0.70101
0.66026
0.6195
0.58384
0.54563
0.51761
0.49214
0.45902
0.44119
0.42081
0.39279
0.38515
0.36223
0.35713
0.3877
0.45393
0.57365
0.71629
0.86658
0.9863
1.0729
1.1264
1.1544
1.1519
1.134
1.1111
1.0551
0.99904
0.93281
0.86149
0.79781
0.75196
0.70356
0.66026
0.6144
0.58638
0.54563
0.52016
0.47685
0.45647
0.42591
0.41827
0.39279
0.37496
0.37241
0.35713
0.35968
0.41062
0.50487
0.63224
0.78507
0.91243
1.0169
1.0984
1.129
1.1417
1.1442
1.1111
1.0653
0.99904
0.94555
0.88441
0.83347
0.77488
0.72903
0.68063
0.64242
0.60676
0.5762
0.53799
0.50997
0.47685
0.45647
0.42845
0.41317
0.39789
0.37241
0.36223
0.35968
0.37241
0.43864
0.55327
0.69846
0.83856
0.96338
1.05
1.1188
1.1468
1.1544
1.1315
1.106
1.0423
0.98376
0.92772
0.86658
0.80545
0.7545
0.70611
0.67299
0.63224
0.59657
0.56091
0.53034
0.49978
0.46921
0.44374
0.42336
0.39534
0.39534
0.36987
0.36732
0.35968
0.40298
0.48704
0.60931
0.76215
0.8946
1.0016
1.0856
1.1239
1.1493
1.1391
1.1035
1.0627
1.0041
0.93791
0.87168
0.81819
0.76979
0.72648
0.67809
0.63733
0.59912
0.56601
0.5278
0.50232
0.46921
0.44629
0.42845
0.40808
0.3826
0.3826
0.36477
0.36223
0.36477
0.39789
0.48704
0.62205
0.78252
0.91753
1.0194
1.0984
1.1417
1.157
1.1417
1.106
1.05
0.99395
0.93281
0.87168
0.82583
0.76469
0.72903
0.69082
0.65261
0.6144
0.59148
0.55836
0.5278
0.49468
0.48195
0.44883
0.43864
0.42081
0.40808
0.39534
0.38006
0.3877
0.431
0.52525
0.6679
0.81564
0.94555
1.0423
1.1162
1.1442
1.1468
1.1213
1.0907
1.0322
0.96083
0.8997
0.84366
0.79017
0.75705
0.7112
0.67044
0.63733
0.61186
0.5762
0.53799
0.50997
0.49214
0.46921
0.44883
0.42336
0.40808
0.40298
0.39279
0.3877
0.40808
0.46921
0.58638
0.72903
0.87932
1.0016
1.0958
1.1468
1.1799
1.1875
1.157
1.1137
1.0525
0.98885
0.92517
0.86404
0.81054
0.76215
0.71375
0.68827
0.64497
0.61186
0.58384
0.54053
0.50997
0.48704
0.46157
0.44119
0.41572
0.40298
0.3877
0.37751
0.37751
0.40553
0.48704
0.62459
0.77488
0.91498
1.0245
1.1213
1.1799
1.1977
1.1901
1.1723
1.129
1.0678
1.0067
0.94045
0.87932
0.82073
0.76469
0.71629
0.6679
0.62714
0.59912
0.55582
0.5227
0.48959
0.46157
0.4361
0.41572
0.40043
0.3877
0.37496
0.36477
0.35713
0.39279
0.47431
0.60676
0.76215
0.8997
1.0143
1.0856
1.134
1.1621
1.1519
1.1162
1.0704
1.0118
0.95574
0.89206
0.83856
0.78252
0.73413
0.69082
0.64752
0.61695
0.58638
0.54053
0.51251
0.47685
0.46157
0.43355
0.40808
0.40043
0.39025
0.37751
0.36223
0.36477
0.39534
0.48959
0.61186
0.75196
0.8997
1.0194
1.0933
1.1391
1.157
1.157
1.1188
1.0755
1.022
0.95319
0.88441
0.83347
0.77743
0.73413
0.69592
0.64752
0.60931
0.5711
0.54308
0.52016
0.48195
0.46921
0.44883
0.42591
0.40043
0.3877
0.36732
0.35713
0.35713
0.39279
0.47431
0.60676
0.74686
0.89206
1.0067
1.0882
1.1417
1.1544
1.1417
1.1213
1.0755
1.0245
0.95828
0.89715
0.83347
0.77743
0.74431
0.69082
0.65771
0.6144
0.58893
0.56091
0.51761
0.49978
0.47685
0.43864
0.42081
0.40553
0.40298
0.3877
0.37496
0.38006
0.40808
0.49468
0.61186
0.75705
0.90224
1.0194
1.1035
1.1621
1.1697
1.1723
1.1366
1.0882
1.0271
0.95828
0.89715
0.84111
0.78252
0.74431
0.69846
0.66026
0.61695
0.58638
0.55327
0.52016
0.49978
0.46157
0.44374
0.42336
0.40808
0.39025
0.3826
0.36732
0.36732
0.40553
0.48449
0.61186
0.76469
0.90989
1.0296
1.1213
1.1646
1.1901
1.1952
1.1544
1.1213
1.0602
1.0016
0.93791
0.87932
0.82328
0.76724
0.72903
0.68063
0.64242
0.60676
0.5762
0.53544
0.51506
0.48449
0.44629
0.42591
0.41062
0.40043
0.38515
0.36987
0.37241
0.39789
0.48449
0.61186
0.75705
0.8997
1.022
1.1009
1.1442
1.1646
1.1595
1.1366
1.0958
1.0296
0.96593
0.8946
0.83347
0.77743
0.73158
0.69846
0.65516
0.6144
0.58384
0.55072
0.52016
0.49978
0.46666
0.44119
0.431
0.40298
0.38515
0.36987
0.36223
0.36477
0.38515
0.47176
0.59148
0.74686
0.8946
1.0016
1.0958
1.1442
1.1646
1.1621
1.1188
1.0704
1.0194
0.95828
0.88951
0.84111
0.79017
0.73667
0.69592
0.65771
0.62714
0.59912
0.56091
0.53544
0.49723
0.47176
0.45138
0.42081
0.41062
0.39789
0.38006
0.37241
0.36477
0.39279
0.45902
0.58893
0.73667
0.87932
1.0067
1.0907
1.157
1.1723
1.1646
1.1315
1.078
1.022
0.96338
0.8997
0.83347
0.78252
0.73413
0.69846
0.6628
0.62714
0.59148
0.55836
0.5278
0.49723
0.47176
0.44883
0.4361
0.41317
0.40808
0.3826
0.37241
0.36732
0.39279
0.45902
0.58129
0.71884
0.87422
0.9914
1.0882
1.1519
1.1621
1.1672
1.1264
1.0907
1.0271
0.96847
0.90479
0.84366
0.80035
0.7596
0.71375
0.67554
0.63988
0.60676
0.5711
0.54308
0.50742
0.48449
0.46412
0.44119
0.41572
0.40043
0.39025
0.3826
0.37751
0.40553
0.46921
0.60676
0.75196
0.8997
1.0194
1.106
1.1672
1.1799
1.1824
1.157
1.1009
1.0423
0.97102
0.91753
0.86149
0.808
0.76469
0.72139
0.68318
0.64242
0.60676
0.5711
0.53799
0.50997
0.47685
0.44374
0.42081
0.41062
0.39789
0.38006
0.37751
0.36987
0.41062
0.49214
0.62459
0.77488
0.93026
1.0322
1.1213
1.1646
1.1875
1.1773
1.1621
1.1137
1.0551
0.98885
0.91243
0.85639
0.80545
0.74941
0.70611
0.67044
0.62205
0.59403
0.55327
0.52525
0.48959
0.46666
0.4361
0.41572
0.39534
0.39279
0.37751
0.36732
0.3826
0.44119
0.55836
0.70611
0.86658
0.99904
1.1009
1.1773
1.2054
1.2181
1.2003
1.1493
1.0933
1.0372
0.97102
0.91243
0.84875
0.8029
0.7545
0.71884
0.68063
0.63224
0.59148
0.55836
0.52525
0.49214
0.46412
0.44119
0.40553
0.3877
0.37751
0.36987
0.35458
0.36223
0.41317
0.50232
0.62969
0.78252
0.8997
1.0016
1.0678
1.0958
1.1111
1.0907
1.05
0.99904
0.93791
0.87932
0.82837
0.77998
0.72903
0.68318
0.64752
0.61695
0.58893
0.55327
0.53034
0.49978
0.46157
0.44883
0.42591
0.40808
0.38515
0.38515
0.36732
0.36732
0.37241
0.41827
0.51761
0.66535
0.81054
0.943
1.0347
1.0984
1.1315
1.1315
1.1035
1.0678
1.0118
0.95574
0.88696
0.84111
0.79526
0.76724
0.72394
0.69082
0.6628
0.63988
0.61186
0.59403
0.56601
0.55072
0.5278
0.50742
0.49978
0.48449
0.48704
0.46921
0.48195
0.50487
0.57874
0.68827
0.82583
0.93791
1.0449
1.1162
1.1417
1.1519
1.1391
1.0984
1.0423
0.9914
0.92517
0.87677
0.81564
0.77488
0.72903
0.69082
0.65261
0.61695
0.5711
0.54563
0.51251
0.47685
0.45902
0.42845
0.41317
0.40808
0.39025
0.37241
0.37496
0.38515
0.41317
0.50487
0.64242
0.78507
0.90479
1.0118
1.0729
1.1213
1.1239
1.1009
1.0602
1.0118
0.9481
0.88441
0.82837
0.77743
0.73158
0.69337
0.65261
0.61695
0.58638
0.56091
0.53544
0.49978
0.47685
0.46157
0.43864
0.431
0.42081
0.40808
0.39279
0.40043
0.40553
0.45138
0.55072
0.68827
0.82583
0.95828
1.0525
1.1162
1.1391
1.1468
1.1239
1.078
1.0296
0.95574
0.8997
0.84111
0.79526
0.74941
0.7112
0.67809
0.64497
0.60931
0.57874
0.56091
0.53034
0.50742
0.48959
0.45902
0.45393
0.42591
0.41827
0.41572
0.40808
0.42845
0.51251
0.6144
0.7545
0.89715
1.0092
1.0806
1.1239
1.134
1.1162
1.0907
1.0372
0.98121
0.92008
0.86149
0.8029
0.76979
0.72648
0.68318
0.63988
0.60676
0.57365
0.54053
0.50997
0.4794
0.46666
0.44374
0.42591
0.39789
0.39279
0.3826
0.37751
0.39534
0.45647
0.56346
0.69846
0.8513
0.97866
1.0704
1.1315
1.1493
1.1493
1.1213
1.0755
1.022
0.95828
0.8997
0.83347
0.79017
0.74177
0.7112
0.67299
0.63733
0.60676
0.5711
0.54563
0.50487
0.4794
0.45902
0.43864
0.42336
0.40808
0.39789
0.39279
0.39025
0.42591
0.52525
0.66026
0.81309
0.93536
1.0398
1.1086
1.1417
1.1519
1.1239
1.0907
1.0372
0.97357
0.91243
0.85894
0.81054
0.77233
0.73158
0.69592
0.65261
0.62714
0.59403
0.55836
0.53289
0.50487
0.47685
0.45647
0.44119
0.42336
0.40808
0.3877
0.39789
0.43864
0.51761
0.65516
0.80545
0.93791
1.0296
1.106
1.1417
1.1417
1.1315
1.0984
1.0423
0.9863
0.91753
0.86913
0.81309
0.76215
0.72139
0.69082
0.65516
0.62205
0.58893
0.55836
0.52525
0.49978
0.47431
0.45902
0.43355
0.42591
0.41062
0.39025
0.39025
0.42845
0.51761
0.64752
0.79781
0.92772
1.0322
1.0984
1.1391
1.1519
1.1366
1.0933
1.05
0.98885
0.92772
0.86658
0.81564
0.76469
0.72139
0.68318
0.65261
0.61186
0.57365
0.55072
0.52016
0.49214
0.47176
0.44119
0.42336
0.40298
0.3877
0.36987
0.37241
0.39789
0.46666
0.58129
0.73922
0.87422
0.98885
1.0704
1.1213
1.1417
1.134
1.0882
1.0398
0.98121
0.92517
0.86913
0.81564
0.76215
0.71884
0.68573
0.64242
0.60676
0.58638
0.55072
0.51761
0.47685
0.45902
0.43355
0.41827
0.40043
0.38006
0.36732
0.35968
0.36732
0.42336
0.53034
0.67809
0.82583
0.95319
1.0576
1.129
1.157
1.1519
1.1417
1.0907
1.0423
0.98376
0.92262
0.86658
0.81564
0.76215
0.72648
0.69082
0.65007
0.62205
0.59148
0.55072
0.5278
0.49978
0.46666
0.45393
0.42845
0.41317
0.39534
0.38515
0.3877
0.42081
0.49978
0.63224
0.77488
0.91498
1.0194
1.106
1.1493
1.1621
1.1519
1.1162
1.0602
1.0092
0.943
0.88441
0.83347
0.77998
0.73413
0.70611
0.65771
0.62714
0.59403
0.55582
0.52525
0.49468
0.46666
0.44883
0.41827
0.40808
0.39025
0.38006
0.37751
0.39789
0.47431
0.58893
0.73667
0.88696
1.0118
1.1111
1.1672
1.1901
1.2028
1.1748
1.1391
1.0806
1.0067
0.943
0.88696
0.82837
0.77488
0.73413
0.69082
0.65261
0.60676
0.5711
0.53289
0.50232
0.47176
0.45138
0.4361
0.41572
0.40043
0.3826
0.37241
0.38006
0.42845
0.52525
0.66026
0.80035
0.93536
1.0474
1.1213
1.157
1.1697
1.1646
1.1264
1.0806
1.0245
0.96083
0.89206
0.8462
0.77998
0.73667
0.69846
0.64497
0.6195
0.58638
0.53799
0.50742
0.4794
0.46157
0.43864
0.42336
0.39279
0.38006
0.36223
0.35458
0.3826
0.45647
0.57365
0.7112
0.85385
0.97866
1.05
1.1162
1.1417
1.1493
1.129
1.0755
1.0347
0.96338
0.90734
0.8513
0.80035
0.74941
0.71375
0.6679
0.63224
0.59403
0.55836
0.5227
0.49468
0.47176
0.44629
0.42845
0.41062
0.40043
0.38515
0.36987
0.36477
0.39534
0.49214
0.62205
0.76215
0.8997
1.0092
1.0907
1.134
1.1595
1.1442
1.1137
1.0755
1.0041
0.95319
0.88696
0.83092
0.77233
0.73413
0.69846
0.65771
0.6144
0.57365
0.55072
0.50487
0.47431
0.45647
0.43864
0.40553
0.39789
0.38515
0.36732
0.36223
0.36477
0.40043
0.50232
0.63224
0.78507
0.91753
1.0296
1.0958
1.1391
1.1519
1.1442
1.1009
1.0602
0.99395
0.94555
0.87932
0.83092
0.77743
0.73413
0.69592
0.65771
0.6144
0.58893
0.55582
0.51761
0.49978
0.46921
0.44883
0.42336
0.41827
0.39279
0.39025
0.37751
0.39279
0.43864
0.54053
0.67299
0.81819
0.93791
1.0372
1.1009
1.1213
1.1315
1.1162
1.0755
1.0271
0.97357
0.91498
0.85385
0.8029
0.7545
0.72139
0.68827
0.65007
0.6195
0.58129
0.54818
0.5227
0.49468
0.46412
0.44374
0.431
0.40298
0.3877
0.37751
0.3877
0.40808
0.47685
0.60676
0.75196
0.88441
1.0016
1.0958
1.1442
1.1697
1.1748
1.1493
1.1111
1.0627
0.99395
0.93536
0.86149
0.808
0.75196
0.7112
0.6628
0.62459
0.59403
0.55836
0.53544
0.50232
0.46921
0.44629
0.42591
0.41317
0.40553
0.39534
0.37496
0.39534
0.43355
0.52525
0.66026
0.81564
0.9481
1.0525
1.129
1.1799
1.1926
1.1799
1.1544
1.1188
1.0627
0.99904
0.93026
0.87677
0.81819
0.76979
0.71884
0.67809
0.63988
0.59403
0.56346
0.53544
0.50487
0.46666
0.43864
0.41572
0.3877
0.37751
0.35713
0.34949
0.36732
0.42591
0.54053
0.68063
0.81564
0.943
1.0372
1.0933
1.1213
1.1366
1.1239
1.0958
1.0398
0.99904
0.93281
0.86658
0.82073
0.75705
0.7112
0.67554
0.63988
0.59403
0.56855
0.53289
0.50487
0.46157
0.44119
0.42336
0.39534
0.3826
0.36223
0.35458
0.34949
0.36987
0.44629
0.54818
0.70101
0.83602
0.96847
1.0551
1.1035
1.1391
1.134
1.1264
1.0806
1.0245
0.97102
0.90734
0.8513
0.80035
0.74177
0.7112
0.6628
0.62459
0.58893
0.55327
0.5278
0.48959
0.46412
0.44119
0.42336
0.39279
0.37496
0.36732
0.35204
0.35713
0.38515
0.44119
0.56601
0.71884
0.85385
0.97357
1.0551
1.1213
1.1417
1.1417
1.1213
1.0856
1.0194
0.97357
0.90734
0.86658
0.808
0.75705
0.72139
0.68827
0.64497
0.60931
0.56855
0.53289
0.50997
0.48449
0.45647
0.42845
0.41572
0.40298
0.38515
0.37496
0.36732
0.39789
0.47431
0.59912
0.72903
0.86913
0.98885
1.0755
1.129
1.157
1.1468
1.1213
1.078
1.0169
0.96083
0.90479
0.8462
0.8029
0.7545
0.70865
0.67299
0.63224
0.59912
0.56091
0.52525
0.48959
0.46412
0.43355
0.41827
0.40043
0.38515
0.3826
0.36223
0.36477
0.40553
0.48959
0.62714
0.77998
0.91498
1.0347
1.1213
1.1646
1.185
1.1901
1.1621
1.1111
1.0551
0.99904
0.92772
0.87168
0.81564
0.77488
0.71884
0.68063
0.63478
0.60931
0.56346
0.52525
0.50487
0.46921
0.44374
0.42336
0.40553
0.38006
0.37496
0.35968
0.37241
0.42081
0.50997
0.65007
0.79526
0.93791
1.0322
1.1086
1.1519
1.1621
1.1519
1.1213
1.0704
1.022
0.95828
0.8997
0.84111
0.78252
0.73413
0.69082
0.64242
0.61186
0.5711
0.54053
0.51761
0.48959
0.45902
0.4361
0.41062
0.39279
0.37496
0.35968
0.35713
0.34949
0.40808
0.50232
0.64242
0.79781
0.92517
1.0322
1.1086
1.1442
1.1672
1.1621
1.134
1.0831
1.022
0.96083
0.90224
0.83856
0.78762
0.74431
0.68573
0.64497
0.60422
0.56855
0.5278
0.50997
0.47685
0.45647
0.42336
0.41062
0.39025
0.37496
0.36223
0.35204
0.36223
0.39789
0.49214
0.6195
0.77488
0.91753
1.022
1.1035
1.1391
1.1519
1.1391
1.1086
1.0602
1.0041
0.943
0.88187
0.83347
0.77488
0.72394
0.68573
0.65261
0.60167
0.57365
0.54308
0.50997
0.47685
0.46157
0.43864
0.40553
0.39789
0.38006
0.36223
0.35204
0.36477
0.39534
0.47431
0.60931
0.74686
0.89206
1.0143
1.1009
1.1417
1.1595
1.1493
1.1264
1.0704
1.0245
0.96338
0.89715
0.84366
0.78762
0.74941
0.70356
0.67299
0.63478
0.60676
0.56346
0.53799
0.51251
0.4794
0.45647
0.44119
0.42081
0.39025
0.37496
0.36732
0.36477
0.40298
0.48959
0.6144
0.76215
0.91243
1.0347
1.1111
1.1621
1.1875
1.1799
1.1595
1.1086
1.0576
0.9914
0.92772
0.87422
0.81564
0.76215
0.70611
0.66535
0.63478
0.59912
0.56091
0.5278
0.50232
0.47176
0.43864
0.41827
0.40043
0.3826
0.36477
0.35458
0.35204
0.3826
0.47685
0.60931
0.76469
0.91498
1.0271
1.1162
1.1672
1.1977
1.1926
1.1723
1.134
1.0729
1.0092
0.93536
0.88696
0.81819
0.77488
0.72139
0.67044
0.63988
0.59912
0.55582
0.51761
0.49214
0.45393
0.42845
0.41062
0.39279
0.36987
0.36223
0.34694
0.34694
0.3877
0.47176
0.59912
0.76469
0.90224
1.0118
1.1086
1.1493
1.1773
1.1723
1.1519
1.1137
1.0474
0.98885
0.92008
0.85385
0.81054
0.75705
0.69846
0.65516
0.62205
0.58893
0.55327
0.51761
0.48449
0.45647
0.4361
0.41317
0.3877
0.37241
0.35204
0.34694
0.34694
0.3826
0.4794
0.60676
0.75705
0.90479
1.0143
1.0907
1.1519
1.1748
1.1595
1.1315
1.0958
1.0398
0.96593
0.90224
0.84366
0.79526
0.75196
0.70865
0.65771
0.62205
0.58893
0.54053
0.51506
0.4794
0.45393
0.4361
0.40808
0.3877
0.36987
0.35204
0.34949
0.35968
0.40043
0.48959
0.62714
0.77743
0.91753
1.0245
1.106
1.1468
1.1621
1.1493
1.1213
1.0907
1.0398
0.97357
0.90734
0.85639
0.808
0.74431
0.71375
0.67299
0.62714
0.58893
0.55072
0.51761
0.48959
0.44883
0.4361
0.40808
0.39534
0.37496
0.35458
0.34949
0.36223
0.41572
0.52525
0.66026
0.808
0.9481
1.0449
1.1188
1.1544
1.1723
1.1595
1.1239
1.0678
0.99904
0.94045
0.87932
0.83092
0.77233
0.72648
0.68573
0.64242
0.61186
0.57874
0.53799
0.50997
0.48449
0.46666
0.43864
0.41062
0.39534
0.3826
0.36732
0.35458
0.37751
0.45647
0.56855
0.7112
0.84875
0.97866
1.0602
1.129
1.1519
1.1468
1.1315
1.0856
1.0271
0.96847
0.91243
0.84875
0.79526
0.74941
0.71375
0.6679
0.63478
0.59403
0.56601
0.53544
0.50997
0.48449
0.45902
0.4361
0.41827
0.40808
0.38515
0.38006
0.37496
0.40808
0.48704
0.6144
0.77233
0.89715
1.0194
1.0958
1.1468
1.1595
1.1519
1.1264
1.0678
1.0118
0.95828
0.8946
0.83602
0.79781
0.74177
0.7112
0.67044
0.62459
0.58638
0.54818
0.52016
0.48449
0.46666
0.44119
0.41572
0.40298
0.3826
0.37241
0.35458
0.38515
0.44883
0.55836
0.71375
0.85385
0.98885
1.078
1.1417
1.1824
1.1977
1.1773
1.1417
1.0958
1.0347
0.97612
0.90479
0.85385
0.79781
0.73667
0.70611
0.66026
0.6144
0.58638
0.55072
0.51506
0.48195
0.46412
0.44119
0.41317
0.39279
0.36987
0.36732
0.36223
0.39279
0.48704
0.6144
0.76469
0.89715
1.0143
1.0882
1.1366
1.157
1.157
1.1264
1.078
1.0245
0.97357
0.90734
0.8513
0.79781
0.74177
0.70101
0.65007
0.60931
0.56855
0.53034
0.50487
0.4794
0.4361
0.42591
0.39789
0.37496
0.35968
0.34439
0.3393
0.34694
0.40043
0.49978
0.63224
0.78507
0.91243
1.0194
1.0984
1.1239
1.1442
1.1366
1.1035
1.0525
0.99395
0.93281
0.87932
0.81309
0.76724
0.72394
0.68827
0.64242
0.60931
0.5711
0.54308
0.52016
0.48959
0.45902
0.42845
0.41572
0.39789
0.39025
0.36987
0.36477
0.37751
0.43355
0.53799
0.68318
0.83092
0.96083
1.0551
1.1137
1.1468
1.1493
1.1264
1.0958
1.0449
0.9863
0.91753
0.86913
0.81564
0.77233
0.72394
0.68318
0.64242
0.61186
0.5762
0.54053
0.52016
0.49214
0.46666
0.43864
0.41827
0.39789
0.38515
0.36987
0.36223
0.39025
0.47431
0.59912
0.74431
0.88696
1.0041
1.0806
1.1442
1.1544
1.1646
1.1239
1.0856
1.0296
0.97357
0.90224
0.85639
0.80035
0.75196
0.70865
0.67299
0.62714
0.59657
0.56346
0.54053
0.50232
0.4794
0.45647
0.42845
0.40808
0.39025
0.37751
0.38006
0.38006
0.44374
0.54563
0.67044
0.82328
0.95828
1.0449
1.1188
1.1519
1.1621
1.1417
1.1162
1.0704
0.99904
0.943
0.87932
0.81309
0.77488
0.72139
0.68063
0.64752
0.60931
0.56855
0.53544
0.50487
0.48195
0.45647
0.42845
0.39789
0.38515
0.37751
0.35968
0.35458
0.40298
0.47685
0.61695
0.7596
0.8997
1.0143
1.0933
1.1417
1.1621
1.1519
1.129
1.078
1.0194
0.95828
0.90479
0.83347
0.78507
0.74431
0.69592
0.65516
0.6195
0.59148
0.56091
0.52525
0.49468
0.46921
0.45138
0.42336
0.39789
0.39534
0.3826
0.37241
0.39534
0.44374
0.55327
0.69082
0.83856
0.96847
1.0474
1.1213
1.1391
1.1417
1.1239
1.0958
1.0296
0.97102
0.91243
0.84875
0.79781
0.74941
0.69592
0.65516
0.62205
0.58893
0.55836
0.52525
0.48959
0.47176
0.44629
0.42336
0.41317
0.3877
0.36987
0.36987
0.37241
0.40553
0.49468
0.62969
0.77488
0.90224
1.022
1.0882
1.1366
1.1519
1.1442
1.1137
1.0806
1.0092
0.95574
0.89206
0.83092
0.78507
0.73922
0.69592
0.66026
0.61695
0.58384
0.55072
0.50742
0.48195
0.45393
0.431
0.40553
0.39025
0.37241
0.36223
0.35713
0.37751
0.431
0.54308
0.68063
0.82583
0.95574
1.0372
1.1111
1.1391
1.1468
1.1162
1.0907
1.0372
0.97612
0.91753
0.85385
0.79526
0.75196
0.70611
0.67299
0.63988
0.59657
0.5711
0.54053
0.50232
0.4794
0.45902
0.43355
0.41827
0.40808
0.39789
0.38515
0.39279
0.42081
0.49723
0.62969
0.76979
0.90989
1.0143
1.0907
1.1468
1.1646
1.1544
1.1239
1.0653
1.0092
0.95319
0.89206
0.83602
0.78762
0.73922
0.70865
0.6628
0.63224
0.58638
0.55836
0.52016
0.49723
0.46412
0.45393
0.42845
0.41062
0.40298
0.38515
0.38515
0.39534
0.4794
0.59148
0.73158
0.88187
0.9914
1.0856
1.1417
1.1621
1.1672
1.1519
1.1162
1.0627
1.0067
0.94555
0.88951
0.83347
0.77743
0.72139
0.68063
0.64242
0.59148
0.56091
0.52525
0.49214
0.47176
0.43864
0.42081
0.40298
0.3826
0.37241
0.36477
0.36987
0.41572
0.5227
0.65771
0.81054
0.943
1.05
1.1111
1.1493
1.1697
1.1621
1.134
1.0907
1.0322
0.95828
0.8946
0.84111
0.77998
0.73413
0.68827
0.64497
0.60167
0.57365
0.53799
0.49978
0.4794
0.45393
0.431
0.40298
0.39025
0.36477
0.34949
0.34694
0.36732
0.42845
0.55582
0.68827
0.83856
0.95828
1.0449
1.1162
1.1417
1.1468
1.129
1.0907
1.05
0.98121
0.92517
0.86658
0.81819
0.76215
0.71884
0.67299
0.62459
0.59403
0.56601
0.52525
0.48704
0.46666
0.44119
0.42081
0.39534
0.3877
0.37751
0.35968
0.34949
0.3826
0.45138
0.58384
0.73158
0.86913
0.98121
1.0704
1.129
1.1493
1.1366
1.1188
1.0806
1.0194
0.96083
0.8946
0.83856
0.77998
0.73413
0.69082
0.64752
0.62205
0.5762
0.54818
0.5227
0.48195
0.45647
0.43864
0.41827
0.39789
0.39025
0.36477
0.36223
0.36987
0.40043
0.48449
0.62205
0.76215
0.90479
1.0194
1.1009
1.1391
1.1595
1.1621
1.1264
1.078
1.0194
0.96083
0.89206
0.83856
0.78252
0.74177
0.70356
0.65771
0.62205
0.58638
0.55072
0.51761
0.48959
0.46412
0.43864
0.42591
0.40298
0.38515
0.38515
0.36987
0.36732
0.40808
0.48959
0.6195
0.76215
0.90989
1.0143
1.0856
1.1366
1.1493
1.1468
1.1188
1.078
1.022
0.96083
0.90224
0.83347
0.78507
0.74431
0.70101
0.65261
0.6195
0.58384
0.55327
0.5227
0.48959
0.45647
0.44629
0.42845
0.40808
0.3877
0.3826
0.36732
0.37496
0.41062
0.50742
0.64497
0.80035
0.93281
1.0372
1.129
1.1621
1.185
1.1748
1.1493
1.1035
1.0449
0.97866
0.91243
0.84366
0.79271
0.74431
0.68827
0.65261
0.6195
0.5762
0.54053
0.51251
0.48195
0.45902
0.43355
0.41317
0.39789
0.39025
0.36987
0.36223
0.37751
0.42591
0.53289
0.67299
0.82073
0.95574
1.0627
1.1315
1.1697
1.1875
1.1748
1.1519
1.0984
1.05
0.98885
0.92772
0.86149
0.80035
0.7545
0.70356
0.6628
0.62205
0.57365
0.54053
0.50997
0.47431
0.44119
0.42845
0.40298
0.39025
0.36987
0.35713
0.35458
0.34949
0.40043
0.50232
0.63988
0.78507
0.92772
1.0296
1.1035
1.1544
1.1723
1.157
1.1264
1.0729
1.0143
0.96083
0.88187
0.82583
0.78252
0.72903
0.68318
0.64242
0.60167
0.56855
0.53034
0.50742
0.48195
0.45138
0.42591
0.40043
0.3826
0.36477
0.35713
0.34949
0.35458
0.37751
0.47431
0.60422
0.74941
0.90224
1.0245
1.106
1.1468
1.1723
1.1723
1.1493
1.0958
1.0372
0.97866
0.91498
0.85385
0.79781
0.7545
0.70356
0.67044
0.63224
0.58129
0.55327
0.5278
0.49468
0.46157
0.4361
0.41827
0.39534
0.37496
0.37496
0.36477
0.35713
0.36987
0.44119
0.56601
0.73413
0.87677
1.0067
1.1035
1.1595
1.1799
1.1824
1.1646
1.1213
1.0653
1.0041
0.94045
0.87932
0.83092
0.77233
0.72903
0.68827
0.64242
0.60167
0.57365
0.53289
0.49978
0.4794
0.44629
0.42591
0.39789
0.3877
0.38006
0.36477
0.35458
0.36223
0.41827
0.5227
0.6679
0.81309
0.95574
1.05
1.129
1.1646
1.1621
1.1468
1.1111
1.0551
0.99395
0.93536
0.86658
0.81309
0.76469
0.71884
0.67809
0.63988
0.6144
0.5711
0.54053
0.50232
0.47685
0.45647
0.42845
0.40553
0.40043
0.37241
0.36477
0.36223
0.36223
0.40808
0.50997
0.65007
0.8029
0.93791
1.0474
1.1188
1.1748
1.1926
1.1697
1.1544
1.1009
1.0372
0.98885
0.92008
0.86913
0.80545
0.76469
0.71884
0.67554
0.62714
0.59403
0.55836
0.5278
0.49723
0.46666
0.44629
0.42081
0.40298
0.39279
0.3826
0.37241
0.36477
0.42081
0.51761
0.6628
0.82328
0.95574
1.0653
1.1442
1.1824
1.2028
1.1875
1.1621
1.1213
1.0602
0.98885
0.92262
0.86149
0.808
0.75705
0.71629
0.6628
0.63224
0.58129
0.55836
0.52525
0.49214
0.45902
0.4361
0.40808
0.3826
0.36223
0.34694
0.3393
0.34439
0.3826
0.47176
0.60167
0.76215
0.90734
1.0245
1.1111
1.1595
1.1799
1.1748
1.1417
1.1009
1.05
0.98121
0.90224
0.84875
0.79526
0.73922
0.69592
0.66026
0.6144
0.5711
0.54308
0.51506
0.47685
0.44629
0.42591
0.41317
0.39279
0.37241
0.36223
0.35713
0.35458
0.37751
0.45647
0.58638
0.73413
0.87168
0.99395
1.0856
1.1442
1.1773
1.1697
1.1493
1.1009
1.0576
0.9914
0.93281
0.87168
0.81309
0.7596
0.72139
0.67554
0.63478
0.59912
0.56091
0.52525
0.48449
0.46157
0.43355
0.40808
0.39279
0.37496
0.35968
0.35713
0.34694
0.36477
0.42845
0.54053
0.68827
0.83347
0.95828
1.0602
1.129
1.157
1.1723
1.1544
1.1162
1.0576
0.9914
0.943
0.87168
0.82073
0.77743
0.73922
0.69592
0.66535
0.62714
0.58384
0.55582
0.51506
0.48959
0.45647
0.4361
0.40808
0.3877
0.38515
0.36477
0.35713
0.36732
0.40808
0.49723
0.63478
0.79271
0.93281
1.0398
1.1162
1.1595
1.1723
1.157
1.1162
1.0755
1.0194
0.95319
0.88696
0.83347
0.78507
0.73922
0.69592
0.6628
0.62459
0.59148
0.54818
0.51506
0.49723
0.46666
0.44119
0.42081
0.41062
0.39534
0.37751
0.36732
0.37751
0.41062
0.51251
0.63988
0.78762
0.93281
1.0449
1.1213
1.1672
1.1824
1.185
1.1493
1.1035
1.0398
0.97102
0.91498
0.8513
0.80035
0.75196
0.69846
0.67044
0.62714
0.59148
0.55836
0.52525
0.49978
0.47431
0.44883
0.41572
0.40043
0.3826
0.36477
0.36732
0.36987
0.40043
0.50742
0.63988
0.79271
0.92772
1.0449
1.129
1.1799
1.2079
1.2079
1.185
1.129
1.0831
1.0092
0.943
0.87932
0.82837
0.77233
0.72394
0.68318
0.64752
0.59912
0.56601
0.53034
0.50742
0.46412
0.45138
0.42081
0.40808
0.38515
0.36223
0.35204
0.35968
0.40553
0.49468
0.62205
0.78507
0.91753
1.022
1.1111
1.1493
1.1748
1.1723
1.1468
1.1035
1.0525
0.98121
0.92262
0.85639
0.80035
0.74941
0.69846
0.65261
0.61186
0.57365
0.54563
0.50487
0.47431
0.44883
0.42845
0.40553
0.37751
0.37241
0.34694
0.33675
0.34185
0.37496
0.46412
0.59912
0.74941
0.88441
1.0169
1.0984
1.1442
1.1748
1.1723
1.1442
1.0958
1.0372
0.98885
0.92008
0.86404
0.81564
0.75705
0.72394
0.67044
0.63733
0.60167
0.55836
0.53799
0.49723
0.46412
0.44883
0.41827
0.41062
0.38006
0.37241
0.35458
0.36477
0.38006
0.44119
0.55836
0.7112
0.8513
0.97866
1.0704
1.1264
1.1621
1.1621
1.129
1.1009
1.0449
0.97866
0.91243
0.86658
0.8029
0.76979
0.72394
0.68063
0.65007
0.60422
0.57365
0.54053
0.51251
0.48449
0.45902
0.431
0.42081
0.40808
0.39025
0.37241
0.36987
0.39534
0.46412
0.58384
0.72139
0.87422
0.9863
1.0755
1.129
1.1519
1.1544
1.134
1.1009
1.05
0.98376
0.91753
0.86404
0.80545
0.76469
0.71629
0.68318
0.64242
0.59403
0.56855
0.5278
0.50487
0.47176
0.46157
0.4361
0.41827
0.40808
0.38515
0.37751
0.38006
0.39789
0.48704
0.6144
0.75705
0.90479
1.0143
1.0984
1.157
1.1901
1.1799
1.1672
1.1239
1.0729
1.0118
0.95319
0.8997
0.83602
0.78252
0.73413
0.68318
0.64752
0.60422
0.56091
0.53034
0.50232
0.47176
0.44374
0.42081
0.39789
0.38006
0.35713
0.34694
0.33675
0.37751
0.45902
0.5711
0.73413
0.87422
0.9863
1.0729
1.1417
1.1595
1.1672
1.1544
1.1111
1.05
0.9863
0.93281
0.86404
0.81309
0.76469
0.7112
0.67299
0.63988
0.59912
0.55836
0.5278
0.49214
0.46921
0.44374
0.41572
0.39534
0.3877
0.36732
0.35204
0.34949
0.37241
0.42591
0.53799
0.68318
0.83347
0.96338
1.0525
1.1315
1.1544
1.1595
1.1468
1.1162
1.0704
1.0067
0.943
0.87422
0.82073
0.76979
0.72648
0.67809
0.63733
0.60167
0.56855
0.52016
0.49468
0.45902
0.44629
0.41827
0.40043
0.3826
0.36987
0.36223
0.34185
0.35204
0.39534
0.49468
0.62205
0.76979
0.90734
1.0143
1.0958
1.1366
1.1621
1.1519
1.129
1.0806
1.0169
0.96083
0.90734
0.84366
0.79526
0.75196
0.70356
0.6628
0.62714
0.58384
0.54818
0.52525
0.49468
0.46666
0.4361
0.41572
0.40043
0.38006
0.36732
0.35204
0.34949
0.36732
0.44883
0.56346
0.70865
0.85639
0.98121
1.0729
1.1366
1.1621
1.157
1.1468
1.1035
1.0525
0.98376
0.92517
0.85639
0.81054
0.75705
0.71375
0.67809
0.63733
0.59148
0.5711
0.53289
0.50232
0.46921
0.45138
0.42336
0.41062
0.40043
0.3826
0.37751
0.36477
0.36732
0.42591
0.51761
0.66026
0.79526
0.93791
1.0423
1.1239
1.1672
1.1723
1.1621
1.1391
1.0831
1.0296
0.95319
0.89206
0.84111
0.79271
0.73922
0.70865
0.65516
0.62205
0.58638
0.55836
0.5227
0.48704
0.46412
0.44119
0.41827
0.40808
0.39025
0.3826
0.37241
0.37241
0.40298
0.49723
0.62714
0.78252
0.92262
1.0296
1.1188
1.1799
1.2054
1.2003
1.1723
1.1468
1.0856
1.0322
0.95828
0.89715
0.8462
0.79017
0.73667
0.69082
0.64752
0.61186
0.5762
0.54308
0.50487
0.47431
0.43864
0.41572
0.39789
0.3826
0.36477
0.35204
0.3393
0.36223
0.4361
0.54818
0.69337
0.83602
0.96847
1.0704
1.1213
1.1646
1.1723
1.157
1.1188
1.0678
1.0118
0.95574
0.8997
0.83602
0.79017
0.74431
0.69337
0.64497
0.61186
0.57365
0.54308
0.50997
0.47685
0.44883
0.42845
0.41062
0.39025
0.36987
0.35204
0.34439
0.35204
0.40298
0.49978
0.63733
0.77998
0.92262
1.0372
1.1111
1.1442
1.1697
1.1621
1.1264
1.0958
1.0372
0.97102
0.90734
0.8462
0.79017
0.74177
0.69082
0.65516
0.60676
0.57365
0.53034
0.50997
0.46921
0.45138
0.42591
0.40808
0.3877
0.37496
0.36223
0.34949
0.34949
0.37751
0.45393
0.5762
0.73158
0.87677
0.99904
1.0958
1.1442
1.1799
1.1824
1.1468
1.1035
1.0551
0.9914
0.91753
0.86913
0.81564
0.76215
0.72139
0.67809
0.64242
0.59148
0.55836
0.5278
0.48959
0.45902
0.43864
0.41062
0.39279
0.38515
0.37751
0.35968
0.35458
0.36987
0.42591
0.53034
0.68063
0.82073
0.95064
1.0576
1.1213
1.1544
1.1621
1.1519
1.1111
1.0602
0.99904
0.93281
0.87932
0.81819
0.77233
0.72648
0.68318
0.63733
0.59912
0.5711
0.54053
0.51251
0.47685
0.45393
0.431
0.41062
0.40808
0.39534
0.38515
0.37241
0.37496
0.41572
0.52016
0.65771
0.81564
0.9481
1.0551
1.1366
1.1697
1.1977
1.185
1.1493
1.106
1.0398
0.98376
0.91753
0.85385
0.8029
0.76215
0.7112
0.6628
0.62714
0.59148
0.55836
0.53034
0.49468
0.46412
0.43355
0.41572
0.39025
0.37241
0.36223
0.34694
0.34949
0.40043
0.49214
0.64242
0.79781
0.93026
1.0576
1.1239
1.1799
1.1977
1.1926
1.1621
1.1188
1.0678
0.98885
0.93536
0.87168
0.808
0.75196
0.7112
0.6628
0.62459
0.59148
0.55072
0.51761
0.48959
0.45647
0.431
0.41317
0.38515
0.37751
0.35458
0.34694
0.34949
0.39279
0.48959
0.63478
0.77488
0.92262
1.0296
1.1086
1.1519
1.1646
1.1697
1.1366
1.0958
1.0372
0.97612
0.8997
0.84366
0.78252
0.74431
0.68573
0.65007
0.61695
0.57365
0.53799
0.50997
0.47685
0.45138
0.42845
0.40298
0.38515
0.36732
0.36223
0.3393
0.35204
0.38515
0.47685
0.61186
0.76979
0.8997
1.0194
1.1035
1.1519
1.1723
1.1646
1.1442
1.106
1.0474
0.97357
0.91498
0.8462
0.79017
0.74177
0.68827
0.66026
0.6144
0.59148
0.55327
0.52016
0.49723
0.45647
0.43355
0.41572
0.3877
0.36732
0.35713
0.34694
0.33675
0.36477
0.44119
0.5711
0.72394
0.86658
0.98885
1.0806
1.1315
1.1646
1.1672
1.1442
1.1035
1.0474
0.98121
0.90989
0.85894
0.80035
0.74941
0.70865
0.6679
0.62969
0.59657
0.56091
0.52525
0.49468
0.46666
0.44119
0.42591
0.40553
0.39534
0.36477
0.36477
0.35968
0.37496
0.431
0.54818
0.69082
0.83856
0.97866
1.0729
1.1391
1.1723
1.1773
1.1621
1.1213
1.0704
1.0016
0.93281
0.86913
0.81819
0.76469
0.72394
0.67809
0.63988
0.60931
0.57365
0.54308
0.50997
0.48959
0.46412
0.44119
0.41827
0.40043
0.38006
0.37496
0.37496
0.36987
0.42591
0.5227
0.67299
0.82583
0.95828
1.0653
1.1391
1.1697
1.1926
1.1646
1.134
1.0856
1.0245
0.95574
0.88951
0.83602
0.78252
0.73667
0.70101
0.66026
0.6195
0.5762
0.54308
0.50232
0.47685
0.44883
0.42336
0.40298
0.38006
0.36477
0.35458
0.35204
0.35458
0.42591
0.53799
0.68063
0.83347
0.97357
1.078
1.1493
1.1952
1.2079
1.1926
1.1697
1.1111
1.05
0.9914
0.91753
0.86149
0.80545
0.74941
0.70356
0.66535
0.62969
0.58638
0.54308
0.51251
0.47176
0.44374
0.42336
0.40298
0.38006
0.35204
0.34185
0.32656
0.34185
0.39025
0.50232
0.65007
0.81054
0.95574
1.0551
1.129
1.1723
1.1875
1.1723
1.1442
1.0907
1.0347
0.96338
0.89715
0.83602
0.78507
0.73413
0.69082
0.63988
0.61186
0.5711
0.54053
0.51506
0.47685
0.44883
0.41827
0.40298
0.3826
0.36223
0.35204
0.34439
0.34694
0.3877
0.50232
0.63478
0.78762
0.92772
1.0398
1.1188
1.1621
1.1621
1.157
1.1239
1.0653
1.0067
0.9481
0.87932
0.82583
0.77743
0.72394
0.69082
0.63733
0.61186
0.5711
0.53799
0.50487
0.47431
0.44883
0.42845
0.39534
0.3877
0.36732
0.35458
0.3393
0.34694
0.38006
0.48449
0.61186
0.76469
0.90989
1.0347
1.1213
1.1621
1.1799
1.1723
1.1391
1.0882
1.0296
0.97357
0.90479
0.84875
0.79017
0.74941
0.69846
0.6628
0.63224
0.59403
0.54818
0.52016
0.49723
0.46157
0.43864
0.40808
0.39534
0.3877
0.37751
0.35968
0.35968
0.39534
0.48195
0.60676
0.76215
0.90989
1.0347
1.1162
1.1646
1.1799
1.1646
1.129
1.078
1.0169
0.95319
0.88951
0.83856
0.79017
0.74431
0.69592
0.65261
0.61695
0.58384
0.56346
0.52016
0.49723
0.47685
0.44629
0.42591
0.40043
0.38515
0.36987
0.36987
0.35458
0.39279
0.4794
0.60931
0.74941
0.90479
1.0194
1.0984
1.1493
1.1748
1.1646
1.1366
1.0806
1.0194
0.9481
0.88951
0.83347
0.79017
0.73158
0.70101
0.66535
0.62969
0.58129
0.54818
0.51761
0.49978
0.46666
0.4361
0.41572
0.40298
0.39534
0.36987
0.36732
0.37751
0.41062
0.50232
0.63478
0.78762
0.92517
1.05
1.129
1.1646
1.185
1.1672
1.1391
1.0882
1.0271
0.96593
0.8997
0.83856
0.79526
0.75196
0.69846
0.67044
0.62714
0.58893
0.55072
0.5227
0.49978
0.46157
0.44629
0.42336
0.40298
0.37496
0.37241
0.35713
0.36223
0.42845
0.53799
0.67554
0.83092
0.97866
1.0831
1.1544
1.1901
1.2028
1.1799
1.1442
1.0806
1.0169
0.95828
0.8997
0.83602
0.77488
0.73667
0.69082
0.63988
0.60676
0.57874
0.54308
0.50232
0.47176
0.45138
0.42845
0.39534
0.37751
0.37241
0.34949
0.33675
0.36223
0.43355
0.55836
0.70865
0.86658
0.99904
1.0907
1.1493
1.1824
1.1799
1.1621
1.1137
1.0653
1.0016
0.93791
0.87932
0.82073
0.76979
0.71884
0.68827
0.63988
0.60167
0.56346
0.5278
0.48959
0.46921
0.44374
0.42081
0.39789
0.37751
0.35713
0.35204
0.34694
0.3877
0.45647
0.59403
0.74431
0.89206
1.0067
1.106
1.1519
1.1748
1.1646
1.1315
1.0882
1.0296
0.97102
0.90479
0.8462
0.79526
0.74686
0.70611
0.6679
0.62459
0.59403
0.55836
0.5278
0.49723
0.46921
0.44119
0.41827
0.40298
0.3826
0.35713
0.36223
0.36477
0.39789
0.49723
0.63478
0.79526
0.92517
1.0372
1.1137
1.1442
1.1672
1.1417
1.1035
1.0474
0.98885
0.92008
0.85894
0.808
0.7545
0.72394
0.68318
0.64497
0.6144
0.57874
0.54053
0.51506
0.49214
0.45902
0.44374
0.41827
0.39789
0.38515
0.36732
0.36477
0.3826
0.44374
0.55582
0.69592
0.85385
0.97612
1.0806
1.1442
1.1672
1.1595
1.129
1.0831
1.0372
0.97612
0.90989
0.85639
0.81054
0.75705
0.71629
0.67809
0.64242
0.59912
0.56855
0.53289
0.50487
0.48704
0.46666
0.43864
0.41827
0.39534
0.38515
0.36732
0.37496
0.42591
0.52525
0.65516
0.81564
0.95828
1.0627
1.1391
1.1773
1.1952
1.1773
1.134
1.0806
1.0092
0.94555
0.87677
0.82328
0.77998
0.72903
0.68827
0.64752
0.6144
0.58638
0.54818
0.51761
0.48959
0.46157
0.431
0.41827
0.39534
0.37751
0.36987
0.36223
0.39279
0.48449
0.62205
0.77743
0.92262
1.0372
1.1239
1.1723
1.1952
1.2003
1.1824
1.134
1.078
1.0194
0.95064
0.88187
0.82583
0.77233
0.73667
0.68573
0.64242
0.60931
0.57365
0.53289
0.49978
0.45902
0.44119
0.42591
0.40043
0.37496
0.36732
0.36477
0.37496
0.42845
0.53544
0.69082
0.82837
0.96338
1.0627
1.1315
1.1621
1.1646
1.1442
1.1188
1.0551
1.0016
0.94555
0.87932
0.82583
0.77743
0.73922
0.69846
0.64752
0.61186
0.57874
0.54053
0.50232
0.47685
0.45138
0.43355
0.41062
0.39279
0.36987
0.35713
0.34949
0.38515
0.47685
0.60676
0.75705
0.88441
0.9914
1.078
1.1239
1.1391
1.1213
1.0882
1.0525
0.9863
0.93026
0.85894
0.808
0.7596
0.71375
0.68063
0.63224
0.60422
0.5711
0.53034
0.49978
0.47176
0.44629
0.42336
0.40298
0.38515
0.36987
0.35968
0.35204
0.37496
0.44374
0.54308
0.69337
0.83602
0.95574
1.0525
1.1188
1.1366
1.1417
1.1188
1.078
1.0271
0.97357
0.90479
0.86404
0.80545
0.75705
0.72139
0.68063
0.64242
0.60676
0.56346
0.53799
0.50997
0.48195
0.45393
0.43355
0.41317
0.40553
0.39789
0.38515
0.3826
0.42591
0.52016
0.65261
0.8029
0.93026
1.0296
1.0984
1.134
1.1391
1.129
1.0984
1.0449
0.9863
0.92772
0.86658
0.81564
0.76215
0.72648
0.68573
0.65007
0.60676
0.5762
0.54308
0.50997
0.48704
0.46666
0.43355
0.40808
0.39279
0.37751
0.36732
0.37241
0.41572
0.49978
0.63224
0.78252
0.91243
1.0296
1.1035
1.1442
1.1697
1.1723
1.1391
1.0984
1.0398
0.97612
0.91243
0.8513
0.79526
0.74431
0.70101
0.66026
0.6144
0.58638
0.54818
0.50997
0.48959
0.46666
0.431
0.41827
0.40043
0.39534
0.38006
0.36732
0.40553
0.47685
0.6195
0.76469
0.8997
1.0169
1.1035
1.1544
1.1723
1.1697
1.1544
1.1213
1.0525
0.98885
0.92517
0.86658
0.81309
0.7596
0.7112
0.6679
0.63224
0.5762
0.54563
0.50997
0.48449
0.45647
0.42591
0.40553
0.37751
0.36732
0.34694
0.35458
0.36987
0.41827
0.53544
0.67554
0.81309
0.93791
1.0322
1.1086
1.1391
1.1391
1.1366
1.0984
1.0398
0.98885
0.92772
0.86913
0.81819
0.76724
0.71375
0.67299
0.63733
0.60167
0.55072
0.5227
0.49214
0.45647
0.43864
0.41827
0.40298
0.38006
0.36987
0.35458
0.36223
0.40298
0.48959
0.62714
0.78507
0.91243
1.0118
1.0958
1.129
1.1468
1.1391
1.1162
1.0704
1.0143
0.93536
0.88696
0.82328
0.77233
0.71629
0.68318
0.65261
0.60422
0.5762
0.54563
0.52016
0.48704
0.45647
0.43864
0.42845
0.40298
0.39789
0.37751
0.37241
0.39534
0.46666
0.58384
0.73413
0.86404
0.97612
1.0678
1.1111
1.1264
1.1213
1.0958
1.0602
0.99904
0.95064
0.88696
0.83347
0.79017
0.74177
0.69337
0.65771
0.62205
0.58893
0.55327
0.5278
0.48704
0.46157
0.44883
0.42081
0.41572
0.3877
0.38006
0.37751
0.39025
0.44883
0.55327
0.69082
0.83347
0.9481
1.0423
1.1035
1.1366
1.1442
1.134
1.0882
1.0271
0.97102
0.91498
0.85639
0.79781
0.7596
0.71884
0.67299
0.63733
0.59912
0.56855
0.53544
0.50487
0.47176
0.46157
0.43355
0.41572
0.40808
0.3877
0.37751
0.3877
0.44119
0.55072
0.69082
0.82583
0.9481
1.0398
1.1086
1.1417
1.1544
1.1493
1.1111
1.0678
1.0169
0.96083
0.88951
0.84366
0.77998
0.73667
0.69337
0.65771
0.62205
0.59148
0.56091
0.53289
0.49214
0.47431
0.44883
0.4361
0.41062
0.39534
0.37496
0.3877
0.44119
0.54053
0.6679
0.80545
0.93536
1.0143
1.0806
1.1162
1.129
1.1137
1.0806
1.0372
0.97357
0.92008
0.86149
0.808
0.75705
0.69846
0.6628
0.62714
0.58893
0.55836
0.53034
0.48959
0.47176
0.43864
0.41572
0.39534
0.36732
0.35458
0.34439
0.34185
0.39025
0.49214
0.62969
0.77233
0.91753
1.0296
1.1009
1.1417
1.1697
1.1723
1.1468
1.1035
1.05
0.98376
0.92262
0.8513
0.80035
0.74686
0.70611
0.65516
0.6144
0.58129
0.54053
0.49978
0.47685
0.44374
0.42591
0.39534
0.38515
0.36223
0.36223
0.34185
0.36477
0.41572
0.52525
0.67809
0.83092
0.96338
1.0627
1.134
1.1748
1.1875
1.1799
1.1519
1.1137
1.0525
0.98885
0.92772
0.85639
0.79017
0.74941
0.69337
0.64752
0.60422
0.57365
0.53289
0.49468
0.46921
0.43355
0.41062
0.39025
0.37751
0.35458
0.34185
0.33675
0.36732
0.44374
0.57365
0.72139
0.86913
0.98376
1.078
1.1366
1.157
1.1723
1.1544
1.1264
1.0627
1.0016
0.93791
0.87932
0.81819
0.7545
0.70611
0.6679
0.62714
0.59403
0.54563
0.51761
0.49214
0.44883
0.42591
0.41062
0.3877
0.36732
0.34185
0.32911
0.33421
0.36987
0.46157
0.58893
0.75196
0.88696
1.0016
1.0933
1.1391
1.1621
1.1544
1.1315
1.0882
1.0372
0.97866
0.90479
0.84875
0.77488
0.72903
0.68318
0.63988
0.60676
0.56346
0.5278
0.49978
0.46412
0.431
0.40298
0.3877
0.36477
0.34694
0.32911
0.32656
0.32147
0.37751
0.48449
0.62205
0.78252
0.92008
1.0296
1.106
1.1417
1.1621
1.1442
1.106
1.0576
0.99904
0.94045
0.88187
0.82583
0.76979
0.71884
0.67554
0.63988
0.59403
0.55836
0.5227
0.48959
0.45138
0.42591
0.40298
0.3826
0.35713
0.34439
0.33421
0.33166
0.33675
0.39279
0.50232
0.65771
0.81564
0.95319
1.0525
1.1264
1.1646
1.1697
1.1519
1.1162
1.0525
0.9863
0.92772
0.87168
0.81054
0.7545
0.72139
0.67299
0.63478
0.59657
0.56601
0.52525
0.48959
0.45902
0.43355
0.40553
0.3877
0.37496
0.35458
0.33421
0.3393
0.34949
0.41317
0.52016
0.67554
0.83856
0.97866
1.0806
1.1468
1.1748
1.1824
1.1493
1.1111
1.0525
0.9863
0.92008
0.86149
0.808
0.7596
0.70865
0.6679
0.63224
0.59657
0.56346
0.5278
0.48959
0.46666
0.43864
0.41827
0.39025
0.37751
0.36223
0.35713
0.34439
0.35968
0.44629
0.5711
0.72139
0.87677
1.0067
1.0984
1.1697
1.1901
1.185
1.1519
1.1035
1.0423
0.97357
0.90989
0.85639
0.80545
0.75196
0.71375
0.67299
0.63478
0.59912
0.56855
0.53289
0.48959
0.45902
0.431
0.41317
0.3877
0.38515
0.36732
0.35204
0.35968
0.38515
0.46666
0.59912
0.76469
0.90989
1.0449
1.1264
1.1824
1.2003
1.1824
1.1391
1.1009
1.0322
0.95828
0.8997
0.84366
0.79526
0.73922
0.70356
0.6628
0.62714
0.59912
0.55836
0.5227
0.49978
0.4794
0.44883
0.42081
0.40043
0.39789
0.3826
0.36477
0.36477
0.41572
0.50997
0.64242
0.80035
0.943
1.0474
1.129
1.1697
1.1824
1.1621
1.1035
1.0474
0.9914
0.92517
0.86404
0.81564
0.76979
0.72139
0.68318
0.65261
0.6144
0.5762
0.54818
0.51761
0.49214
0.45902
0.43864
0.41827
0.39534
0.37496
0.36223
0.36223
0.36987
0.44374
0.56091
0.7112
0.86658
1.0118
1.1111
1.1697
1.1977
1.1901
1.1672
1.1188
1.0551
0.9863
0.92008
0.85385
0.79526
0.75196
0.70101
0.6679
0.62714
0.59403
0.55582
0.53289
0.50232
0.46921
0.4361
0.41827
0.40043
0.38515
0.36477
0.35458
0.35713
0.40808
0.49978
0.64752
0.81819
0.96083
1.0704
1.1621
1.2003
1.2181
1.1952
1.1646
1.1035
1.0322
0.97357
0.90479
0.8462
0.77743
0.73667
0.69846
0.65771
0.61695
0.58129
0.53799
0.51251
0.48195
0.44883
0.4361
0.39789
0.39279
0.36477
0.35204
0.34439
0.37751
0.45138
0.57874
0.72394
0.88187
1.0067
1.106
1.1519
1.1926
1.1773
1.1519
1.1086
1.0551
0.98121
0.91243
0.84875
0.79271
0.74431
0.70101
0.6628
0.62205
0.58638
0.54818
0.51506
0.4794
0.45902
0.431
0.41572
0.3877
0.36477
0.35968
0.34694
0.34694
0.40298
0.49723
0.64242
0.808
0.93536
1.0474
1.1111
1.1595
1.1723
1.1493
1.0984
1.05
0.98376
0.92262
0.85894
0.79017
0.74177
0.70356
0.6628
0.63988
0.60167
0.56601
0.53289
0.50487
0.47685
0.44883
0.4361
0.41317
0.39534
0.37496
0.37496
0.36223
0.38006
0.45393
0.56855
0.73667
0.87677
1.0143
1.1035
1.1621
1.1799
1.1697
1.1468
1.0933
1.0372
0.97866
0.90479
0.8513
0.8029
0.75705
0.70865
0.67554
0.63478
0.59148
0.56091
0.5227
0.48959
0.46921
0.44374
0.42336
0.39534
0.3877
0.36732
0.36223
0.35713
0.39789
0.49468
0.64242
0.79271
0.92772
1.0398
1.1213
1.1672
1.1748
1.1621
1.1137
1.0627
0.99395
0.92262
0.86913
0.81054
0.76215
0.72648
0.68063
0.65516
0.6144
0.5762
0.54563
0.52525
0.49723
0.46666
0.44629
0.42845
0.41827
0.39279
0.38515
0.38006
0.40043
0.45393
0.58129
0.71375
0.86913
0.98885
1.0882
1.1315
1.157
1.1468
1.1162
1.0551
0.9914
0.92517
0.86404
0.81309
0.75705
0.71884
0.68827
0.65007
0.61695
0.58384
0.55582
0.52016
0.49723
0.47176
0.45647
0.431
0.41317
0.39534
0.3826
0.38515
0.3877
0.44119
0.53034
0.68573
0.84111
0.97866
1.0831
1.1519
1.1799
1.1926
1.1697
1.1315
1.0729
0.99904
0.93281
0.87422
0.82328
0.76469
0.72903
0.69337
0.65771
0.6144
0.59148
0.55836
0.52016
0.48959
0.46412
0.431
0.42336
0.39789
0.37751
0.37496
0.3826
0.41572
0.51761
0.6679
0.81054
0.96083
1.0704
1.157
1.185
1.2079
1.1875
1.1442
1.0882
1.0271
0.95828
0.88441
0.83602
0.77488
0.73413
0.68063
0.64242
0.60676
0.5711
0.54563
0.50997
0.4794
0.45902
0.43355
0.40808
0.39789
0.3826
0.36732
0.36732
0.38006
0.45393
0.58893
0.72903
0.88696
0.99904
1.0984
1.1493
1.1723
1.1672
1.1417
1.0882
1.0296
0.96338
0.8946
0.84111
0.78762
0.74177
0.69337
0.66026
0.6144
0.59148
0.55072
0.51251
0.48959
0.45647
0.4361
0.41827
0.40043
0.3826
0.36477
0.35713
0.36732
0.40808
0.51251
0.65261
0.8029
0.94045
1.0551
1.1137
1.1595
1.1646
1.1468
1.1111
1.05
0.9863
0.92008
0.86658
0.79526
0.7596
0.7112
0.67044
0.62714
0.58893
0.56346
0.53034
0.50232
0.47431
0.44374
0.42845
0.41062
0.39789
0.38006
0.36477
0.36223
0.3826
0.45647
0.58129
0.73667
0.87932
1.0067
1.0933
1.1442
1.1773
1.1697
1.1315
1.0806
1.0169
0.9481
0.88441
0.81819
0.76724
0.72139
0.68318
0.64752
0.61186
0.58638
0.54818
0.51761
0.49468
0.46921
0.44119
0.42081
0.40298
0.39279
0.37496
0.37241
0.37751
0.42336
0.50997
0.63988
0.79781
0.93791
1.0449
1.1188
1.1621
1.1646
1.1493
1.1009
1.0474
0.98121
0.92517
0.86658
0.808
0.76215
0.71884
0.68318
0.64242
0.60931
0.57365
0.54053
0.51251
0.48959
0.46666
0.44119
0.42336
0.40553
0.39279
0.3877
0.3826
0.41062
0.48959
0.60676
0.7596
0.90989
1.0271
1.1213
1.1723
1.1773
1.1748
1.1442
1.0856
1.022
0.94555
0.88187
0.82328
0.77233
0.71884
0.68827
0.64752
0.61186
0.57874
0.54818
0.51761
0.48959
0.46921
0.4361
0.42081
0.40043
0.3877
0.37241
0.37241
0.3877
0.45138
0.5711
0.72139
0.88187
1.0092
1.1009
1.1723
1.1952
1.2054
1.1901
1.1519
1.0882
1.0245
0.95319
0.89206
0.83856
0.77488
0.72903
0.68573
0.65516
0.60931
0.56855
0.54818
0.51251
0.47685
0.45902
0.431
0.41062
0.39534
0.37496
0.36223
0.36477
0.40298
0.50742
0.63733
0.79526
0.93536
1.0474
1.1162
1.1646
1.1824
1.1697
1.129
1.078
1.0118
0.94555
0.87168
0.81054
0.76215
0.72139
0.67554
0.62969
0.59403
0.55836
0.5227
0.49723
0.46412
0.431
0.41317
0.40298
0.37751
0.36732
0.34439
0.35458
0.3826
0.45138
0.58638
0.73413
0.88441
1.0118
1.1035
1.157
1.1799
1.1773
1.1442
1.1009
1.0347
0.97866
0.90734
0.84875
0.79526
0.74177
0.70101
0.65516
0.62205
0.58384
0.55072
0.51251
0.48449
0.46412
0.43355
0.40553
0.39789
0.36987
0.36223
0.35458
0.35713
0.41572
0.5278
0.6628
0.82328
0.95319
1.0551
1.1315
1.1595
1.1697
1.1519
1.1137
1.0525
0.98376
0.92262
0.86658
0.8029
0.75196
0.72139
0.67554
0.64242
0.60167
0.56091
0.53034
0.49978
0.4794
0.44883
0.42591
0.41827
0.39789
0.37496
0.36732
0.36223
0.3877
0.46921
0.59657
0.74431
0.88696
1.0118
1.0806
1.1366
1.1519
1.134
1.1035
1.0474
0.98376
0.93026
0.86404
0.81309
0.76979
0.72139
0.69082
0.63988
0.60676
0.57874
0.54053
0.51506
0.48704
0.45647
0.4361
0.42336
0.40298
0.38515
0.36987
0.36987
0.3877
0.44883
0.5711
0.71375
0.87422
0.99395
1.0856
1.1468
1.1748
1.1748
1.1493
1.1009
1.0474
0.97866
0.91753
0.86149
0.80545
0.7545
0.7112
0.67044
0.63224
0.59148
0.56091
0.53799
0.49978
0.46666
0.44374
0.42845
0.41062
0.39279
0.37496
0.37241
0.39025
0.45393
0.5762
0.71375
0.87422
1.0092
1.1009
1.1595
1.1875
1.2028
1.1824
1.1417
1.078
1.0143
0.95064
0.87932
0.81564
0.76469
0.71375
0.68318
0.63733
0.59148
0.56091
0.53034
0.49723
0.46921
0.4361
0.41317
0.39789
0.3877
0.35968
0.35458
0.36223
0.40553
0.49723
0.63224
0.79271
0.93026
1.0347
1.1213
1.1595
1.1723
1.1621
1.1213
1.078
1.022
0.95828
0.89206
0.83347
0.78762
0.73158
0.68573
0.65261
0.62205
0.5711
0.54563
0.51761
0.4794
0.45393
0.42336
0.39534
0.39025
0.36732
0.35204
0.34949
0.37241
0.44883
0.57365
0.72648
0.87168
0.99395
1.0882
1.1417
1.1621
1.1595
1.1366
1.0856
1.0271
0.95574
0.90479
0.83856
0.78762
0.73922
0.69592
0.65771
0.6195
0.58384
0.54563
0.5227
0.48449
0.45902
0.44119
0.41572
0.39789
0.3826
0.36732
0.35713
0.35968
0.42336
0.51761
0.6628
0.81054
0.94045
1.0347
1.1086
1.1417
1.157
1.1239
1.0984
1.0372
0.97612
0.90734
0.86149
0.79526
0.76215
0.70865
0.68063
0.63224
0.60422
0.57365
0.54053
0.50487
0.48449
0.44629
0.42845
0.40808
0.39279
0.37751
0.37496
0.36987
0.39789
0.48195
0.61695
0.76215
0.90479
1.0169
1.106
1.1544
1.1748
1.1697
1.1417
1.0856
1.0296
0.96338
0.89715
0.8462
0.79526
0.74686
0.70356
0.6628
0.62459
0.58129
0.56091
0.52016
0.48959
0.45393
0.42591
0.41317
0.39279
0.3826
0.35968
0.34949
0.3826
0.44629
0.57874
0.72903
0.87422
1.0016
1.0984
1.1595
1.1926
1.1977
1.1799
1.1417
1.078
1.0194
0.94555
0.87677
0.82073
0.76215
0.71629
0.6679
0.63988
0.59403
0.56346
0.52525
0.50232
0.47685
0.44119
0.42336
0.40808
0.39025
0.37751
0.37241
0.36732
0.41572
0.53034
0.6628
0.82073
0.95064
1.0551
1.134
1.1672
1.185
1.1646
1.1366
1.0856
1.0296
0.95828
0.8997
0.83092
0.77233
0.72394
0.68318
0.64242
0.60422
0.5711
0.53289
0.49214
0.46412
0.44629
0.41062
0.40043
0.37496
0.35713
0.34949
0.34185
0.36477
0.42845
0.55327
0.70356
0.85385
0.97866
1.0755
1.1315
1.157
1.1621
1.1417
1.0958
1.0474
0.98885
0.91498
0.85894
0.80545
0.75705
0.7112
0.6628
0.63224
0.59403
0.55836
0.52525
0.48959
0.45393
0.44119
0.41572
0.39534
0.38006
0.37496
0.36223
0.36223
0.40298
0.49214
0.62205
0.77488
0.91243
1.0169
1.0882
1.134
1.1468
1.1315
1.1009
1.05
0.98885
0.92517
0.85894
0.81054
0.76469
0.71884
0.67299
0.63988
0.60931
0.57365
0.53799
0.50742
0.47176
0.45647
0.431
0.40553
0.38515
0.36987
0.36223
0.36223
0.3877
0.45902
0.57874
0.72394
0.86404
0.98885
1.0907
1.1493
1.1799
1.1824
1.157
1.1111
1.05
