0.61186
0.6144
0.61186
0.61186
0.61695
0.61695
0.6144
0.6144
0.6195
0.62714
0.65771
0.69846
0.74431
0.79271
0.82583
0.86658
0.87932
0.89206
0.88187
0.86404
0.8462
0.82583
0.8029
0.78762
0.75705
0.74431
0.71884
0.70101
0.69592
0.67554
0.65771
0.64242
0.64752
0.63224
0.63224
0.6195
0.62205
0.6195
0.61186
0.61695
0.60676
0.6195
0.61695
0.6195
0.61695
0.60931
0.6195
0.60931
0.60931
0.6195
0.62459
0.63733
0.65771
0.69337
0.73158
0.77998
0.82073
0.8513
0.87168
0.87932
0.88441
0.87168
0.85639
0.83602
0.81564
0.79271
0.76979
0.7545
0.73413
0.72139
0.70865
0.68827
0.68063
0.66535
0.65516
0.65771
0.63988
0.64242
0.63478
0.63224
0.62205
0.63224
0.62205
0.61186
0.60931
0.60931
0.61186
0.61695
0.6144
0.60676
0.60676
0.60676
0.6195
0.62714
0.64497
0.6628
0.69846
0.73922
0.77233
0.81564
0.84111
0.85639
0.86913
0.8513
0.84366
0.83856
0.81054
0.79781
0.78507
0.7596
0.73667
0.72648
0.71375
0.70101
0.69337
0.68573
0.67044
0.66026
0.66026
0.65007
0.64497
0.63478
0.64242
0.62714
0.62459
0.63224
0.62714
0.62714
0.62205
0.62714
0.62969
0.63224
0.62205
0.63224
0.63988
0.64752
0.66026
0.6679
0.70865
0.73413
0.76215
0.79781
0.80545
0.82837
0.83092
0.82073
0.81309
0.79526
0.79017
0.76724
0.74431
0.73922
0.72139
0.7112
0.69337
0.68827
0.68573
0.67299
0.67044
0.6628
0.6628
0.66026
0.65261
0.65007
0.64752
0.65261
0.65007
0.64497
0.64752
0.64497
0.63988
0.63988
0.64752
0.63988
0.63988
0.64752
0.65516
0.6679
0.68573
0.70865
0.75196
0.78507
0.82073
0.8513
0.86913
0.87422
0.87932
0.86404
0.8513
0.84111
0.81564
0.8029
0.78507
0.77233
0.74686
0.72648
0.71629
0.7112
0.69337
0.68573
0.67554
0.6628
0.66026
0.66026
0.65007
0.63733
0.64242
0.63478
0.62714
0.63733
0.63733
0.63224
0.63478
0.63224
0.63988
0.63224
0.62714
0.62969
0.63224
0.63988
0.64242
0.6628
0.70356
0.73922
0.78252
0.82073
0.85639
0.87677
0.88441
0.87932
0.87677
0.85639
0.83856
0.81564
0.80035
0.77488
0.76469
0.73922
0.71375
0.70611
0.69592
0.68827
0.67044
0.6679
0.65516
0.65007
0.64242
0.63988
0.63224
0.63478
0.63733
0.62969
0.62714
0.62714
0.63224
0.62205
0.62969
0.62459
0.62714
0.62969
0.62205
0.62714
0.63478
0.64752
0.6628
0.69082
0.72648
0.75705
0.79271
0.808
0.82583
0.83602
0.82583
0.83092
0.81819
0.8029
0.77743
0.7596
0.74941
0.73667
0.72394
0.7112
0.69846
0.68318
0.68318
0.6679
0.65771
0.65261
0.65771
0.64752
0.63988
0.64752
0.63224
0.63988
0.63988
0.63988
0.63478
0.64242
0.65007
0.64497
0.64752
0.64497
0.64752
0.64752
0.65516
0.65516
0.67044
0.69082
0.72139
0.75705
0.78507
0.8029
0.82328
0.83092
0.82583
0.82073
0.81054
0.79781
0.78252
0.76215
0.74686
0.74177
0.73413
0.71375
0.70101
0.69592
0.68827
0.67554
0.67299
0.67299
0.67044
0.6628
0.65261
0.65516
0.65516
0.64497
0.63733
0.63733
0.64752
0.63478
0.63988
0.63988
0.63988
0.64242
0.64497
0.64242
0.65261
0.6628
0.68827
0.71375
0.75705
0.79017
0.83092
0.8462
0.86149
0.86149
0.85639
0.84366
0.83092
0.81309
0.79781
0.78507
0.75705
0.74431
0.73413
0.71375
0.70356
0.69846
0.68827
0.68063
0.67809
0.67044
0.65516
0.64497
0.64752
0.64752
0.65007
0.64242
0.64752
0.63733
0.63733
0.63478
0.62969
0.62969
0.63478
0.63988
0.63478
0.64497
0.65516
0.66535
0.67044
0.70356
0.75705
0.79781
0.8462
0.87932
0.89206
0.90224
0.90479
0.8946
0.86913
0.8513
0.83347
0.81819
0.79017
0.76469
0.75196
0.73667
0.72139
0.7112
0.69082
0.67809
0.66535
0.65007
0.64752
0.64752
0.63733
0.62714
0.62969
0.6195
0.62205
0.62205
0.62205
0.62714
0.62205
0.62205
0.62459
0.62969
0.62714
0.6195
0.6195
0.63733
0.64242
0.65771
0.68318
0.72903
0.76469
0.8029
0.83092
0.84111
0.8462
0.84366
0.83856
0.82328
0.80035
0.79526
0.77233
0.74686
0.73667
0.73158
0.71629
0.70865
0.68827
0.67299
0.67554
0.66026
0.65771
0.64242
0.64242
0.63988
0.63478
0.63224
0.62459
0.63224
0.62459
0.62205
0.6195
0.62205
0.62459
0.62459
0.62969
0.62205
0.63733
0.63733
0.65007
0.65516
0.67554
0.71375
0.74431
0.79017
0.82328
0.8513
0.86149
0.86658
0.86913
0.84875
0.82837
0.81054
0.79017
0.77998
0.75705
0.73922
0.73158
0.70356
0.70356
0.68063
0.6679
0.66535
0.65771
0.65261
0.64752
0.64242
0.63733
0.63224
0.63478
0.63224
0.62969
0.62969
0.62969
0.62969
0.62459
0.62969
0.62714
0.62459
0.63478
0.63478
0.65261
0.66026
0.67044
0.70865
0.74177
0.76979
0.8029
0.82583
0.83856
0.84366
0.83856
0.82328
0.81564
0.79271
0.78507
0.76469
0.7596
0.74431
0.73158
0.7112
0.70356
0.69082
0.68827
0.67554
0.6679
0.65261
0.65007
0.65007
0.64497
0.64242
0.63733
0.63478
0.63988
0.62969
0.63478
0.64242
0.63733
0.63988
0.64752
0.64752
0.64242
0.64242
0.64242
0.65261
0.68063
0.7112
0.75705
0.80035
0.85385
0.88441
0.90734
0.92772
0.92262
0.91753
0.8997
0.88187
0.85894
0.82837
0.79781
0.78507
0.76215
0.75196
0.72648
0.71375
0.69082
0.69337
0.68063
0.67044
0.65516
0.64242
0.65261
0.64497
0.63733
0.63478
0.62969
0.6144
0.61695
0.62205
0.62205
0.61695
0.61695
0.6195
0.6195
0.6144
0.61695
0.62969
0.63224
0.64242
0.67554
0.7112
0.74941
0.78762
0.81819
0.84111
0.85894
0.85894
0.85385
0.84111
0.82328
0.8029
0.78507
0.76215
0.7545
0.73413
0.7112
0.69592
0.69082
0.68318
0.6679
0.65516
0.65771
0.63988
0.64497
0.63478
0.63224
0.6195
0.6195
0.61695
0.6144
0.61186
0.60422
0.60931
0.61186
0.61186
0.6195
0.61695
0.62714
0.63224
0.62714
0.65007
0.66026
0.69337
0.73413
0.77488
0.808
0.8462
0.86658
0.88187
0.87932
0.87422
0.86658
0.8462
0.82073
0.80035
0.77488
0.7596
0.74177
0.73158
0.7112
0.70356
0.69337
0.68063
0.6628
0.64752
0.64497
0.63478
0.63224
0.63224
0.63224
0.62459
0.62205
0.61695
0.61186
0.61186
0.6195
0.62459
0.62459
0.62714
0.62969
0.63224
0.63988
0.63988
0.6628
0.69337
0.73922
0.77743
0.80545
0.83602
0.84875
0.84366
0.84366
0.83092
0.81564
0.80545
0.79017
0.77233
0.74177
0.73413
0.72394
0.7112
0.69082
0.68318
0.67809
0.67044
0.66535
0.6679
0.65771
0.66026
0.65007
0.63988
0.64242
0.64242
0.63478
0.64752
0.64752
0.64752
0.63224
0.63988
0.63224
0.64242
0.65007
0.64497
0.64242
0.65516
0.66535
0.7112
0.75196
0.81054
0.85894
0.90479
0.92772
0.94045
0.9481
0.93536
0.92517
0.89715
0.87932
0.84875
0.82583
0.81054
0.78252
0.76469
0.73922
0.71629
0.70101
0.68827
0.67299
0.65516
0.63988
0.63478
0.62969
0.62714
0.62969
0.6195
0.61695
0.6144
0.6195
0.61695
0.61186
0.60676
0.59657
0.59657
0.60167
0.60167
0.60422
0.61186
0.61186
0.62459
0.65261
0.69337
0.73667
0.77233
0.81054
0.85385
0.86658
0.86913
0.86658
0.85894
0.84875
0.83092
0.81054
0.79271
0.77233
0.7545
0.73413
0.71884
0.70865
0.69082
0.67554
0.6679
0.66026
0.64752
0.63988
0.63224
0.62714
0.6144
0.60931
0.61186
0.60167
0.60167
0.60931
0.61186
0.60167
0.60422
0.60422
0.60931
0.6144
0.61695
0.6195
0.62459
0.62714
0.64497
0.67554
0.72139
0.75705
0.80035
0.84111
0.85894
0.87932
0.88696
0.87677
0.86658
0.84366
0.81819
0.8029
0.79017
0.76469
0.74431
0.72139
0.71375
0.70101
0.68573
0.67809
0.66535
0.65261
0.63988
0.63988
0.63478
0.63478
0.62714
0.62205
0.62714
0.62714
0.61186
0.6144
0.61695
0.62205
0.61695
0.6195
0.61695
0.6195
0.61695
0.63478
0.63988
0.6628
0.70101
0.72903
0.76469
0.79271
0.81564
0.82583
0.82583
0.82837
0.82073
0.8029
0.78762
0.77233
0.75705
0.74686
0.73922
0.72648
0.70865
0.69592
0.67809
0.67299
0.66535
0.6628
0.65516
0.64497
0.63478
0.63988
0.63988
0.63733
0.63478
0.63478
0.63733
0.62969
0.62205
0.63224
0.62205
0.63478
0.63733
0.64242
0.64242
0.65771
0.6628
0.69592
0.73922
0.77998
0.83602
0.88441
0.90734
0.92008
0.92772
0.92008
0.90989
0.88951
0.86149
0.83602
0.81309
0.79526
0.77488
0.74686
0.72903
0.7112
0.69846
0.67809
0.67044
0.6628
0.65261
0.63478
0.63733
0.63478
0.61695
0.61186
0.6195
0.60676
0.60422
0.6144
0.6144
0.60167
0.61186
0.6144
0.61186
0.62205
0.6195
0.6144
0.62459
0.63733
0.67044
0.70356
0.75196
0.79781
0.84366
0.88951
0.90734
0.92008
0.90479
0.90224
0.88951
0.85385
0.83092
0.81819
0.79781
0.77743
0.7545
0.73158
0.70865
0.69592
0.67554
0.6628
0.65261
0.63733
0.63478
0.62969
0.6144
0.6195
0.60931
0.60931
0.60422
0.60422
0.60676
0.60676
0.59403
0.60422
0.60931
0.6144
0.61186
0.6144
0.61695
0.6195
0.63224
0.65007
0.69337
0.73667
0.78507
0.83092
0.85385
0.88951
0.88951
0.88951
0.88696
0.85894
0.83856
0.83092
0.80545
0.78507
0.76979
0.75196
0.73413
0.71375
0.69846
0.69082
0.67554
0.66535
0.65261
0.63988
0.63224
0.62969
0.62969
0.62205
0.60676
0.60931
0.60931
0.60167
0.60676
0.60931
0.60676
0.60931
0.62205
0.6195
0.60931
0.6195
0.63224
0.63988
0.6679
0.70865
0.74431
0.79017
0.83856
0.85894
0.87932
0.88441
0.87677
0.87168
0.8513
0.83347
0.81564
0.79781
0.77233
0.74941
0.73922
0.72139
0.70865
0.69082
0.68063
0.65771
0.65261
0.65007
0.62969
0.63224
0.62714
0.6144
0.6195
0.61695
0.62205
0.60931
0.6195
0.6144
0.6144
0.61695
0.61695
0.61695
0.62459
0.62205
0.63224
0.65261
0.68318
0.73158
0.77488
0.82837
0.86149
0.87422
0.89206
0.88441
0.88441
0.86658
0.8513
0.82328
0.80545
0.78762
0.76724
0.74177
0.72139
0.70611
0.69082
0.67809
0.6679
0.65261
0.63988
0.64242
0.62969
0.62969
0.62714
0.62714
0.62205
0.6144
0.62205
0.62205
0.6144
0.60931
0.60676
0.6144
0.6144
0.6144
0.61186
0.62205
0.62714
0.65007
0.68318
0.73922
0.79781
0.86149
0.8997
0.943
0.95828
0.97357
0.95828
0.93536
0.92772
0.89715
0.86913
0.83856
0.81054
0.77998
0.7545
0.73922
0.71629
0.69337
0.68063
0.66026
0.65261
0.63224
0.63478
0.62205
0.61186
0.61186
0.60676
0.60931
0.59912
0.59912
0.60167
0.59403
0.58384
0.58893
0.58638
0.59148
0.59148
0.59148
0.59148
0.61695
0.63733
0.69337
0.73667
0.79017
0.83347
0.87422
0.8997
0.90479
0.91753
0.89715
0.87677
0.85894
0.82583
0.80035
0.77488
0.7596
0.74177
0.71629
0.70356
0.68573
0.66026
0.65516
0.63733
0.62714
0.62205
0.6144
0.61186
0.60422
0.59403
0.58893
0.60167
0.59657
0.58638
0.58638
0.59148
0.58384
0.59657
0.59148
0.59657
0.59912
0.59912
0.60931
0.64752
0.68827
0.74431
0.808
0.85639
0.90479
0.92262
0.93281
0.93281
0.92517
0.90224
0.87422
0.86149
0.83602
0.81054
0.77488
0.75196
0.73413
0.71375
0.69082
0.68827
0.67044
0.65261
0.64242
0.63733
0.62714
0.60931
0.60931
0.60422
0.59912
0.58893
0.59657
0.58893
0.58638
0.59148
0.58384
0.59148
0.59148
0.59912
0.59912
0.61695
0.65007
0.69846
0.74941
0.8029
0.83856
0.87422
0.90224
0.8946
0.90224
0.88441
0.86658
0.8462
0.82073
0.79271
0.77488
0.74431
0.72903
0.70865
0.69337
0.68573
0.66535
0.64752
0.64497
0.63478
0.62714
0.6195
0.6144
0.60422
0.60676
0.60167
0.59912
0.59912
0.59657
0.59657
0.59657
0.58893
0.59403
0.59657
0.59403
0.61186
0.6195
0.67044
0.72903
0.79271
0.8513
0.91753
0.95319
0.97866
0.9863
0.98376
0.97102
0.93536
0.91498
0.88187
0.85639
0.82073
0.79017
0.7596
0.73413
0.7112
0.68827
0.6679
0.65007
0.63478
0.62969
0.6144
0.60422
0.59657
0.58638
0.58893
0.58129
0.5762
0.58638
0.58129
0.58638
0.57874
0.58638
0.5711
0.57365
0.58384
0.57874
0.59403
0.60167
0.65007
0.70356
0.77998
0.82837
0.88696
0.92772
0.95319
0.95064
0.9481
0.92772
0.90734
0.87168
0.8462
0.82073
0.77743
0.76215
0.73158
0.70865
0.69337
0.67554
0.65261
0.63988
0.62714
0.60931
0.60676
0.59657
0.58893
0.58638
0.58638
0.57874
0.58384
0.58129
0.5711
0.57874
0.5762
0.5711
0.56601
0.57365
0.57874
0.58384
0.59912
0.61695
0.65261
0.71884
0.78507
0.8462
0.8946
0.94045
0.95319
0.96593
0.96083
0.94045
0.92517
0.88951
0.85385
0.83856
0.81309
0.78762
0.76469
0.7545
0.72394
0.70865
0.68063
0.6679
0.63733
0.6195
0.60676
0.59403
0.5711
0.56601
0.5711
0.56091
0.55327
0.55072
0.56091
0.56601
0.56091
0.56091
0.56091
0.56346
0.5711
0.5762
0.58384
0.62459
0.67809
0.73667
0.79526
0.86404
0.90734
0.94045
0.943
0.94045
0.91753
0.8997
0.85639
0.83347
0.808
0.77488
0.74941
0.71884
0.69846
0.67809
0.67554
0.65007
0.63733
0.62969
0.6195
0.6144
0.59912
0.60931
0.60167
0.59912
0.59148
0.58638
0.58384
0.59403
0.59148
0.58638
0.58638
0.58638
0.59148
0.59148
0.59912
0.6144
0.65261
0.70865
0.76469
0.83856
0.88696
0.93281
0.95828
0.95574
0.96083
0.9481
0.91498
0.87677
0.84875
0.82328
0.79271
0.7596
0.73413
0.72394
0.70356
0.69082
0.68318
0.67044
0.64752
0.63224
0.6195
0.60676
0.60167
0.60167
0.58893
0.58384
0.57874
0.57874
0.56855
0.57365
0.57874
0.57365
0.5711
0.58129
0.57874
0.5762
0.59403
0.60931
0.65261
0.7112
0.78507
0.85639
0.91498
0.96593
0.99904
1.0143
0.99904
0.9863
0.96593
0.92772
0.89715
0.86404
0.82837
0.79526
0.75705
0.73413
0.70356
0.68318
0.65516
0.64752
0.62459
0.6195
0.61186
0.60676
0.59403
0.58129
0.58384
0.5762
0.57874
0.5711
0.56855
0.56091
0.56601
0.56601
0.56855
0.57365
0.5762
0.56601
0.5762
0.58384
0.60422
0.64752
0.70865
0.76979
0.83092
0.89715
0.93281
0.96083
0.96083
0.95319
0.93281
0.90224
0.88441
0.83856
0.81564
0.79271
0.76215
0.73667
0.70865
0.69337
0.67554
0.6679
0.65007
0.63224
0.62459
0.6144
0.60167
0.59657
0.58893
0.57874
0.58129
0.5762
0.57874
0.58129
0.57365
0.5762
0.5711
0.56601
0.57874
0.5711
0.58893
0.58384
0.60931
0.63988
0.69846
0.7545
0.82583
0.87677
0.92262
0.943
0.9481
0.93791
0.92772
0.91243
0.87422
0.85639
0.83092
0.79017
0.77233
0.73922
0.72139
0.70101
0.68573
0.6628
0.65007
0.64242
0.62714
0.60931
0.60931
0.60422
0.59148
0.58893
0.58893
0.5762
0.58638
0.58893
0.58129
0.58129
0.58893
0.58638
0.58129
0.59912
0.59657
0.61695
0.63988
0.69082
0.74941
0.81054
0.86149
0.89715
0.92008
0.93026
0.92517
0.91753
0.89206
0.86404
0.84366
0.81819
0.78507
0.76469
0.73922
0.71375
0.70101
0.67554
0.6628
0.63988
0.64497
0.62459
0.62459
0.61186
0.61186
0.60676
0.60676
0.59912
0.59148
0.59403
0.58893
0.58129
0.59148
0.58893
0.58129
0.59148
0.59912
0.58893
0.60422
0.60931
0.62714
0.68573
0.74941
0.81309
0.88951
0.9481
0.99904
1.0143
1.022
1.0245
0.99904
0.95828
0.93281
0.89715
0.86149
0.82837
0.79271
0.76724
0.73413
0.7112
0.68318
0.6679
0.65261
0.63733
0.62459
0.61186
0.60931
0.59912
0.58384
0.58384
0.58129
0.57365
0.5762
0.57365
0.56601
0.57365
0.5711
0.5711
0.57365
0.57365
0.57365
0.5762
0.58638
0.59403
0.63224
0.67554
0.74177
0.79271
0.8513
0.88696
0.90989
0.92517
0.92262
0.90224
0.87422
0.84875
0.82583
0.81054
0.77998
0.7545
0.73667
0.71629
0.68827
0.67299
0.65516
0.65007
0.64497
0.62969
0.61186
0.60422
0.59403
0.59912
0.59403
0.59148
0.59148
0.59403
0.58638
0.58638
0.58129
0.58638
0.58893
0.58893
0.58384
0.58893
0.59148
0.60676
0.62205
0.6628
0.72648
0.78507
0.8462
0.88951
0.92772
0.95574
0.96083
0.95574
0.93791
0.91498
0.89206
0.86658
0.82583
0.8029
0.77743
0.74686
0.72903
0.70865
0.69082
0.67299
0.66026
0.63733
0.63224
0.62459
0.60931
0.60676
0.60167
0.59912
0.59148
0.59148
0.58384
0.58129
0.58129
0.58129
0.5762
0.58893
0.58129
0.59148
0.60931
0.63224
0.67044
0.71375
0.7545
0.79526
0.82837
0.8513
0.86404
0.84875
0.84366
0.81819
0.80545
0.78507
0.76979
0.74431
0.73158
0.72139
0.69592
0.68827
0.67554
0.66026
0.65516
0.65007
0.63988
0.62969
0.62205
0.62459
0.61695
0.61186
0.60931
0.61186
0.60931
0.60676
0.60167
0.60931
0.61186
0.60422
0.60422
0.60422
0.61186
0.60931
0.6195
0.6195
0.63733
0.67044
0.74177
0.82583
0.92008
1.0041
1.0627
1.1137
1.1315
1.1315
1.106
1.0831
1.0423
1.0016
0.95319
0.90479
0.87168
0.83602
0.8029
0.76979
0.72648
0.7112
0.68063
0.66026
0.63988
0.62459
0.60422
0.59148
0.58638
0.58638
0.5711
0.56091
0.55836
0.55836
0.54818
0.54818
0.54818
0.53544
0.53799
0.54308
0.54308
0.54563
0.54563
0.55836
0.5711
0.59657
0.64497
0.69337
0.73413
0.77488
0.81309
0.83092
0.83347
0.83092
0.81564
0.80035
0.79526
0.77233
0.75705
0.73413
0.72139
0.70611
0.69082
0.67299
0.6628
0.65516
0.64242
0.63224
0.63478
0.62205
0.61695
0.60931
0.59912
0.59912
0.59148
0.59912
0.59657
0.59657
0.60167
0.60167
0.59148
0.59403
0.59912
0.60676
0.60167
0.60676
0.6144
0.63224
0.6628
0.72394
0.78507
0.85639
0.91753
0.95319
0.97612
0.98885
0.9863
0.97102
0.9481
0.91753
0.8946
0.87168
0.84111
0.80545
0.77233
0.7596
0.73667
0.7112
0.69082
0.67044
0.65516
0.65007
0.62969
0.6195
0.60931
0.60676
0.60676
0.60422
0.59657
0.59657
0.59912
0.59148
0.59148
0.58129
0.58384
0.58384
0.58893
0.58893
0.60422
0.60931
0.63224
0.67554
0.72648
0.77488
0.82583
0.85639
0.86658
0.87677
0.86658
0.85385
0.8462
0.81564
0.80035
0.77488
0.76469
0.73413
0.71629
0.69082
0.69082
0.6628
0.65771
0.64497
0.63733
0.63224
0.62459
0.62205
0.61695
0.6144
0.60931
0.61186
0.60931
0.60167
0.59148
0.60167
0.59657
0.60422
0.61186
0.61695
0.60676
0.6144
0.62205
0.63478
0.6679
0.71629
0.77998
0.85639
0.92262
0.97357
1.0092
1.0347
1.0423
1.022
0.99649
0.97612
0.93536
0.89715
0.85385
0.82837
0.8029
0.77233
0.74431
0.71375
0.69592
0.67044
0.66026
0.63224
0.62714
0.6144
0.59912
0.59148
0.59912
0.58638
0.5762
0.5711
0.5711
0.5711
0.56601
0.5762
0.57365
0.5711
0.5711
0.58638
0.58129
0.59148
0.58893
0.60931
0.64242
0.68063
0.72648
0.78252
0.82583
0.85639
0.87677
0.88951
0.87932
0.87168
0.85385
0.82328
0.80035
0.78252
0.76979
0.74431
0.71629
0.71375
0.69846
0.68063
0.66535
0.65007
0.64752
0.62459
0.62205
0.6195
0.60422
0.60422
0.60422
0.59657
0.59657
0.59912
0.59403
0.59148
0.59148
0.59657
0.59657
0.59148
0.60167
0.60931
0.6195
0.65007
0.69082
0.74431
0.80035
0.85639
0.90734
0.93536
0.95064
0.95064
0.95064
0.93281
0.89715
0.87422
0.84366
0.82073
0.79526
0.76979
0.73922
0.72394
0.70865
0.68318
0.67044
0.64752
0.63224
0.6195
0.6144
0.60676
0.60167
0.58893
0.59403
0.58384
0.59148
0.58893
0.58384
0.57874
0.58638
0.58638
0.59657
0.59148
0.59912
0.59912
0.6144
0.63478
0.67809
0.73922
0.79781
0.85639
0.88696
0.92772
0.93791
0.943
0.93281
0.90734
0.87677
0.85385
0.83092
0.808
0.78252
0.7545
0.72394
0.71375
0.69082
0.68063
0.67299
0.65261
0.64242
0.63224
0.61695
0.60676
0.59912
0.60167
0.59912
0.59403
0.59403
0.58384
0.58638
0.57365
0.58638
0.58893
0.58384
0.59148
0.59148
0.59403
0.60676
0.62205
0.67044
0.73667
0.81054
0.87422
0.92517
0.96847
0.99904
1.0067
0.98885
0.96338
0.94045
0.91498
0.87932
0.84366
0.81054
0.78252
0.7596
0.72648
0.70356
0.68318
0.6679
0.65007
0.63224
0.6195
0.61695
0.60422
0.59657
0.58384
0.58384
0.58638
0.56601
0.56855
0.56855
0.56855
0.56091
0.56601
0.5711
0.57365
0.57365
0.58129
0.58893
0.59148
0.61186
0.65771
0.70865
0.77233
0.83347
0.87677
0.91498
0.93281
0.93026
0.93281
0.91243
0.88187
0.85894
0.83347
0.80545
0.77488
0.74941
0.72903
0.70356
0.68318
0.67044
0.64497
0.63988
0.62969
0.61186
0.61186
0.61186
0.60931
0.60422
0.59912
0.59657
0.58893
0.59148
0.59912
0.59912
0.58638
0.60167
0.58893
0.59912
0.59657
0.60422
0.62205
0.65261
0.7112
0.77233
0.83347
0.88696
0.92517
0.9481
0.95319
0.9481
0.92517
0.91243
0.87932
0.8513
0.81819
0.79781
0.76979
0.73413
0.71884
0.69592
0.67809
0.6628
0.64752
0.63478
0.62969
0.60931
0.60676
0.60422
0.60167
0.58638
0.58129
0.58129
0.58893
0.58893
0.58129
0.58638
0.58129
0.57365
0.57874
0.57874
0.58384
0.60676
0.63224
0.67554
0.7545
0.82328
0.87932
0.92262
0.96338
0.98121
0.9863
0.96847
0.93536
0.90734
0.88187
0.8513
0.81054
0.77998
0.7545
0.73158
0.70865
0.69592
0.67554
0.65261
0.64497
0.62714
0.60931
0.60167
0.59912
0.59912
0.58893
0.58384
0.57365
0.58638
0.57365
0.57365
0.56855
0.58129
0.58129
0.5711
0.58129
0.58893
0.58893
0.58638
0.60931
0.65261
0.71375
0.79526
0.86658
0.91753
0.97102
0.99904
1.0143
0.99649
0.98885
0.95574
0.92008
0.88951
0.85385
0.82073
0.79017
0.7545
0.74177
0.71629
0.68827
0.66535
0.64242
0.63224
0.6195
0.61186
0.60167
0.57874
0.57874
0.5762
0.56855
0.56601
0.5711
0.55582
0.56091
0.56601
0.55327
0.56601
0.56601
0.56091
0.56091
0.56346
0.58129
0.59912
0.63224
0.68827
0.75196
0.81819
0.88441
0.91753
0.96083
0.96593
0.96083
0.9481
0.92262
0.8997
0.86658
0.83092
0.80035
0.77743
0.74177
0.71629
0.70356
0.67809
0.65771
0.63733
0.62969
0.6195
0.60676
0.60676
0.59403
0.58638
0.58893
0.58384
0.58129
0.5762
0.58129
0.58129
0.58129
0.5711
0.5762
0.58129
0.56855
0.58129
0.58129
0.58893
0.6195
0.68827
0.74686
0.81819
0.87168
0.91753
0.95574
0.95574
0.95828
0.9481
0.91753
0.90224
0.87677
0.83347
0.81564
0.77488
0.7596
0.73413
0.7112
0.69082
0.67299
0.65771
0.63733
0.62205
0.62205
0.61186
0.59912
0.59657
0.59148
0.59148
0.58384
0.5711
0.58384
0.57874
0.57365
0.56855
0.5762
0.58129
0.57874
0.58129
0.58893
0.60931
0.6628
0.71629
0.78762
0.85385
0.8997
0.93791
0.95828
0.95828
0.95064
0.93026
0.90734
0.87422
0.8513
0.81819
0.79271
0.76724
0.74177
0.72648
0.69846
0.67299
0.66026
0.65261
0.63988
0.62205
0.6144
0.61186
0.60422
0.59148
0.58638
0.58129
0.58638
0.58129
0.57874
0.57874
0.5762
0.58129
0.5762
0.57874
0.57874
0.58129
0.58893
0.59912
0.63478
0.7112
0.77233
0.85894
0.92517
0.97357
1.0143
1.0347
1.0245
1.0041
0.97612
0.9481
0.90734
0.87168
0.83347
0.79781
0.76979
0.73922
0.71375
0.68318
0.66026
0.63988
0.62205
0.60931
0.60931
0.59403
0.59148
0.57874
0.58129
0.5711
0.56091
0.56346
0.56091
0.55072
0.55072
0.55582
0.56346
0.56601
0.56601
0.56091
0.56091
0.57874
0.59403
0.61695
0.68318
0.74177
0.81054
0.86658
0.91753
0.9481
0.95064
0.96083
0.94045
0.91753
0.89715
0.86149
0.82837
0.8029
0.76979
0.74177
0.72394
0.70101
0.67554
0.66026
0.64752
0.63733
0.62714
0.61186
0.59912
0.59148
0.58638
0.59148
0.58129
0.58638
0.58638
0.5762
0.58129
0.5762
0.5762
0.57365
0.58893
0.58638
0.58893
0.58638
0.59148
0.60167
0.63478
0.67299
0.74431
0.82583
0.88696
0.9481
0.97612
1.0016
1.0092
0.9863
0.96338
0.93281
0.89206
0.86404
0.83602
0.79271
0.76724
0.74177
0.72394
0.69592
0.67044
0.6679
0.65261
0.62714
0.62714
0.61695
0.60167
0.59148
0.58893
0.58638
0.58129
0.58638
0.58129
0.58384
0.5762
0.5711
0.56855
0.5711
0.56601
0.58129
0.5711
0.59148
0.61695
0.65261
0.71629
0.77998
0.82837
0.87677
0.90734
0.91753
0.92517
0.90734
0.88696
0.86913
0.83092
0.81054
0.78252
0.7545
0.73413
0.70865
0.69592
0.67299
0.6628
0.64242
0.63988
0.63478
0.62205
0.62205
0.6144
0.60931
0.59912
0.59148
0.59148
0.59148
0.58384
0.59148
0.59403
0.59403
0.58893
0.59403
0.59657
0.59912
0.59912
0.60676
0.63224
0.66026
0.73922
0.8029
0.88951
0.95319
1.0041
1.0372
1.05
1.05
1.022
0.99904
0.96847
0.91753
0.88696
0.8513
0.80545
0.78507
0.75196
0.72394
0.68827
0.67299
0.65261
0.62714
0.61695
0.59657
0.59912
0.57874
0.5711
0.58129
0.5711
0.56601
0.56346
0.55582
0.56601
0.55582
0.56601
0.5711
0.56855
0.56346
0.5762
0.5762
0.58129
0.57365
0.58384
0.62205
0.65516
0.71884
0.78762
0.8513
0.91243
0.95064
0.97357
0.9863
0.96847
0.95064
0.92517
0.8946
0.85894
0.82328
0.80035
0.76979
0.74177
0.72394
0.70356
0.68318
0.66535
0.65261
0.62714
0.62205
0.60931
0.60167
0.59657
0.59403
0.58129
0.57365
0.57365
0.5711
0.56091
0.56091
0.56855
0.56855
0.57365
0.56601
0.56091
0.5711
0.56346
0.5711
0.58129
0.59403
0.62459
0.68318
0.74941
0.80545
0.88441
0.92517
0.96847
0.98376
0.98376
0.97102
0.95064
0.92008
0.89206
0.86658
0.83092
0.80545
0.77488
0.75196
0.73413
0.70101
0.68827
0.67044
0.6628
0.65007
0.62969
0.6144
0.60931
0.60931
0.59403
0.58129
0.59148
0.57365
0.58129
0.58129
0.57365
0.57365
0.5762
0.5762
0.57365
0.58129
0.58384
0.58129
0.59148
0.58638
0.60931
0.62714
0.66535
0.72903
0.79017
0.8513
0.89206
0.92262
0.943
0.94045
0.94045
0.92262
0.89715
0.86404
0.84111
0.82073
0.79017
0.76469
0.74177
0.71884
0.69082
0.68827
0.6679
0.66026
0.65007
0.62969
0.62205
0.61695
0.60931
0.60931
0.59912
0.60422
0.60676
0.60422
0.59148
0.60167
0.58638
0.59912
0.59148
0.60167
0.59148
0.59403
0.60676
0.6195
0.63733
0.69082
0.73667
0.79017
0.83602
0.87168
0.8946
0.91243
0.91753
0.89715
0.87677
0.85894
0.83347
0.808
0.78507
0.7596
0.74686
0.72648
0.71375
0.69082
0.68573
0.66535
0.65516
0.65261
0.63988
0.62205
0.6195
0.60931
0.60676
0.60422
0.60676
0.59912
0.60167
0.59912
0.59148
0.58893
0.59657
0.59912
0.60422
0.60676
0.6144
0.6195
0.62714
0.63988
0.6628
0.70865
0.77233
0.8513
0.90479
0.96338
0.99649
1.0143
1.0067
0.9914
0.98121
0.943
0.92262
0.88441
0.85385
0.81819
0.78762
0.7545
0.73667
0.71375
0.69337
0.68318
0.65516
0.65007
0.63478
0.62969
0.6144
0.61186
0.59657
0.58893
0.58384
0.58129
0.5711
0.5711
0.57874
0.58129
0.5762
0.58638
0.5762
0.5711
0.58384
0.57874
0.57874
0.59148
0.59912
0.62714
0.67809
0.73922
0.80035
0.84875
0.8946
0.92517
0.943
0.9481
0.93536
0.90989
0.89715
0.86404
0.83092
0.8029
0.79017
0.76215
0.73413
0.72394
0.69082
0.68573
0.66535
0.65771
0.63988
0.62969
0.6195
0.60931
0.59657
0.59148
0.59148
0.59148
0.59657
0.59148
0.58893
0.58638
0.58384
0.57874
0.57874
0.59148
0.58638
0.58129
0.59148
0.59657
0.59912
0.62205
0.65771
0.70356
0.76215
0.82073
0.86149
0.90734
0.93536
0.943
0.92772
0.91243
0.90734
0.87168
0.85639
0.82583
0.8029
0.77233
0.74941
0.74431
0.72394
0.70101
0.68573
0.66535
0.65516
0.64242
0.63988
0.62969
0.6195
0.61186
0.60167
0.60931
0.59657
0.59912
0.60422
0.59657
0.60167
0.59912
0.58384
0.59148
0.59148
0.59148
0.60167
0.62205
0.64242
0.6679
0.72648
0.78252
0.82328
0.86658
0.89206
0.91243
0.92008
0.8997
0.88696
0.87422
0.84111
0.81564
0.80545
0.76979
0.7596
0.72648
0.7112
0.70356
0.68827
0.67299
0.6628
0.64242
0.63224
0.62459
0.6144
0.60676
0.60167
0.60167
0.59912
0.60422
0.60167
0.59912
0.59657
0.60167
0.59403
0.60422
0.60676
0.60167
0.60676
0.61186
0.6195
0.64242
0.68318
0.74431
0.81564
0.88441
0.93791
0.9863
1.0194
1.0169
1.0169
0.99649
0.97102
0.93791
0.90734
0.86149
0.84111
0.8029
0.77998
0.75196
0.72903
0.70611
0.68318
0.66535
0.65516
0.63224
0.62714
0.62205
0.60422
0.60167
0.59148
0.58638
0.58129
0.57365
0.5711
0.58129
0.5711
0.56346
0.57874
0.56855
0.56855
0.56855
0.58638
0.58893
0.59912
0.6195
0.6628
0.72139
0.79271
0.8513
0.8946
0.93026
0.9481
0.943
0.94045
0.91753
0.89715
0.87168
0.83092
0.808
0.78507
0.74686
0.73413
0.70865
0.69082
0.67299
0.65261
0.64242
0.63988
0.62205
0.60676
0.60676
0.59912
0.59148
0.58638
0.58129
0.5762
0.57365
0.57365
0.56855
0.57365
0.5762
0.5762
0.58129
0.5762
0.58384
0.58893
0.59148
0.61695
0.65007
0.71375
0.76724
0.83602
0.90224
0.95064
0.97866
0.99395
0.98885
0.97357
0.95574
0.92772
0.8946
0.85894
0.82328
0.79526
0.76469
0.73413
0.70356
0.69082
0.67044
0.64752
0.64242
0.62969
0.6144
0.60676
0.59912
0.58893
0.59148
0.58129
0.58129
0.58893
0.57365
0.57874
0.5711
0.56855
0.56855
0.5711
0.5762
0.58129
0.58893
0.6144
0.64752
0.70101
0.76979
0.82837
0.87168
0.90224
0.92772
0.92517
0.91753
0.8997
0.88187
0.85385
0.83602
0.808
0.77743
0.74686
0.72648
0.71375
0.69082
0.67044
0.66535
0.65007
0.64497
0.62714
0.6144
0.6195
0.60676
0.59403
0.59148
0.59148
0.58893
0.59148
0.58129
0.58129
0.58129
0.57874
0.58638
0.58638
0.58893
0.58893
0.59403
0.62459
0.6679
0.73667
0.81819
0.89715
0.9481
0.99649
1.0194
1.0322
1.0296
1.0016
0.97866
0.94045
0.8997
0.85385
0.81819
0.79017
0.76215
0.73413
0.70101
0.68318
0.65261
0.64752
0.62969
0.62205
0.60931
0.58893
0.59403
0.58384
0.5762
0.58129
0.5711
0.56601
0.5711
0.56091
0.55836
0.55836
0.55327
0.55327
0.56346
0.56855
0.57365
0.58129
0.60676
0.64242
0.70101
0.77488
0.85385
0.89715
0.95828
0.97866
0.98121
0.98121
0.96338
0.92772
0.90734
0.87422
0.82583
0.808
0.76215
0.73413
0.71375
0.68827
0.67044
0.65516
0.63224
0.62714
0.61186
0.60422
0.59403
0.58893
0.58893
0.5762
0.5762
0.56855
0.56601
0.56601
0.5711
0.56855
0.56601
0.56601
0.55836
0.5711
0.5762
0.5711
0.58638
0.59148
0.63224
0.68827
0.76469
0.84111
0.8997
0.96593
0.98885
1.0169
1.0067
0.9914
0.96847
0.93281
0.89715
0.86149
0.82583
0.80035
0.76469
0.73922
0.70865
0.69082
0.67044
0.64242
0.62714
0.6195
0.60931
0.59657
0.59148
0.58384
0.58129
0.57874
0.56346
0.55836
0.55836
0.55582
0.56091
0.55327
0.55836
0.55327
0.56091
0.56346
0.56601
0.58129
0.61186
0.66535
0.72139
0.79526
0.8513
0.91243
0.9481
0.95828
0.95828
0.94555
0.91498
0.89206
0.86404
0.84111
0.80545
0.77233
0.74431
0.73158
0.70356
0.68063
0.66535
0.65007
0.63478
0.62459
0.61186
0.59657
0.59657
0.59403
0.57874
0.58638
0.57874
0.56855
0.56855
0.5711
0.56601
0.5711
0.5762
0.58129
0.58384
0.5762
0.58129
0.60167
0.63224
0.69337
0.76469
0.84366
0.92008
0.97612
1.0118
1.0245
1.0296
1.0118
0.97866
0.95064
0.90734
0.87932
0.83856
0.81564
0.77488
0.73922
0.71884
0.70101
0.67299
0.64752
0.63478
0.62205
0.59912
0.58638
0.5762
0.57365
0.57365
0.56346
0.56601
0.56601
0.55836
0.55072
0.55327
0.55836
0.55327
0.55327
0.55582
0.56346
0.56601
0.5711
0.57365
0.59148
0.6195
0.6679
0.75196
0.82837
0.90734
0.97357
1.0067
1.0322
1.0398
1.0245
0.99904
0.96593
0.93536
0.89206
0.85385
0.81054
0.78507
0.75196
0.72139
0.69592
0.67299
0.64497
0.63224
0.6195
0.60422
0.59403
0.57874
0.5762
0.58129
0.56855
0.55836
0.55582
0.55836
0.56091
0.56091
0.55582
0.55072
0.54053
0.54818
0.54563
0.55327
0.55327
0.55582
0.5711
0.58129
0.63478
0.69337
0.77488
0.83856
0.8997
0.95828
0.98376
0.98121
0.97357
0.96083
0.92008
0.89715
0.85639
0.82837
0.8029
0.76469
0.73922
0.72139
0.69082
0.6679
0.65771
0.63478
0.62969
0.62205
0.6144
0.59912
0.59148
0.58384
0.58638
0.57365
0.57874
0.5711
0.5711
0.5711
0.57365
0.56346
0.56601
0.57874
0.56855
0.58129
0.58638
0.60676
0.62714
0.69082
0.74941
0.81054
0.87422
0.92008
0.94555
0.96083
0.95828
0.94045
0.91753
0.89715
0.86149
0.83092
0.81054
0.78252
0.7596
0.73158
0.70865
0.69082
0.6679
0.65771
0.64752
0.63478
0.6195
0.60931
0.59403
0.59403
0.59148
0.58893
0.58384
0.58893
0.58638
0.57874
0.58384
0.57874
0.57874
0.58638
0.58129
0.58384
0.58129
0.59657
0.60422
0.64752
0.71629
0.79017
0.85894
0.93536
0.97612
1.0169
1.0245
1.0271
1.0143
0.9863
0.9481
0.91243
0.87677
0.84366
0.80545
0.77233
0.74431
0.71884
0.69082
0.6628
0.65261
0.62459
0.6195
0.61186
0.59657
0.59148
0.58638
0.58129
0.57365
0.56601
0.55836
0.56091
0.56091
0.55327
0.56601
0.55327
0.56601
0.55836
0.5711
0.5711
0.56601
0.58129
0.58129
0.60676
0.65261
0.72394
0.79526
0.86658
0.93791
0.97866
1.0194
1.0271
1.0322
1.0016
0.97866
0.943
0.90734
0.86658
0.83347
0.78507
0.7545
0.73413
0.69846
0.68573
0.66535
0.65007
0.62969
0.6195
0.61186
0.59912
0.59403
0.5762
0.5711
0.56601
0.57365
0.56601
0.56601
0.56346
0.55836
0.56346
0.55327
0.55836
0.55836
0.56346
0.5711
0.5762
0.57365
0.58638
0.59912
0.64752
0.70865
0.77233
0.8462
0.91243
0.95064
0.97866
0.98885
0.97612
0.96338
0.93791
0.90734
0.87677
0.83347
0.81309
0.77998
0.7545
0.73413
0.69846
0.68827
0.65516
0.64242
0.62205
0.6144
0.60167
0.59403
0.59148
0.58384
0.58893
0.57365
0.58129
0.58129
0.5762
0.57874
0.57874
0.5762
0.57365
0.57365
0.57365
0.58384
0.58893
0.59657
0.60676
0.63988
0.69592
0.75705
0.82328
0.87168
0.92262
0.94555
0.95574
0.95319
0.94555
0.92772
0.8946
0.86658
0.83602
0.8029
0.77998
0.7596
0.73413
0.71375
0.69337
0.67554
0.65771
0.63988
0.63478
0.62459
0.6144
0.60676
0.59657
0.59912
0.59148
0.59148
0.58638
0.5762
0.58129
0.58893
0.58893
0.58384
0.59148
0.58638
0.58384
0.59148
0.60422
0.60676
0.62969
0.67809
0.74941
0.81564
0.88696
0.943
0.98121
1.0016
1.0067
1.0016
0.97102
0.9481
0.91753
0.88696
0.8462
0.81564
0.78507
0.75196
0.72903
0.7112
0.68318
0.6679
0.65516
0.64242
0.63224
0.62205
0.60676
0.59912
0.59403
0.58893
0.58638
0.58384
0.57365
0.57365
0.5711
0.56855
0.57874
0.57874
0.58129
0.5762
0.5711
0.57365
0.58384
0.58893
0.59912
0.6144
0.6628
0.72394
0.79781
0.86913
0.92772
0.97357
1.0067
1.0041
1.0041
0.98376
0.95574
0.91498
0.88696
0.8513
0.81564
0.77488
0.76215
0.71884
0.69846
0.68063
0.6679
0.65007
0.62969
0.61186
0.59912
0.59148
0.58384
0.58384
0.58384
0.57365
0.5711
0.57365
0.56601
0.56601
0.56601
0.56091
0.56601
0.56601
0.57365
0.56091
0.56855
0.57365
0.58129
0.58129
0.61186
0.65261
0.7112
0.76215
0.84111
0.88696
0.94555
0.95828
0.96847
0.96593
0.943
0.92262
0.89206
0.86404
0.83347
0.80545
0.77488
0.74431
0.72394
0.71629
0.68827
0.66535
0.65771
0.65007
0.63733
0.62969
0.60676
0.60167
0.59657
0.58638
0.59403
0.57874
0.58893
0.57874
0.58129
0.58638
0.57365
0.58129
0.58893
0.58638
0.58893
0.59148
0.59912
0.6144
0.64497
0.69592
0.74941
0.808
0.85639
0.90224
0.92517
0.943
0.93791
0.92008
0.8946
0.87677
0.85385
0.83092
0.80545
0.77488
0.7545
0.73158
0.7112
0.69082
0.67554
0.65516
0.65261
0.63733
0.62205
0.61695
0.60931
0.60167
0.60167
0.59912
0.58893
0.59148
0.58638
0.58129
0.57874
0.58638
0.59403
0.59148
0.59148
0.59403
0.59403
0.59912
0.62459
0.65771
0.71884
0.79271
0.86913
0.92517
0.97357
1.0092
1.0245
1.0194
0.99649
0.9863
0.94045
0.90989
0.87932
0.8462
0.81054
0.77998
0.75196
0.72648
0.69592
0.68318
0.67044
0.64497
0.62969
0.60931
0.60931
0.59148
0.59148
0.58638
0.5762
0.5711
0.5711
0.56855
0.5711
0.5711
0.55836
0.56855
0.56601
0.55836
0.5711
0.56855
0.5711
0.57874
0.59403
0.6195
0.67554
0.75196
0.82328
0.88441
0.93791
0.97866
1.0016
1.0041
0.9863
0.96338
0.92517
0.8997
0.86913
0.84111
0.81054
0.77488
0.73922
0.72139
0.70356
0.68063
0.66026
0.64242
0.63224
0.60931
0.60422
0.59403
0.57874
0.5762
0.57874
0.56091
0.55582
0.5711
0.56855
0.56601
0.56346
0.56601
0.55836
0.56091
0.56091
0.56855
0.57365
0.5711
0.59403
0.62205
0.67299
0.73667
0.80545
0.87932
0.943
0.97866
0.99904
1.0067
0.99649
0.96847
0.94555
0.90989
0.87422
0.83347
0.81564
0.77998
0.75196
0.72139
0.70101
0.67299
0.6679
0.64497
0.62205
0.62205
0.60167
0.59403
0.58129
0.58129
0.57365
0.5711
0.56601
0.57365
0.5711
0.5762
0.5711
0.5711
0.57874
0.56601
0.5762
0.56855
0.58384
0.60167
0.62969
0.68827
0.74686
0.81819
0.86658
0.91753
0.95574
0.95828
0.96847
0.95319
0.92008
0.89715
0.86149
0.84366
0.81054
0.77743
0.74431
0.72394
0.70101
0.68063
0.65771
0.64752
0.63224
0.6144
0.61186
0.59657
0.58893
0.59148
0.59403
0.58384
0.58893
0.57365
0.5762
0.58129
0.56855
0.5762
0.5762
0.56855
0.57365
0.58638
0.58638
0.59912
0.63224
0.68063
0.75705
0.83347
0.90734
0.96593
1.0016
1.0372
1.0271
1.0118
0.99395
0.96083
0.92772
0.88441
0.8513
0.81564
0.78507
0.74686
0.72394
0.70101
0.67044
0.65771
0.64242
0.62205
0.60931
0.58893
0.59148
0.57874
0.5711
0.55836
0.55836
0.56091
0.56091
0.56346
0.55072
0.56346
0.56855
0.56601
0.56601
0.55836
0.5711
0.56855
0.57365
0.59657
0.62714
0.70101
0.77233
0.85639
0.91753
0.98121
1.0245
1.0372
1.0372
1.0194
0.97866
0.9481
0.90479
0.87422
0.84111
0.8029
0.77488
0.73158
0.70101
0.68063
0.6628
0.63224
0.62714
0.60422
0.59912
0.59148
0.5762
0.56855
0.55582
0.55836
0.55072
0.55327
0.55327
0.55327
0.54818
0.54308
0.55327
0.54818
0.55582
0.56346
0.55327
0.56346
0.56855
0.58893
0.63988
0.69846
0.78252
0.86149
0.92517
0.97612
1.0041
1.0143
1.0118
0.9863
0.96083
0.91753
0.88441
0.8462
0.81054
0.76724
0.73667
0.70865
0.68573
0.67809
0.65261
0.63478
0.6144
0.60931
0.60422
0.59148
0.58129
0.57365
0.5711
0.56346
0.56601
0.55836
0.55327
0.56091
0.54818
0.56091
0.55072
0.55072
0.56346
0.55327
0.56091
0.58893
0.62714
0.69337
0.76724
0.84111
0.89715
0.95064
0.9863
0.98121
0.97612
0.95574
0.943
0.90479
0.87932
0.8462
0.79781
0.77488
0.74177
0.72139
0.70101
0.67299
0.6628
0.65261
0.63224
0.62714
0.61186
0.60931
0.59403
0.58893
0.58638
0.57365
0.56346
0.56091
0.5762
0.56855
0.56346
0.5711
0.5762
0.5711
0.5762
0.56855
0.58384
0.60931
0.65771
0.73158
0.81819
0.8946
0.95574
1.0016
1.0449
1.0551
1.0423
1.0169
0.97357
0.93536
0.89206
0.85639
0.81564
0.77488
0.74686
0.71884
0.69082
0.6679
0.64242
0.62205
0.61695
0.60931
0.58893
0.5762
0.56855
0.55836
0.55836
0.55327
0.54308
0.54308
0.54308
0.54308
0.54053
0.55072
0.55072
0.55582
0.56601
0.56346
0.5711
0.57365
0.60422
0.65516
0.73667
0.81819
0.90734
0.97866
1.0245
1.05
1.0704
1.0551
1.0296
0.99395
0.9481
0.91753
0.86149
0.82837
0.78507
0.7545
0.73158
0.70101
0.68063
0.65261
0.62714
0.60931
0.60931
0.58893
0.5762
0.56091
0.55836
0.54563
0.55072
0.53799
0.54053
0.54053
0.53799
0.53799
0.54053
0.54053
0.53544
0.53799
0.54818
0.55836
0.55072
0.56346
0.60676
0.68063
0.76215
0.84111
0.91753
0.97357
1.022
1.0322
1.0296
1.0016
0.97357
0.943
0.89715
0.87168
0.83092
0.79017
0.76215
0.73413
0.70101
0.68318
0.65007
0.63733
0.62714
0.6144
0.59148
0.58384
0.56855
0.56855
0.56091
0.55582
0.54818
0.55327
0.56091
0.55582
0.55327
0.56346
0.55327
0.55327
0.55836
0.55836
0.56346
0.57365
0.60931
0.65261
0.73667
0.808
0.87932
0.93536
0.97612
1.0041
1.0067
0.99904
0.97357
0.94045
0.8997
0.86913
0.82328
0.78762
0.76724
0.73667
0.71375
0.68318
0.65771
0.63988
0.62714
0.60931
0.60422
0.58129
0.57874
0.57365
0.55836
0.56346
0.56091
0.55327
0.55072
0.55327
0.55327
0.55836
0.55327
0.55836
0.55327
0.55836
0.56601
0.59148
0.63224
0.70356
0.79271
0.86913
0.93536
0.98885
1.0296
1.0474
1.0423
1.0143
0.98885
0.943
0.90479
0.86658
0.82837
0.79271
0.76215
0.72903
0.70101
0.67554
0.65261
0.62714
0.61695
0.60167
0.59148
0.58384
0.57365
0.56346
0.55072
0.56091
0.55327
0.54818
0.54053
0.54563
0.54563
0.54818
0.54818
0.54563
0.55072
0.55582
0.55327
0.55327
0.58129
0.61695
0.68827
0.77488
0.86404
0.94555
1.0092
1.0653
1.0806
1.0831
1.0729
1.0398
0.99904
0.9481
0.90479
0.86658
0.82583
0.77998
0.73667
0.71884
0.68063
0.66535
0.63988
0.62714
0.61186
0.58638
0.58129
0.5711
0.55836
0.55836
0.54563
0.54053
0.54308
0.54053
0.54308
0.53034
0.53799
0.54053
0.54053
0.54818
0.54563
0.54563
0.55582
0.55836
0.57874
0.63733
0.70356
0.78507
0.86658
0.93536
0.99649
1.022
1.0296
1.0271
1.0016
0.96338
0.92517
0.87932
0.8513
0.81309
0.77488
0.73922
0.70356
0.68827
0.66535
0.64752
0.63224
0.61695
0.61186
0.58638
0.58384
0.56855
0.57365
0.56601
0.55836
0.55582
0.55327
0.55327
0.55072
0.55072
0.55072
0.55836
0.55072
0.54818
0.55836
0.56346
0.57365
0.58638
0.61695
0.67809
0.75196
0.82583
0.91243
0.97357
1.0118
1.0474
1.0423
1.0372
1.0041
0.97357
0.92262
0.89206
0.8462
0.81564
0.77488
0.74177
0.70356
0.67554
0.66026
0.64752
0.62459
0.60676
0.59912
0.59657
0.58129
0.57365
0.56855
0.55327
0.56346
0.55327
0.55327
0.55327
0.54818
0.55582
0.56091
0.55836
0.55327
0.56601
0.56601
0.57874
0.60676
0.6679
0.73922
0.80545
0.87168
0.92262
0.96083
0.9863
0.98376
0.96593
0.95319
0.91753
0.88441
0.84875
0.81564
0.78252
0.7545
0.73158
0.70356
0.68318
0.6628
0.64242
0.62205
0.6144
0.60422
0.59148
0.57874
0.56855
0.5711
0.56346
0.56091
0.56601
0.56601
0.56091
0.56601
0.55836
0.55836
0.5711
0.56601
0.5762
0.5762
0.58638
0.58384
0.59657
0.63224
0.70101
0.79017
0.88441
0.97866
1.0551
1.1009
1.129
1.129
1.1213
1.0933
1.0372
0.99649
0.95319
0.8997
0.85385
0.81309
0.76724
0.73158
0.70611
0.67554
0.65007
0.63224
0.60676
0.58129
0.5762
0.55836
0.55327
0.55072
0.53289
0.53289
0.53034
0.53289
0.53289
0.53544
0.5227
0.53544
0.53034
0.53034
0.53544
0.53289
0.54053
0.54563
0.55582
0.56091
0.59912
0.65261
0.72139
0.80035
0.86404
0.91243
0.95574
0.97612
0.97866
0.96338
0.9481
0.91753
0.88441
0.85385
0.82073
0.79271
0.76979
0.74177
0.7112
0.69337
0.67299
0.65007
0.63478
0.62205
0.6144
0.59148
0.58384
0.57874
0.5762
0.56855
0.56601
0.56091
0.56346
0.55327
0.55582
0.56855
0.55582
0.56601
0.5762
0.5711
0.57365
0.57874
0.58893
0.6144
0.6679
0.72903
0.81054
0.87168
0.94045
0.98885
1.0092
1.0194
0.99649
0.98885
0.94555
0.91498
0.88441
0.85639
0.81564
0.79271
0.7545
0.72394
0.70865
0.67809
0.65771
0.63988
0.62205
0.61695
0.60167
0.59403
0.58129
0.57365
0.56601
0.5762
0.56855
0.5711
0.56346
0.55582
0.55327
0.56091
0.55836
0.56601
0.5711
0.5711
0.58129
0.5762
0.59657
0.62205
0.67809
0.75705
0.83347
0.90734
0.95828
0.99649
1.0194
1.0169
1.0118
0.98121
0.95064
0.91753
0.87677
0.84366
0.81054
0.78507
0.75196
0.73158
0.70101
0.67809
0.66026
0.63478
0.62205
0.61186
0.59912
0.58129
0.57874
0.57365
0.5762
0.56855
0.5711
0.56346
0.55072
0.56346
0.55836
0.55582
0.55072
0.55836
0.56091
0.56346
0.5711
0.57874
0.58129
0.59148
0.62714
0.69592
0.76979
0.86404
0.93536
0.98121
1.0271
1.0474
1.0525
1.0347
1.0067
0.96847
0.93026
0.89206
0.8513
0.80545
0.77233
0.74686
0.71629
0.69082
0.67554
0.64497
0.62969
0.6195
0.60676
0.59657
0.59657
0.57365
0.5711
0.56855
0.5711
0.56346
0.55327
0.56601
0.56346
0.56346
0.55836
0.56091
0.55582
0.56346
0.56346
0.5711
0.5711
0.57874
0.58638
0.62459
0.68827
0.75196
0.81564
0.87422
0.92517
0.96847
0.97866
0.98885
0.97612
0.95574
0.92008
0.89206
0.85894
0.83092
0.78507
0.7545
0.73413
0.7112
0.69082
0.6679
0.64752
0.63733
0.63224
0.61186
0.60422
0.59403
0.59148
0.59148
0.58384
0.5762
0.5762
0.5711
0.57874
0.57874
0.5762
0.56601
0.57874
0.57874
0.57365
0.58638
0.58893
0.59657
0.63478
0.68573
0.76469
0.82837
0.88441
0.93281
0.95574
0.97357
0.96593
0.95319
0.93536
0.90734
0.86658
0.83347
0.80545
0.78252
0.76215
0.73158
0.70356
0.69082
0.67554
0.66026
0.64242
0.62459
0.61186
0.60167
0.60167
0.58384
0.58893
0.58893
0.58638
0.58129
0.5762
0.57874
0.57874
0.58129
0.5762
0.58129
0.58129
0.5711
0.57365
0.58384
0.59657
0.61695
0.66026
0.72903
0.81054
0.88951
0.95828
1.0016
1.0347
1.0525
1.0474
1.0347
0.99395
0.96593
0.92517
0.88951
0.8513
0.81564
0.77233
0.74686
0.72139
0.70101
0.68318
0.65516
0.63733
0.62969
0.61186
0.60167
0.58129
0.58384
0.56091
0.56346
0.56601
0.55327
0.56091
0.54818
0.54818
0.54818
0.54818
0.54818
0.56091
0.55072
0.55836
0.56346
0.56855
0.58638
0.60676
0.65007
0.72394
0.79781
0.87422
0.93281
0.98121
1.0041
1.0041
1.0067
0.97866
0.943
0.91753
0.88951
0.84875
0.808
0.78507
0.75196
0.71629
0.69082
0.66535
0.64752
0.63224
0.62969
0.6144
0.60676
0.59148
0.58638
0.58129
0.5711
0.5762
0.56091
0.55836
0.56091
0.56601
0.55327
0.56601
0.56346
0.55582
0.56601
0.55836
0.5711
0.5711
0.5762
0.60422
0.63478
0.70865
0.77488
0.8513
0.92008
0.97612
1.0041
1.0296
1.0271
1.0118
0.98885
0.95574
0.91498
0.87677
0.8462
0.81054
0.76979
0.73922
0.70865
0.69082
0.6679
0.65261
0.63733
0.62205
0.60931
0.60422
0.58129
0.57365
0.5711
0.56091
0.55836
0.56601
0.55327
0.55072
0.55327
0.55582
0.55582
0.56346
0.56855
0.56601
0.5762
0.58638
0.59912
0.63733
0.69592
0.76469
0.82583
0.8946
0.943
0.97357
0.9863
0.97612
0.96083
0.94045
0.90989
0.88187
0.83856
0.81309
0.78252
0.74686
0.72139
0.69337
0.68827
0.67044
0.65261
0.63733
0.60931
0.60422
0.59148
0.58384
0.5762
0.57365
0.56601
0.55582
0.56855
0.56091
0.56855
0.56601
0.56346
0.5711
0.56601
0.57365
0.5762
0.57874
0.58893
0.59403
0.6144
0.68318
0.75196
0.84111
0.92517
0.98121
1.0474
1.0755
1.0729
1.0755
1.0474
1.0118
0.96847
0.92772
0.87932
0.8462
0.80545
0.77233
0.73922
0.70865
0.68573
0.66026
0.63733
0.61186
0.60167
0.59657
0.58129
0.5711
0.55836
0.55327
0.55582
0.55072
0.55072
0.55072
0.54563
0.55072
0.54818
0.55072
0.54818
0.55072
0.54818
0.55582
0.55836
0.55327
0.5711
0.60167
0.65261
0.72648
0.8029
0.87932
0.95064
0.99904
1.0347
1.0347
1.0322
1.0067
0.97866
0.93281
0.8997
0.86149
0.82583
0.78507
0.75705
0.72903
0.70356
0.67554
0.65516
0.62969
0.62205
0.60676
0.58638
0.57874
0.5762
0.5711
0.56601
0.55072
0.54563
0.54563
0.54308
0.54818
0.54818
0.55072
0.55072
0.54563
0.55327
0.55327
0.55072
0.56346
0.56855
0.5762
0.60167
0.64752
0.71884
0.78507
0.86913
0.93536
0.98885
1.0296
1.0398
1.0271
1.0169
0.97866
0.94555
0.8997
0.86149
0.83092
0.79271
0.7545
0.73413
0.71629
0.68063
0.66026
0.65261
0.62969
0.61695
0.60422
0.59403
0.5711
0.56855
0.56601
0.55327
0.56346
0.55836
0.55072
0.55072
0.55836
0.55836
0.56091
0.55072
0.56346
0.56091
0.56601
0.56601
0.58129
0.61695
0.67554
0.74686
0.81819
0.88187
0.92772
0.97102
0.98376
0.98121
0.95828
0.93791
0.90734
0.87932
0.84366
0.80545
0.79017
0.75196
0.72648
0.71629
0.68318
0.6679
0.64752
0.62969
0.6195
0.60676
0.59912
0.58638
0.57365
0.57874
0.56346
0.57365
0.56601
0.56346
0.55836
0.56601
0.56601
0.5711
0.57365
0.56346
0.56601
0.5711
0.58129
0.5762
0.58638
0.59657
0.63733
0.70611
0.79017
0.88441
0.97357
1.0372
1.078
1.1137
1.1162
1.0958
1.078
1.0372
0.97866
0.93536
0.89206
0.85385
0.81309
0.77488
0.74431
0.71375
0.69337
0.67299
0.65261
0.63224
0.61186
0.59148
0.5762
0.5711
0.56601
0.55072
0.55327
0.54563
0.53799
0.54818
0.54308
0.54053
0.53544
0.54563
0.54818
0.54563
0.55582
0.55582
0.56601
0.56346
0.5711
0.59403
0.62969
0.70865
0.76979
0.85639
0.91243
0.95319
0.9863
0.99904
0.99649
0.96847
0.93536
0.90479
0.87422
0.82583
0.80035
0.77743
0.73922
0.71375
0.70101
0.67809
0.65007
0.63988
0.62205
0.6195
0.60676
0.58893
0.5762
0.57365
0.56855
0.56855
0.55836
0.56601
0.55327
0.56091
0.56091
0.56601
0.56855
0.56091
0.56346
0.56601
0.57874
0.5711
0.5762
0.58893
0.60167
0.63733
0.70356
0.77998
0.8513
0.93026
0.99395
1.0271
1.0551
1.0449
1.0322
1.0118
0.97866
0.93536
0.89206
0.8513
0.82073
0.79017
0.75705
0.73158
0.70101
0.68573
0.6628
0.65261
0.62969
0.61186
0.61186
0.59657
0.58893
0.58129
0.5762
0.56855
0.56855
0.55582
0.56346
0.55836
0.56346
0.55327
0.56346
0.55836
0.55582
0.56346
0.56601
0.58384
0.59912
0.64242
0.71375
0.78507
0.83856
0.90479
0.93281
0.95828
0.96338
0.9481
0.93791
0.90734
0.87932
0.85639
0.81309
0.79017
0.76215
0.73667
0.7112
0.69337
0.6679
0.64497
0.62969
0.6195
0.60676
0.59148
0.59403
0.58638
0.5762
0.57874
0.58384
0.5762
0.57365
0.5762
0.5762
0.5762
0.5711
0.5711
0.57365
0.56855
0.5762
0.57874
0.58638
0.58638
0.60167
0.62205
0.68063
0.76724
0.85639
0.9481
1.0347
1.0882
1.1213
1.1417
1.1391
1.0984
1.0627
1.0169
0.95828
0.91753
0.87677
0.82837
0.78252
0.75196
0.71629
0.68827
0.66535
0.65261
0.62205
0.6144
0.59403
0.57365
0.5711
0.56855
0.54563
0.54563
0.54053
0.53799
0.53289
0.53034
0.53034
0.52525
0.53034
0.53799
0.54053
0.53799
0.54053
0.54308
0.54818
0.55327
0.57365
0.58893
0.63988
0.7112
0.79017
0.87422
0.92517
0.97612
0.99904
1.0016
0.99904
0.96593
0.93281
0.90989
0.86658
0.83347
0.79271
0.77233
0.73922
0.71884
0.68827
0.67554
0.65516
0.63988
0.62205
0.6144
0.59912
0.58893
0.58129
0.56855
0.56091
0.56601
0.55582
0.55582
0.54053
0.55072
0.54053
0.54563
0.55072
0.54308
0.55072
0.56601
0.56601
0.5711
0.5762
0.58638
0.60167
0.63733
0.70356
0.77488
0.85639
0.92517
1.0041
1.0372
1.0704
1.0755
1.0627
1.0271
0.99395
0.95828
0.91498
0.87932
0.8462
0.81054
0.76979
0.74431
0.7112
0.68063
0.6628
0.64497
0.63224
0.60676
0.60167
0.59148
0.56855
0.55836
0.56346
0.55327
0.55072
0.54563
0.53799
0.54053
0.55327
0.54818
0.55327
0.55072
0.54563
0.55582
0.56091
0.56091
0.5762
0.59912
0.63988
0.7112
0.77233
0.8462
0.89715
0.95574
0.96593
0.97357
0.96338
0.94555
0.92517
0.89715
0.86658
0.83092
0.80545
0.76215
0.74431
0.71629
0.69082
0.68318
0.65771
0.64752
0.63224
0.61695
0.61186
0.60167
0.58384
0.5762
0.58638
0.5762
0.58129
0.57365
0.57365
0.57874
0.58129
0.58384
0.5711
0.58638
0.58638
0.58893
0.58129
0.58638
0.59657
0.59403
0.61186
0.63733
0.70356
0.79781
0.87932
0.96083
1.0271
1.0653
1.0933
1.0907
1.078
1.0423
1.0092
0.96593
0.92772
0.87677
0.83602
0.80545
0.76469
0.72903
0.7112
0.68063
0.65771
0.63478
0.62205
0.61186
0.59148
0.58384
0.57365
0.56346
0.56855
0.55072
0.56091
0.55072
0.54053
0.54053
0.54308
0.54053
0.54053
0.53544
0.54053
0.54818
0.55582
0.55582
0.56091
0.5711
0.57365
0.60931
0.6679
0.73667
0.80545
0.87677
0.93281
0.97357
0.98885
0.9863
0.98885
0.95574
0.93281
0.8946
0.86658
0.83347
0.8029
0.77233
0.74431
0.72648
0.69846
0.67299
0.66026
0.64752
0.62205
0.6144
0.59912
0.58638
0.58384
0.58638
0.5762
0.5711
0.56346
0.56091
0.55836
0.5711
0.55836
0.56091
0.56091
0.5711
0.5762
0.57365
0.57365
0.58129
0.58638
0.59403
0.6144
0.63988
0.70356
0.77488
0.84875
0.92772
0.98121
1.0271
1.0398
1.0398
1.0245
0.99649
0.96847
0.92517
0.89715
0.86149
0.82328
0.79017
0.75705
0.73667
0.70865
0.68827
0.6679
0.64752
0.63224
0.61695
0.60422
0.59403
0.58893
0.57874
0.58129
0.5711
0.56346
0.5711
0.56346
0.56601
0.56601
0.56091
0.56091
0.56346
0.56601
0.56091
0.56855
0.58129
0.59657
0.62969
0.68318
0.74177
0.81309
0.87422
0.92262
0.95574
0.96593
0.96593
0.95574
0.93281
0.89715
0.86404
0.8462
0.81309
0.78252
0.7545
0.73158
0.71375
0.69082
0.67299
0.65007
0.63478
0.61695
0.60422
0.60931
0.58893
0.58638
0.58129
0.58129
0.56601
0.5711
0.57874
0.5711
0.56601
0.57365
0.57365
0.58129
0.5762
0.57874
0.58384
0.58129
0.57874
0.58638
0.59912
0.61186
0.64242
0.70865
0.8029
0.88696
0.96593
1.0449
1.0882
1.1188
1.1239
1.1162
1.0882
1.0551
1.0041
0.95828
0.90479
0.87168
0.82583
0.78252
0.7545
0.71629
0.69082
0.66535
0.64242
0.6195
0.60167
0.59148
0.58384
0.5711
0.56601
0.56091
0.55836
0.55072
0.54053
0.54053
0.53799
0.54053
0.53799
0.53799
0.53799
0.54053
0.53544
0.54053
0.54053
0.53799
0.55582
0.56855
0.58893
0.6195
0.67299
0.74686
0.81564
0.87677
0.91753
0.95828
0.97102
0.95828
0.94555
0.92772
0.90734
0.86404
0.84111
0.81054
0.78762
0.76215
0.73413
0.7112
0.69592
0.67299
0.64497
0.63224
0.62205
0.61186
0.60422
0.60422
0.59403
0.58384
0.5762
0.57365
0.58129
0.58129
0.5711
0.56601
0.5762
0.56601
0.5711
0.58129
0.58129
0.58638
0.59148
0.59148
0.61186
0.63733
0.69337
0.76469
0.8462
0.90734
0.95319
1.0041
1.0143
1.0143
0.99904
0.96593
0.94045
0.91243
0.86913
0.84366
0.80035
0.76469
0.74941
0.72139
0.69337
0.6679
0.65007
0.63988
0.62969
0.61695
0.59657
0.59403
0.58638
0.58129
0.5711
0.57874
0.5762
0.56855
0.56855
0.5762
0.56601
0.56346
0.5711
0.5762
0.5711
0.56855
0.57365
0.58129
0.58638
0.6144
0.64497
0.71629
0.79526
0.86658
0.95064
1.0041
1.0271
1.0474
1.0423
1.0245
1.0016
0.95828
0.92008
0.88441
0.83602
0.81309
0.76979
0.75196
0.72139
0.69337
0.67554
0.64752
0.62969
0.62205
0.59912
0.58893
0.58129
0.57874
0.57365
0.56346
0.56346
0.5711
0.56091
0.55582
0.55327
0.56601
0.55327
0.56346
0.55072
0.55836
0.56346
0.56601
0.56855
0.57365
0.58129
0.61186
0.63988
0.72139
0.79271
0.88951
0.95319
1.0194
1.05
1.0627
1.0525
1.0372
1.0067
0.96847
0.93281
0.88696
0.83856
0.80545
0.77488
0.73667
0.71375
0.68318
0.67299
0.64497
0.62714
0.6195
0.59403
0.58893
0.5762
0.56855
0.55072
0.54563
0.54308
0.54818
0.55072
0.54563
0.54563
0.53799
0.54563
0.55327
0.54818
0.55327
0.54818
0.55836
0.56091
0.56855
0.5711
0.59403
0.64242
0.69592
0.77743
0.84366
0.90734
0.96593
1.0041
1.0194
1.0067
0.9863
0.96338
0.93281
0.89715
0.8513
0.83092
0.79271
0.7596
0.73922
0.70101
0.69337
0.67299
0.65007
0.63224
0.62459
0.6144
0.61186
0.59403
0.58384
0.58893
0.5711
0.57365
0.56601
0.56346
0.56346
0.55836
0.56091
0.56346
0.55836
0.56346
0.56346
0.57874
0.57874
0.58893
0.60167
0.64752
0.71375
0.77998
0.85385
0.91753
0.97102
0.99649
1.0067
1.0092
0.97612
0.95319
0.91753
0.88951
0.84111
0.808
0.77743
0.7545
0.72648
0.70356
0.69592
0.67299
0.6628
0.64242
0.62969
0.6195
0.59912
0.59912
0.59148
0.5762
0.58129
0.56601
0.5711
0.55836
0.56091
0.56091
0.55327
0.56601
0.55836
0.56601
0.5762
0.57365
0.58638
0.58638
0.59403
0.61695
0.6679
0.74177
0.82583
0.90734
0.98121
1.0296
1.0755
1.0831
1.078
1.0525
1.0194
0.98121
0.93791
0.89206
0.8513
0.81819
0.77998
0.7545
0.71629
0.69592
0.67044
0.64497
0.63224
0.60676
0.60676
0.58384
0.58129
0.5762
0.56855
0.55582
0.56091
0.55072
0.54563
0.54818
0.53289
0.53034
0.53289
0.5278
0.53799
0.54053
0.54053
0.54563
0.55327
0.56091
0.58384
0.6195
0.67554
0.75196
0.82583
0.90734
0.96847
1.0118
1.0347
1.0423
1.0194
0.98885
0.95319
0.91498
0.88696
0.8513
0.808
0.76979
0.73922
0.71884
0.68827
0.67299
0.65007
0.63224
0.62205
0.60676
0.58893
0.58129
0.56601
0.56346
0.56601
0.56091
0.55836
0.55327
0.56091
0.55072
0.56346
0.55836
0.56601
0.55327
0.56601
0.56855
0.56855
0.5711
0.57874
0.59403
0.63478
0.70356
0.77233
0.86658
0.93281
0.99395
1.0296
1.0398
1.0423
1.0169
0.99904
0.95828
0.91753
0.87932
0.84366
0.80545
0.77233
0.74177
0.71375
0.69337
0.6679
0.64497
0.62205
0.60676
0.60167
0.59148
0.58129
0.57874
0.56346
0.55836
0.55836
0.54308
0.54818
0.54563
0.54053
0.54308
0.54563
0.54308
0.54818
0.56091
0.56601
0.5711
0.59657
0.63478
0.70611
0.77743
0.85385
0.92517
0.97357
0.99904
1.0092
1.0016
0.98376
0.95828
0.92008
0.88696
0.85385
0.808
0.78507
0.74941
0.72139
0.70356
0.67299
0.6628
0.64242
0.6195
0.60422
0.59403
0.59403
0.58129
0.56601
0.56091
0.56091
0.55327
0.55582
0.55327
0.56091
0.55582
0.55836
0.54818
0.56346
0.55072
0.56346
0.56346
0.57874
0.58893
0.60167
0.65516
0.73667
0.83856
0.91753
1.0118
1.0627
1.1137
1.1391
1.134
1.106
1.0653
1.022
0.96593
0.92008
0.87422
0.83347
0.78252
0.74431
0.70356
0.67299
0.65261
0.63988
0.61186
0.59403
0.58129
0.56855
0.56091
0.55072
0.54308
0.54308
0.52525
0.53034
0.53034
0.5227
0.5278
0.53034
0.53289
0.53034
0.52525
0.53034
0.53544
0.54053
0.54818
0.55836
0.58893
0.64752
0.72139
0.808
0.88696
0.95064
0.99904
1.0398
1.0347
1.0347
0.99904
0.95828
0.92008
0.87677
0.84875
0.808
0.76469
0.74431
0.70865
0.67554
0.65516
0.63733
0.62459
0.60931
0.59403
0.59148
0.5762
0.57365
0.56601
0.55582
0.54563
0.54563
0.55072
0.54053
0.54818
0.54308
0.55327
0.54308
0.55836
0.54818
0.55327
0.56855
0.5762
0.62205
0.67299
0.76469
0.83602
0.91498
0.97866
1.022
1.0449
1.05
1.022
0.99904
0.96338
0.92008
0.87932
0.84366
0.79781
0.76979
0.72903
0.69846
0.67554
0.65516
0.63478
0.6195
0.59403
0.58638
0.56855
0.5711
0.55836
0.55072
0.54818
0.53799
0.54563
0.53544
0.54563
0.54053
0.53544
0.54818
0.54563
0.55072
0.54308
0.55327
0.56601
0.58638
0.64752
0.73413
0.81819
0.90224
0.97102
1.0347
1.0729
1.0882
1.0755
1.0423
1.0041
0.96847
0.92517
0.88441
0.83092
0.80035
0.75196
0.71884
0.69592
0.67044
0.65261
0.63478
0.6144
0.59148
0.5762
0.56601
0.5711
0.55327
0.55327
0.53544
0.54053
0.54308
0.5278
0.53034
0.53034
0.53034
0.53799
0.54053
0.54563
0.54308
0.54308
0.55072
0.56346
0.57365
0.62969
0.70865
0.80545
0.90479
0.98376
1.0576
1.1009
1.1239
1.1239
1.0958
1.0653
1.0245
0.97866
0.92772
0.87677
0.82583
0.79017
0.74177
0.71629
0.69082
0.65771
0.63224
0.61695
0.59148
0.5762
0.56091
0.55836
0.54818
0.53799
0.5278
0.51761
0.52016
0.51761
0.51761
0.51761
0.52016
0.51251
0.51761
0.53289
0.5278
0.53799
0.53034
0.54053
0.55327
0.57874
0.63733
0.72648
0.8029
0.89206
0.96338
1.0092
1.0449
1.0525
1.0449
1.0143
0.97357
0.93791
0.90224
0.85639
0.81819
0.78507
0.74431
0.7112
0.68573
0.6628
0.64497
0.62714
0.60931
0.59912
0.5762
0.57874
0.55582
0.55836
0.55072
0.54053
0.54818
0.54818
0.53544
0.54053
0.54308
0.54818
0.55072
0.55072
0.55327
0.56346
0.5711
0.5711
0.60167
0.63988
0.73158
0.81054
0.89206
0.96593
1.0194
1.05
1.0602
1.0551
1.022
0.9863
0.9481
0.89715
0.85894
0.82073
0.77233
0.74431
0.70865
0.68063
0.65516
0.64242
0.62205
0.59912
0.59403
0.5762
0.57365
0.55836
0.55327
0.54818
0.55072
0.54053
0.53799
0.54053
0.53034
0.53799
0.53799
0.53034
0.53799
0.55072
0.54818
0.55582
0.56855
0.59912
0.6679
0.75196
0.83602
0.92772
1.0041
1.0474
1.0678
1.0704
1.0602
1.0372
0.99904
0.94045
0.90224
0.86404
0.81054
0.78252
0.74431
0.70356
0.68318
0.65261
0.62969
0.6195
0.60167
0.59148
0.57365
0.57365
0.55327
0.54818
0.55072
0.54818
0.53799
0.54308
0.54053
0.54053
0.54818
0.54053
0.54053
0.54053
0.55072
0.54563
0.54818
0.56855
0.5711
0.58893
0.63224
0.70101
0.79271
0.89206
0.97866
1.0551
1.0984
1.1366
1.1315
1.1035
1.0729
1.0347
0.97357
0.92262
0.88441
0.83856
0.79781
0.74941
0.71629
0.68573
0.65261
0.63478
0.61695
0.59657
0.58129
0.5711
0.55836
0.54308
0.53544
0.53544
0.53034
0.5278
0.52525
0.5278
0.52016
0.5278
0.52016
0.52016
0.53034
0.52525
0.53034
0.53289
0.53799
0.54818
0.5711
0.59657
0.66026
0.74177
0.83602
0.90734
0.98121
1.0347
1.0602
1.0602
1.05
1.022
0.97612
0.93536
0.88951
0.86149
0.81819
0.77488
0.73667
0.70865
0.67299
0.65516
0.63224
0.60676
0.60167
0.58129
0.5711
0.55582
0.55582
0.54053
0.54563
0.54053
0.54053
0.53544
0.54053
0.53034
0.54308
0.54053
0.54053
0.54308
0.53799
0.54563
0.55327
0.56091
0.56601
0.58638
0.61186
0.66535
0.74177
0.84366
0.91498
1.0016
1.05
1.078
1.0933
1.0907
1.0602
1.022
0.98885
0.94045
0.89715
0.8513
0.808
0.77233
0.74431
0.7112
0.68827
0.65516
0.63988
0.62714
0.60422
0.59148
0.58129
0.56601
0.55836
0.54818
0.54053
0.54563
0.53799
0.54308
0.54563
0.54053
0.54308
0.54563
0.55327
0.54308
0.55072
0.55836
0.56601
0.5762
0.60676
0.65007
0.71629
0.80035
0.87932
0.943
0.98121
1.0041
1.0169
1.0092
0.97866
0.95319
0.91753
0.88441
0.8462
0.80545
0.77233
0.73667
0.71629
0.69337
0.6679
0.64242
0.62969
0.6195
0.60676
0.58893
0.58129
0.57874
0.56091
0.56091
0.56091
0.55836
0.55836
0.55582
0.56091
0.55836
0.54563
0.55327
0.54308
0.55072
0.55836
0.56091
0.5711
0.5711
0.5762
0.61186
0.6679
0.75705
0.85385
0.95064
1.0245
1.0831
1.1188
1.134
1.129
1.0933
1.0525
1.0143
0.95828
0.90734
0.85639
0.81819
0.78507
0.73413
0.71375
0.67554
0.65261
0.63478
0.60422
0.59657
0.57874
0.56855
0.56091
0.55072
0.54818
0.54818
0.53799
0.53544
0.54053
0.54308
0.54563
0.53034
0.54308
0.53799
0.54563
0.54818
0.54818
0.55327
0.54563
0.56601
0.57365
0.62205
0.68573
0.77233
0.86149
0.93281
0.9863
1.0322
1.0398
1.0372
1.022
0.98885
0.95828
0.8997
0.87677
0.82837
0.80035
0.7596
0.73413
0.70611
0.67809
0.65516
0.64497
0.62714
0.60931
0.59657
0.57874
0.5711
0.55836
0.55327
0.55836
0.55836
0.55836
0.54563
0.54818
0.54563
0.55072
0.55327
0.55327
0.54818
0.55836
0.55582
0.55582
0.56091
0.5711
0.58638
0.62969
0.69846
0.78507
0.86658
0.95574
1.0092
1.0602
1.0831
1.0806
1.0653
1.0322
0.99649
0.95064
0.90734
0.85639
0.82073
0.77488
0.74686
0.71629
0.69337
0.6628
0.65007
0.62714
0.6195
0.60676
0.59148
0.58129
0.5711
0.56601
0.56346
0.55072
0.55582
0.54818
0.54053
0.53799
0.54053
0.54818
0.54308
0.53544
0.54053
0.54818
0.55582
0.56601
0.5762
0.63478
0.69337
0.78507
0.85385
0.92517
0.96847
1.0041
1.0143
1.0118
0.97866
0.95064
0.91498
0.86913
0.8462
0.8029
0.77743
0.73667
0.7112
0.68063
0.66535
0.64752
0.63478
0.61186
0.60422
0.59657
0.58638
0.5762
0.58129
0.5762
0.5762
0.57365
0.55836
0.5711
0.56855
0.56601
0.56601
0.56601
0.56091
0.56601
0.55836
0.56855
0.58129
0.59148
0.63988
0.7112
0.80545
0.88696
0.96593
1.0372
1.0856
1.0907
1.0907
1.0704
1.0423
1.0067
0.95064
0.90734
0.86658
0.82328
0.78507
0.75196
0.72139
0.68318
0.66535
0.63733
0.62459
0.60931
0.59148
0.5762
0.56601
0.54308
0.53799
0.54053
0.53034
0.52525
0.52525
0.52525
0.53034
0.53799
0.53289
0.53544
0.54563
0.54053
0.54308
0.54818
0.54818
0.57365
0.59403
0.65261
0.73667
0.82837
0.90734
0.98885
1.0398
1.0678
1.0806
1.0831
1.0525
1.0169
0.97357
0.93026
0.87677
0.83602
0.79526
0.76469
0.72139
0.70356
0.6679
0.64752
0.62205
0.6144
0.59403
0.5762
0.56346
0.55836
0.55582
0.54818
0.54053
0.53034
0.53289
0.53289
0.5278
0.52525
0.52525
0.53289
0.53289
0.55072
0.54563
0.54818
0.55327
0.55582
0.58638
0.6195
0.69592
0.77743
0.86913
0.9481
1.0067
1.0474
1.0653
1.0653
1.05
1.0143
0.97357
0.93026
0.88187
0.83856
0.80545
0.77233
0.73413
0.70865
0.69082
0.6628
0.63733
0.6195
0.60931
0.58893
0.57874
0.56855
0.56091
0.55836
0.54563
0.53544
0.54563
0.53544
0.5278
0.53289
0.54053
0.54308
0.53544
0.53799
0.54818
0.54818
0.56601
0.59657
0.64497
0.71629
0.79271
0.87677
0.9481
0.99395
1.0169
1.0296
1.0118
0.98376
0.96083
0.91753
0.88441
0.84366
0.8029
0.77233
0.73922
0.7112
0.68827
0.66026
0.64752
0.6144
0.59912
0.59148
0.58129
0.56601
0.56091
0.55327
0.55072
0.54053
0.54308
0.54053
0.53289
0.53799
0.54563
0.54308
0.54818
0.54818
0.56091
0.56091
0.5762
0.58638
0.64752
0.72903
0.82328
0.91243
0.99395
1.0627
1.0907
1.1188
1.1086
1.0806
1.0449
1.0041
0.95319
0.90989
0.86658
0.808
0.77488
0.74431
0.70865
0.67809
0.64242
0.62205
0.60676
0.58638
0.56601
0.56346
0.55327
0.54818
0.54053
0.53799
0.53544
0.53289
0.52525
0.52525
0.5278
0.53034
0.5278
0.5278
0.53544
0.54563
0.53799
0.54818
0.55327
0.58384
0.64752
0.72139
0.82583
0.91243
1.0067
1.0653
1.1009
1.1213
1.1162
1.078
1.0372
0.99904
0.95319
0.89715
0.84875
0.80545
0.75705
0.72394
0.67809
0.64752
0.62205
0.60931
0.58129
0.5711
0.55836
0.54818
0.53034
0.5278
0.5278
0.5278
0.52525
0.51251
0.52016
0.5278
0.52016
0.5227
0.53034
0.52016
0.5227
0.53289
0.54308
0.54563
0.56091
0.59657
0.65516
0.73922
0.82583
0.91243
0.98885
1.0398
1.0627
1.0653
1.05
1.0347
0.99904
0.95064
0.90479
0.86404
0.82073
0.77998
0.74941
0.71375
0.68573
0.65516
0.62714
0.60931
0.59912
0.58638
0.57365
0.56091
0.54818
0.54563
0.53799
0.53034
0.53289
0.53034
0.53034
0.53034
0.53289
0.53799
0.53544
0.54053
0.54053
0.54053
0.56091
0.59403
0.6679
0.74431
0.82328
0.90734
0.97102
1.0118
1.0347
1.0296
1.022
0.9914
0.95064
0.90734
0.87422
0.83602
0.79271
0.7596
0.72648
0.70101
0.67554
0.65007
0.62714
0.61186
0.59148
0.57874
0.57874
0.56601
0.55836
0.55072
0.54308
0.54818
0.54053
0.54563
0.54308
0.54053
0.54563
0.54563
0.54818
0.55836
0.55582
0.5711
0.58893
0.63988
0.71884
0.81819
0.8997
0.98376
1.0551
1.0933
1.1188
1.1162
1.0907
1.05
1.0041
0.9481
0.90224
0.85385
0.80545
0.75705
0.73413
0.69337
0.65771
0.63733
0.6195
0.59148
0.57365
0.5711
0.55582
0.54308
0.53799
0.5278
0.53034
0.52016
0.51251
0.52016
0.52016
0.52016
0.5227
0.52525
0.52525
0.52016
0.53544
0.54053
0.53799
0.55836
0.59912
0.67044
0.76724
0.85894
0.95574
1.0372
1.0882
1.1162
1.1213
1.1035
1.0653
1.0271
0.96847
0.93026
0.87168
0.83092
0.79017
0.75196
0.71375
0.68827
0.65261
0.6195
0.60422
0.58129
0.56601
0.55836
0.54818
0.54818
0.53289
0.5227
0.52016
0.52016
0.52525
0.52016
0.51761
0.51506
0.51506
0.5278
0.5278
0.52525
0.5278
0.54308
0.54818
0.58384
0.64497
0.72139
0.82583
0.90734
0.98121
1.0372
1.0551
1.0704
1.0449
1.0169
0.98121
0.93536
0.89715
0.8462
0.81054
0.77233
0.73922
0.70101
0.67044
0.64752
0.62459
0.60167
0.59148
0.57365
0.56346
0.55327
0.54308
0.54308
0.54053
0.53289
0.53544
0.5278
0.5278
0.53544
0.5278
0.53544
0.53289
0.54053
0.54818
0.54563
0.57365
0.6195
0.67554
0.77233
0.85639
0.92008
0.98885
1.0271
1.0372
1.0296
1.0169
0.9914
0.95574
0.90989
0.86658
0.82837
0.80035
0.75705
0.72648
0.70101
0.68063
0.64497
0.63988
0.6144
0.59403
0.59403
0.58129
0.56091
0.55327
0.55836
0.54563
0.54308
0.54563
0.54053
0.54053
0.54308
0.55072
0.54053
0.54818
0.54818
0.55836
0.5762
0.60676
0.68318
0.77488
0.86404
0.95574
1.0347
1.078
1.1086
1.0984
1.0806
1.05
1.0016
0.96593
0.90734
0.86404
0.81819
0.77743
0.73922
0.7112
0.67299
0.65261
0.62459
0.59657
0.59403
0.5762
0.56855
0.56346
0.55582
0.54818
0.55836
0.56601
0.58384
0.59657
0.58893
0.56601
0.55072
0.54308
0.53289
0.52525
0.51251
0.51251
0.51761
0.51761
0.55582
0.61186
0.71629
0.81564
0.92772
1.0016
1.0704
1.1111
1.1315
1.1137
1.0755
1.0372
0.9914
0.93791
0.89715
0.8513
0.80545
0.75705
0.71375
0.67809
0.64752
0.62459
0.59403
0.5762
0.56601
0.54818
0.53289
0.53034
0.5227
0.50997
0.50997
0.50742
0.49723
0.50232
0.50487
0.50487
0.50997
0.51251
0.50997
0.52016
0.53289
0.5278
0.54563
0.56346
0.60167
0.67554
0.7596
0.85639
0.94555
1.0092
1.0525
1.0755
1.0678
1.0398
1.0143
0.97357
0.92517
0.88951
0.84366
0.80035
0.7545
0.72648
0.69592
0.66535
0.63733
0.63224
0.61186
0.60422
0.58638
0.58129
0.56855
0.56346
0.55327
0.54053
0.53034
0.52525
0.52525
0.5227
0.52525
0.5278
0.52525
0.5278
0.53034
0.5278
0.55072
0.56091
0.59403
0.66535
0.75196
0.84111
0.92772
0.99395
1.0372
1.05
1.0576
1.0372
1.0016
0.97102
0.92517
0.88441
0.8462
0.79526
0.76979
0.73158
0.69592
0.67044
0.64752
0.63733
0.6195
0.59657
0.58893
0.5711
0.55327
0.55327
0.54563
0.54308
0.54308
0.54563
0.54563
0.53544
0.53544
0.54053
0.54308
0.54818
0.54563
0.55327
0.55582
0.57365
0.62205
0.68827
0.79017
0.87677
0.96083
1.0271
1.0678
1.0907
1.0831
1.0678
1.0271
0.9863
0.94045
0.90734
0.8513
0.8029
0.76979
0.72648
0.70356
0.67044
0.64752
0.62205
0.60167
0.59912
0.58129
0.57365
0.56346
0.54818
0.54818
0.53034
0.53289
0.53544
0.5278
0.5278
0.5278
0.52525
0.53034
0.53034
0.5278
0.53289
0.53799
0.54053
0.54818
0.5711
0.60931
0.68318
0.78507
0.88187
0.97866
1.05
1.1009
1.129
1.1417
1.1213
1.0755
1.0296
0.99395
0.943
0.88187
0.8462
0.79526
0.7596
0.71629
0.67809
0.65516
0.62969
0.60676
0.58893
0.5711
0.55327
0.54563
0.54053
0.53544
0.5278
0.52525
0.52525
0.51506
0.50997
0.51506
0.51506
0.51506
0.52525
0.51251
0.52525
0.53289
0.53289
0.54053
0.55327
0.58129
0.63224
0.72648
0.8029
0.8946
0.96338
1.0143
1.0372
1.0474
1.0372
1.0067
0.96847
0.93536
0.89206
0.84875
0.82073
0.77998
0.74177
0.7112
0.68063
0.66026
0.63224
0.6195
0.60167
0.58129
0.57365
0.56601
0.55836
0.55072
0.54818
0.54308
0.53799
0.53799
0.54308
0.53799
0.53799
0.54563
0.54053
0.54053
0.55072
0.56091
0.56346
0.5762
0.6144
0.67809
0.75705
0.83347
0.91498
0.97866
1.0169
1.0296
1.0372
1.0194
0.99904
0.95574
0.92517
0.87932
0.84366
0.79781
0.76979
0.72648
0.70356
0.68318
0.66026
0.63988
0.62714
0.60676
0.58893
0.58129
0.5711
0.57365
0.55582
0.56346
0.56091
0.54563
0.55072
0.54818
0.54818
0.54053
0.54818
0.55327
0.54818
0.54818
0.55327
0.5762
0.6195
0.68063
0.77488
0.86149
0.94045
1.0041
1.0525
1.0907
1.0958
1.0755
1.0372
0.99904
0.95828
0.8997
0.86404
0.82583
0.77743
0.74686
0.71375
0.69337
0.65516
0.64242
0.62714
0.61186
0.58638
0.5711
0.56601
0.55072
0.55072
0.53799
0.53799
0.53034
0.5278
0.53544
0.53799
0.53289
0.53289
0.53544
0.53544
0.54563
0.55072
0.55836
0.55836
0.5711
0.60931
0.68318
0.77488
0.87422
0.95574
1.0347
1.0907
1.1111
1.1162
1.106
1.0806
1.0347
0.98376
0.93026
0.88696
0.84875
0.79781
0.75705
0.71629
0.69337
0.65516
0.63224
0.62205
0.59912
0.57874
0.5711
0.55582
0.55836
0.55072
0.53799
0.53034
0.5278
0.51761
0.52016
0.51251
0.51251
0.51761
0.52016
0.52016
0.5227
0.5278
0.53544
0.55072
0.56855
0.59912
0.6679
0.74686
0.83347
0.91498
0.97612
1.0245
1.0474
1.0449
1.0296
1.0092
0.96593
0.92772
0.87932
0.84366
0.8029
0.76469
0.73413
0.70356
0.67554
0.64752
0.63224
0.6144
0.59912
0.58638
0.5711
0.56601
0.56091
0.54308
0.54818
0.54563
0.53289
0.54053
0.53799
0.54053
0.54563
0.53544
0.53544
0.54053
0.54563
0.54818
0.55072
0.5711
0.60167
0.6628
0.7545
0.8462
0.93026
0.99649
1.0576
1.0831
1.0882
1.0806
1.0449
1.0067
0.96593
0.91498
0.86913
0.83092
0.79526
0.76469
0.73158
0.70356
0.67554
0.65007
0.62205
0.60931
0.59912
0.5711
0.5711
0.55836
0.54563
0.53289
0.53544
0.53799
0.53799
0.53544
0.52525
0.52525
0.53034
0.54053
0.53799
0.54308
0.55327
0.56601
0.62714
0.69082
0.77743
0.85385
0.93791
0.9914
1.0296
1.0423
1.0347
1.0169
0.97357
0.943
0.89715
0.85385
0.81564
0.76979
0.74177
0.7112
0.69082
0.66535
0.63988
0.6144
0.60422
0.59148
0.58384
0.5711
0.56855
0.55327
0.55327
0.54308
0.54308
0.54308
0.53799
0.55072
0.54308
0.53799
0.53544
0.53799
0.54818
0.54818
0.55327
0.56601
0.57874
0.62205
0.70356
0.80545
0.92517
1.0092
1.0958
1.1519
1.1901
1.1926
1.1646
1.1239
1.0755
1.022
0.96593
0.90989
0.86149
0.8029
0.7545
0.7112
0.68063
0.65007
0.63224
0.60676
0.58129
0.5711
0.55836
0.54308
0.53289
0.52525
0.51761
0.51761
0.51506
0.50487
0.49978
0.50742
0.49978
0.50487
0.50487
0.50232
0.50997
0.50997
0.52016
0.53034
0.54563
0.59912
0.67809
0.77233
0.8513
0.92772
0.99395
1.0372
1.0398
1.0398
1.0194
0.99395
0.9481
0.8997
0.86658
0.82073
0.77488
0.74431
0.71629
0.67554
0.65261
0.62714
0.61186
0.59912
0.58638
0.5711
0.55327
0.54053
0.54818
0.5278
0.53289
0.53034
0.52525
0.52016
0.5278
0.5278
0.53034
0.53289
0.54308
0.54308
0.55327
0.56091
0.56091
0.59403
0.6628
0.75196
0.85894
0.95574
1.0322
1.0806
1.1111
1.106
1.0907
1.0653
1.0169
0.97102
0.91498
0.87677
0.83092
0.78762
0.75196
0.71629
0.68573
0.65007
0.63988
0.61186
0.59148
0.5762
0.56346
0.54563
0.55072
0.54053
0.52525
0.5278
0.53289
0.52525
0.5278
0.5227
0.51761
0.52016
0.52525
0.5278
0.53799
0.54053
0.56091
0.61186
0.69592
0.78762
0.87422
0.93791
0.99904
1.0347
1.0474
1.0474
1.022
0.98121
0.94045
0.8946
0.85894
0.81819
0.78252
0.74431
0.71884
0.68063
0.65771
0.63478
0.61186
0.58893
0.58129
0.56346
0.55072
0.54818
0.53034
0.52525
0.5278
0.5278
0.5278
0.53289
0.53034
0.53799
0.53799
0.53544
0.54563
0.53799
0.54818
0.54818
0.55072
0.57874
0.62969
0.72139
0.83856
0.9481
1.0372
1.1213
1.1824
1.2003
1.2003
1.1799
1.1442
1.0856
1.0398
0.96338
0.90734
0.85385
0.8029
0.74941
0.70865
0.67044
0.63733
0.6195
0.58893
0.56601
0.55072
0.54053
0.5278
0.52525
0.51251
0.50997
0.49978
0.50232
0.49978
0.49214
0.49214
0.49978
0.49978
0.50997
0.50232
0.50742
0.51506
0.52016
0.52525
0.55582
0.58893
0.67044
0.76724
0.85639
0.92517
0.9863
1.0347
1.05
1.0576
1.0347
0.99395
0.94555
0.8997
0.85639
0.82583
0.78762
0.74431
0.70865
0.67809
0.66026
0.62205
0.61186
0.59403
0.57874
0.56091
0.55072
0.54818
0.54053
0.53544
0.54053
0.53034
0.5227
0.5227
0.5278
0.53034
0.5278
0.53034
0.52525
0.53034
0.53799
0.54308
0.55327
0.55836
0.58129
0.63988
0.72139
0.82583
0.92262
1.0118
1.0831
1.1213
1.134
1.134
1.1086
1.0704
1.0271
0.97102
0.92008
0.86658
0.82328
0.77743
0.73413
0.70356
0.67299
0.65261
0.61695
0.59912
0.59148
0.5762
0.56346
0.55072
0.54308
0.53289
0.5278
0.52525
0.51506
0.51761
0.51761
0.51251
0.51506
0.51761
0.51506
0.52525
0.52016
0.53544
0.54818
0.56601
0.63224
0.71629
0.80545
0.88441
0.96338
1.0194
1.0423
1.05
1.0423
1.0092
0.97357
0.92772
0.89715
0.8513
0.808
0.76469
0.73158
0.70356
0.68063
0.66026
0.63478
0.62205
0.60676
0.59148
0.56855
0.56346
0.55582
0.54308
0.55072
0.53289
0.53799
0.53799
0.53799
0.53799
0.53799
0.53799
0.54053
0.54818
0.54818
0.55582
0.54818
0.56091
0.58893
0.65771
0.74941
0.86149
0.95574
1.0449
1.1137
1.1493
1.157
1.1519
1.1213
1.0755
1.0271
0.96593
0.91753
0.86658
0.82073
0.76724
0.73413
0.70101
0.67299
0.65007
0.62714
0.60422
0.58384
0.5711
0.55582
0.54053
0.53544
0.5278
0.51251
0.50997
0.51761
0.51506
0.50742
0.50487
0.50742
0.50997
0.51251
0.5227
0.5278
0.5278
0.53034
0.53034
0.55582
0.60167
0.67809
0.77233
0.86658
0.95828
1.0143
1.0602
1.0831
1.0882
1.0576
1.0296
0.98885
0.93791
0.88951
0.8462
0.81054
0.77743
0.73667
0.70356
0.67809
0.65261
0.6195
0.60931
0.58384
0.57365
0.56346
0.55327
0.53799
0.54563
0.53034
0.53544
0.53289
0.53544
0.5278
0.53289
0.53544
0.53034
0.53034
0.54053
0.54053
0.54053
0.54308
0.55072
0.56601
0.60167
0.67809
0.76979
0.85894
0.9481
1.0194
1.0729
1.0958
1.106
1.0933
1.0551
1.022
0.97866
0.92262
0.88441
0.83602
0.79271
0.76215
0.72394
0.69846
0.6679
0.64242
0.6195
0.60676
0.58384
0.5711
0.56346
0.54308
0.54563
0.54308
0.53289
0.52016
0.5278
0.51506
0.5278
0.52525
0.5227
0.52016
0.5227
0.5278
0.53289
0.54053
0.56346
0.60167
0.6628
0.74941
0.83856
0.92008
0.98121
1.022
1.0474
1.0423
1.022
1.0016
0.95319
0.91753
0.87932
0.83856
0.80545
0.76979
0.74177
0.70356
0.68318
0.66535
0.64497
0.6144
0.59912
0.58893
0.5762
0.56091
0.56346
0.55836
0.55327
0.54563
0.53799
0.5278
0.53289
0.53289
0.53289
0.54053
0.54053
0.55327
0.55072
0.56601
0.56855
0.58638
0.63478
0.7112
0.81819
0.91498
0.99395
1.0653
1.1162
1.129
1.1264
1.0958
1.0678
1.0194
0.97102
0.91753
0.87422
0.83092
0.78507
0.74431
0.7112
0.68318
0.65007
0.62459
0.61186
0.58893
0.56855
0.56091
0.55582
0.54818
0.53289
0.53544
0.52525
0.5227
0.5278
0.52016
0.5278
0.5227
0.52525
0.5278
0.5278
0.53799
0.53034
0.54308
0.55072
0.56601
0.61186
0.69082
0.76979
0.87422
0.96338
1.0271
1.0806
1.1009
1.1009
1.0882
1.0423
1.0067
0.96083
0.92008
0.86913
0.81819
0.78252
0.74941
0.7112
0.68063
0.65771
0.62459
0.61186
0.59148
0.57874
0.5711
0.56346
0.54818
0.53034
0.52525
0.5278
0.52525
0.52525
0.52525
0.52016
0.5227
0.51506
0.52016
0.53034
0.53289
0.5278
0.54053
0.55072
0.5762
0.61186
0.68827
0.79017
0.87422
0.96847
1.0347
1.0704
1.0933
1.0856
1.0653
1.0296
0.98885
0.93281
0.89206
0.85385
0.80035
0.76979
0.72648
0.69846
0.67044
0.64752
0.62205
0.60931
0.59148
0.57365
0.56346
0.55327
0.55072
0.54053
0.5278
0.5227
0.51761
0.5278
0.51761
0.5227
0.52525
0.52525
0.52016
0.53544
0.53289
0.53799
0.54818
0.59403
0.64752
0.73158
0.82328
0.91243
0.98885
1.0449
1.0602
1.0678
1.0602
1.0296
0.98885
0.95574
0.91243
0.86658
0.82583
0.79017
0.75196
0.70611
0.68318
0.65771
0.63478
0.6144
0.59912
0.57365
0.56855
0.55836
0.55072
0.55072
0.54563
0.54053
0.54053
0.53799
0.5278
0.52525
0.53799
0.54053
0.54053
0.54308
0.54563
0.54563
0.55327
0.58893
0.63988
0.73158
0.83347
0.93791
1.0194
1.0831
1.1264
1.1417
1.1264
1.0984
1.0576
1.0118
0.95828
0.90224
0.84875
0.8029
0.7596
0.71629
0.68827
0.6628
0.63478
0.60676
0.58384
0.58129
0.56346
0.55072
0.54818
0.54308
0.53799
0.53289
0.52525
0.5227
0.52525
0.52016
0.5227
0.5278
0.51506
0.51506
0.5227
0.52016
0.52016
0.5278
0.54563
0.58129
0.63478
0.73667
0.83347
0.93791
1.0271
1.0806
1.1213
1.1315
1.1213
1.0831
1.0398
0.99904
0.94045
0.89206
0.85385
0.8029
0.7545
0.71884
0.68827
0.65007
0.62969
0.59912
0.58129
0.55836
0.55072
0.53034
0.53034
0.5227
0.51761
0.51251
0.50997
0.51251
0.49978
0.50742
0.50997
0.50487
0.51506
0.51761
0.53034
0.53034
0.53544
0.53799
0.55072
0.58893
0.6628
0.75705
0.85894
0.95064
1.0347
1.0882
1.1137
1.1213
1.0958
1.0729
1.0245
0.97612
0.92517
0.87422
0.82328
0.79017
0.74941
0.71375
0.67554
0.65516
0.62714
0.6144
0.59657
0.57365
0.56091
0.54818
0.53544
0.53544
0.53289
0.5227
0.5278
0.52525
0.51506
0.51251
0.51251
0.51761
0.51506
0.52016
0.5227
0.5278
0.53289
0.54053
0.56346
0.60422
0.6679
0.77488
0.87422
0.96593
1.0322
1.0755
1.1009
1.106
1.0831
1.05
1.0092
0.96338
0.91498
0.86658
0.83092
0.79017
0.74431
0.70865
0.67554
0.64752
0.61695
0.60422
0.58893
0.56091
0.54818
0.54563
0.53799
0.53544
0.53289
0.51761
0.51761
0.51761
0.51761
0.51761
0.52016
0.5278
0.53034
0.53544
0.54053
0.54053
0.55072
0.58638
0.65261
0.74431
0.83602
0.93026
0.99649
1.0398
1.0678
1.078
1.0576
1.0245
0.98121
0.93026
0.8946
0.84111
0.80035
0.76469
0.72139
0.69082
0.66535
0.63733
0.62459
0.60167
0.58638
0.56346
0.55836
0.55072
0.53544
0.53034
0.52525
0.52525
0.5227
0.5278
0.5278
0.5278
0.5227
0.5227
0.52525
0.53034
0.53799
0.53544
0.55072
0.56091
0.57365
0.60422
0.67299
0.77743
0.89715
1.0092
1.0907
1.1723
1.2105
1.213
1.2028
1.1773
1.129
1.0602
1.0143
0.9481
0.88951
0.83602
0.78507
0.73413
0.70356
0.66026
0.64242
0.61695
0.58893
0.5711
0.56091
0.54053
0.53289
0.52016
0.51251
0.50742
0.49723
0.49978
0.49978
0.49978
0.49468
0.49978
0.49723
0.49978
0.51506
0.51251
0.51251
0.53289
0.53289
0.54308
0.59657
0.66026
0.7596
0.84111
0.92517
1.0041
1.0449
1.0678
1.0627
1.0423
1.0169
0.96593
0.93281
0.88696
0.83092
0.78762
0.7596
0.71629
0.68827
0.66535
0.63988
0.62205
0.60167
0.58129
0.5711
0.56091
0.55327
0.54053
0.53544
0.5278
0.52525
0.5227
0.5227
0.51761
0.52016
0.52016
0.52525
0.5227
0.53034
0.53034
0.54563
0.54563
0.56091
0.61695
0.69337
0.77998
0.87422
0.96847
1.0322
1.0933
1.1162
1.1009
1.0806
1.0525
1.0067
0.96083
0.91243
0.85894
0.82583
0.77743
0.73922
0.70356
0.67299
0.63988
0.62459
0.60676
0.59912
0.57365
0.56346
0.55072
0.55327
0.53799
0.53289
0.54053
0.53034
0.53544
0.5227
0.5227
0.52016
0.52016
0.5278
0.53289
0.52525
0.53799
0.55072
0.5711
0.63478
0.71629
0.81309
0.8997
0.98885
1.0449
1.0831
1.1009
1.0907
1.0653
1.0245
0.98376
0.93026
0.88696
0.84111
0.79271
0.76469
0.71884
0.68827
0.65771
0.63478
0.6195
0.59403
0.58384
0.5762
0.55836
0.55836
0.53799
0.53544
0.53034
0.52016
0.52016
0.5278
0.51506
0.51251
0.52525
0.5278
0.5278
0.53289
0.53799
0.54563
0.54563
0.55327
0.58129
0.64242
0.73922
0.84366
0.94555
1.0322
1.0984
1.1391
1.157
1.157
1.129
1.0882
1.0449
0.98376
0.93281
0.86658
0.82583
0.77743
0.73158
0.70611
0.6679
0.63988
0.6195
0.59148
0.56601
0.55327
0.54053
0.53289
0.52016
0.51761
0.52016
0.51251
0.49978
0.50487
0.50997
0.50997
0.50997
0.50997
0.50487
0.52016
0.52016
0.53034
0.53544
0.53544
0.5711
0.6195
0.69846
0.79781
0.88696
0.97357
1.0372
1.0882
1.0958
1.0958
1.0653
1.0296
0.9914
0.93536
0.87932
0.84111
0.79526
0.76215
0.72139
0.68063
0.65771
0.63478
0.61186
0.58893
0.57874
0.56346
0.55327
0.54818
0.53544
0.54053
0.53799
0.5227
0.5227
0.51761
0.53034
0.52525
0.51761
0.5278
0.5278
0.52525
0.5278
0.54053
0.55582
0.59912
0.65771
0.75196
0.85639
0.9481
1.0169
1.0704
1.1009
1.1009
1.0856
1.0474
0.99904
0.95828
0.90734
0.85639
0.81054
0.77233
0.73413
0.69337
0.67554
0.64242
0.62459
0.59148
0.58384
0.5711
0.55072
0.54053
0.54563
0.54053
0.53544
0.5278
0.53034
0.51761
0.52525
0.5278
0.53034
0.5227
0.52525
0.53544
0.53799
0.53544
0.55327
0.58129
0.64497
0.73413
0.84111
0.93791
1.0143
1.0856
1.1162
1.1239
1.1188
1.0856
1.0372
0.99904
0.93791
0.88187
0.83602
0.78507
0.74431
0.70611
0.68318
0.65261
0.62205
0.60167
0.58129
0.57365
0.56346
0.54308
0.54563
0.53034
0.5278
0.52016
0.5227
0.52016
0.51251
0.51251
0.51761
0.5227
0.52525
0.52016
0.52525
0.52016
0.53034
0.53799
0.54818
0.59657
0.67044
0.77488
0.88696
0.99649
1.0729
1.134
1.1646
1.1799
1.157
1.1213
1.0704
1.0092
0.95064
0.8946
0.84366
0.79017
0.7545
0.70356
0.67299
0.64242
0.6144
0.58638
0.5711
0.56091
0.54053
0.53544
0.5227
0.51761
0.50997
0.49978
0.50742
0.50487
0.50997
0.50997
0.50487
0.50997
0.50997
0.52016
0.52016
0.52016
0.5278
0.54308
0.55072
0.60167
0.68063
0.79271
0.88696
0.97612
1.0474
1.0984
1.1188
1.1111
1.0806
1.05
1.0067
0.95064
0.90479
0.8513
0.8029
0.7545
0.71375
0.68063
0.65771
0.63733
0.6144
0.59657
0.58638
0.56346
0.54563
0.54053
0.53799
0.5227
0.51761
0.51761
0.51506
0.50742
0.50997
0.51251
0.51761
0.50997
0.51761
0.52525
0.5278
0.5278
0.53799
0.56091
0.62205
0.70611
0.81309
0.92772
1.0143
1.078
1.1162
1.1315
1.1188
1.0882
1.0449
0.99395
0.9481
0.89715
0.8513
0.80545
0.76469
0.72139
0.68827
0.65007
0.63478
0.60422
0.59403
0.5711
0.55836
0.54818
0.53289
0.53544
0.51506
0.50997
0.51251
0.50742
0.52016
0.52016
0.5227
0.51506
0.5278
0.53034
0.53034
0.53034
0.54818
0.57874
0.64242
0.74177
0.84366
0.92772
1.0067
1.0678
1.106
1.1111
1.0984
1.0627
1.0143
0.96593
0.92008
0.87168
0.81819
0.78507
0.74431
0.70865
0.67299
0.65007
0.6144
0.59912
0.58129
0.56855
0.54818
0.54818
0.54053
0.5278
0.5227
0.50997
0.51506
0.51251
0.51761
0.51761
0.50997
0.51506
0.51761
0.51761
0.5227
0.53034
0.5278
0.53799
0.55327
0.60167
0.69082
0.79526
0.90734
1.0271
1.1162
1.1799
1.2054
1.213
1.2054
1.1621
1.1111
1.0423
0.97866
0.93281
0.86658
0.81054
0.75705
0.71884
0.68318
0.65007
0.62459
0.59657
0.56855
0.55072
0.53289
0.5278
0.50742
0.49978
0.49214
0.48959
0.48959
0.48959
0.48704
0.48449
0.4794
0.48959
0.48704
0.49723
0.49978
0.50232
0.51506
0.51506
0.54308
0.58638
0.65771
0.7545
0.85639
0.95064
1.0143
1.0704
1.1009
1.1035
1.0755
1.0449
0.99904
0.9481
0.89715
0.84366
0.81054
0.75705
0.71629
0.68063
0.65261
0.64242
0.61186
0.60167
0.58129
0.56346
0.55327
0.54818
0.54563
0.5278
0.51761
0.5227
0.52016
0.52016
0.52016
0.51506
0.51761
0.51761
0.5227
0.5278
0.5278
0.53289
0.54053
0.55836
0.60422
0.69337
0.79526
0.90479
1.0016
1.0729
1.1111
1.134
1.129
1.1111
1.0627
1.022
0.97102
0.91753
0.86658
0.82583
0.76724
0.73413
0.70356
0.67299
0.63988
0.6144
0.58893
0.57365
0.56346
0.54563
0.53034
0.5278
0.51506
0.51761
0.50742
0.50997
0.51251
0.51251
0.50997
0.52525
0.5227
0.51761
0.53799
0.53799
0.55072
0.58893
0.63988
0.73413
0.84111
0.93536
1.0118
1.0678
1.0882
1.0958
1.078
1.0525
1.0118
0.96338
0.90734
0.85639
0.81564
0.76979
0.74177
0.70101
0.67299
0.64242
0.6144
0.59912
0.5762
0.56346
0.54053
0.53034
0.52525
0.51761
0.50742
0.50997
0.50742
0.49978
0.50742
0.51251
0.51251
0.50997
0.51251
0.52525
0.52525
0.5278
0.53289
0.54308
0.56091
0.62205
0.73158
0.85385
0.97357
1.0831
1.1621
1.2156
1.2461
1.241
1.2181
1.1773
1.1086
1.0449
0.97612
0.90734
0.84366
0.79017
0.74431
0.70611
0.66535
0.62205
0.59148
0.57365
0.55582
0.53799
0.50997
0.49723
0.48959
0.4794
0.48449
0.46921
0.47431
0.47685
0.47176
0.46666
0.48195
0.47685
0.48449
0.48959
0.4794
0.49214
0.50487
0.51251
0.54308
0.6144
0.70101
0.80035
0.90734
0.99395
1.0576
1.0958
1.1111
1.0933
1.0602
1.0271
0.97357
0.92772
0.87932
0.83347
0.78252
0.74431
0.70101
0.67044
0.64752
0.62969
0.59657
0.58384
0.56855
0.55836
0.53034
0.53034
0.51761
0.52016
0.50997
0.49978
0.49723
0.49468
0.50487
0.50232
0.50997
0.50742
0.50997
0.5278
0.5278
0.53289
0.54308
0.5762
0.62969
0.72139
0.84111
0.95064
1.05
1.1188
1.157
1.185
1.1773
1.1391
1.0933
1.0449
0.98885
0.93026
0.86913
0.81819
0.77743
0.72648
0.69337
0.64752
0.62205
0.59148
0.57874
0.56601
0.54563
0.5278
0.52016
0.51506
0.50997
0.50997
0.50487
0.50487
0.50487
0.50742
0.49978
0.50232
0.50742
0.50742
0.50997
0.51761
0.53289
0.56601
0.63988
0.73667
0.8462
0.94045
1.0194
1.0602
1.0907
1.0882
1.0627
1.0245
0.97866
0.92772
0.87677
0.84111
0.79271
0.75705
0.71629
0.68318
0.64752
0.62969
0.6144
0.58129
0.57874
0.56601
0.54308
0.53544
0.5278
0.5278
0.52016
0.5227
0.51251
0.52016
0.51506
0.50997
0.51761
0.52016
0.51761
0.5278
0.53799
0.53799
0.54818
0.5762
0.63988
0.75705
0.87422
0.98885
1.0958
1.1646
1.2232
1.2436
1.2308
1.1977
1.1493
1.0856
1.0194
0.94555
0.88951
0.83092
0.77743
0.72903
0.68827
0.65771
0.62205
0.59912
0.57365
0.54818
0.52525
0.50997
0.49978
0.49723
0.48959
0.48704
0.48195
0.47685
0.47685
0.47431
0.47685
0.47431
0.48704
0.48449
0.48959
0.48959
0.49214
0.51506
0.53544
0.59657
0.69592
0.8029
0.8997
0.98885
1.0653
1.1035
1.1366
1.1239
1.0882
1.0474
0.9914
0.943
0.88696
0.83347
0.79017
0.73922
0.69337
0.6628
0.63733
0.60931
0.58893
0.5762
0.55072
0.54053
0.53034
0.5278
0.50997
0.51506
0.50487
0.51251
0.49978
0.50487
0.49978
0.50997
0.50997
0.51506
0.51506
0.51506
0.53034
0.52525
0.54563
0.58638
0.65007
0.76724
0.87422
0.98376
1.0729
1.1366
1.1773
1.1824
1.1697
1.1315
1.0806
1.0194
0.95574
0.89715
0.84111
0.79017
0.74941
0.70611
0.6679
0.64242
0.60676
0.58638
0.56091
0.55072
0.53034
0.52016
0.50487
0.50997
0.49978
0.49468
0.49468
0.49214
0.48959
0.49468
0.49214
0.49468
0.50487
0.51506
0.51761
0.53034
0.54818
0.60931
0.70611
0.81564
0.91243
1.0016
1.05
1.0984
1.0984
1.0907
1.0602
1.0169
0.96593
0.91753
0.86658
0.81309
0.77488
0.72394
0.68827
0.6628
0.62714
0.60167
0.5762
0.5711
0.54563
0.54053
0.53799
0.52016
0.51506
0.51251
0.51251
0.50997
0.50232
0.49723
0.50742
0.50997
0.50487
0.50997
0.51251
0.51761
0.53544
0.55072
0.61695
0.7112
0.83347
0.95319
1.0576
1.1391
1.1901
1.2232
1.213
1.185
1.1493
1.0831
1.0245
0.96083
0.8946
0.83602
0.79271
0.73667
0.68573
0.64752
0.6195
0.59148
0.55836
0.53799
0.5227
0.51506
0.50742
0.50232
0.49468
0.48704
0.48959
0.48449
0.48959
0.48449
0.49723
0.49978
0.49723
0.49978
0.49978
0.50232
0.51251
0.50997
0.53034
0.58129
0.67044
0.79526
0.90479
1.0067
1.0882
1.1544
1.1926
1.1824
1.1646
1.1162
1.0704
1.0067
0.94555
0.89206
0.83602
0.77743
0.72648
0.69337
0.64497
0.62205
0.59403
0.55836
0.54308
0.52525
0.50997
0.49723
0.49978
0.48704
0.49468
0.48704
0.48959
0.47685
0.47685
0.48704
0.4794
0.49723
0.48959
0.50487
0.49723
0.50742
0.51251
0.52525
0.58129
0.6628
0.76979
0.88187
0.97866
1.0678
1.1213
1.1646
1.1621
1.1417
1.1009
1.0449
0.99395
0.94045
0.87932
0.81819
0.77743
0.73158
0.69082
0.66026
0.63733
0.60676
0.58384
0.56091
0.54818
0.53289
0.52525
0.51761
0.51251
0.49978
0.50997
0.49723
0.49978
0.49468
0.49978
0.50487
0.50487
0.50487
0.50487
0.51761
0.52525
0.55327
0.59912
0.69082
0.79017
0.90479
0.98885
1.0576
1.1035
1.1137
1.1188
1.0856
1.0423
0.99395
0.93281
0.87677
0.83092
0.79017
0.74431
0.70865
0.67299
0.63224
0.60676
0.58893
0.5711
0.55327
0.53799
0.54053
0.5278
0.52525
0.51761
0.50232
0.50742
0.49978
0.49978
0.51251
0.51251
0.49978
0.50997
0.51251
0.50997
0.51506
0.52016
0.55582
0.60676
0.7112
0.81819
0.93791
1.05
1.1239
1.1926
1.2156
1.2181
1.1824
1.1366
1.0806
1.0092
0.96083
0.89206
0.83856
0.77998
0.73922
0.68573
0.64752
0.62459
0.59657
0.58129
0.56091
0.53544
0.53034
0.50487
0.49214
0.48959
0.48195
0.48449
0.47176
0.4794
0.4794
0.47685
0.4794
0.47685
0.49468
0.49214
0.49214
0.50487
0.51761
0.53289
0.54563
0.61695
0.7112
0.83856
0.93791
1.05
1.1188
1.1646
1.185
1.1723
1.1544
1.1035
1.0474
0.98121
0.92008
0.86913
0.808
0.76215
0.72394
0.68827
0.64497
0.60931
0.58893
0.56855
0.55072
0.53034
0.52525
0.50742
0.50742
0.49978
0.48959
0.48959
0.49214
0.49468
0.48959
0.49723
0.49468
0.49468
0.50232
0.50487
0.50997
0.52016
0.53034
0.53799
0.55582
0.61695
0.71629
0.83602
0.92772
1.0271
1.0958
1.1417
1.1493
1.1442
1.1213
1.078
1.0322
0.96593
0.92262
0.85639
0.81054
0.76979
0.72903
0.69337
0.6679
0.62969
0.60167
0.58638
0.55836
0.55836
0.53289
0.53289
0.5227
0.51251
0.50487
0.50487
0.49468
0.50742
0.49978
0.49723
0.50742
0.51251
0.52016
0.51506
0.52016
0.5227
0.54053
0.55072
0.60167
0.68063
0.79526
0.89206
0.9863
1.0449
1.0958
1.1137
1.1111
1.078
1.0398
0.99395
0.9481
0.8997
0.85894
0.808
0.77488
0.73667
0.70356
0.67299
0.63988
0.61695
0.59912
0.58129
0.56601
0.54818
0.54053
0.53034
0.52525
0.51761
0.51251
0.51251
0.50997
0.51251
0.50997
0.51506
0.5227
0.53034
0.5278
0.52525
0.54053
0.55072
0.60676
0.69592
0.80545
0.8946
0.9863
1.0653
1.1188
1.1391
1.1315
1.106
1.0525
1.0092
0.96083
0.8997
0.85894
0.81054
0.76724
0.73413
0.68827
0.66535
0.63224
0.60931
0.59657
0.5711
0.55836
0.54563
0.53544
0.53289
0.52016
0.51506
0.51506
0.50997
0.50742
0.51251
0.50742
0.50487
0.50487
0.50742
0.51761
0.51251
0.51506
0.5227
0.53544
0.55836
0.60931
0.71629
0.82583
0.93281
1.0423
1.1264
1.1824
1.2156
1.2079
1.1773
1.1391
1.0856
1.0271
0.96338
0.90224
0.84366
0.79781
0.7545
0.72139
0.68318
0.64242
0.62205
0.59912
0.57365
0.56091
0.54563
0.53034
0.5227
0.50997
0.50232
0.49978
0.49723
0.49468
0.49468
0.49214
0.49978
0.49978
0.49723
0.50487
0.50742
0.49978
0.51251
0.5227
0.54308
0.59148
0.67299
0.77233
0.87168
0.96338
1.0296
1.0856
1.106
1.0984
1.0856
1.0474
0.99904
0.94555
0.90479
0.85385
0.79781
0.75196
0.72139
0.68063
0.65516
0.62205
0.60931
0.59148
0.5762
0.56346
0.54818
0.53289
0.52525
0.53034
0.52016
0.51761
0.52525
0.51506
0.51506
0.51506
0.5227
0.51761
0.53289
0.52525
0.5278
0.53034
0.54818
0.55327
0.58893
0.66535
0.75196
0.87422
0.95828
1.0474
1.106
1.1366
1.1493
1.1239
1.0882
1.0576
1.0067
0.94555
0.8946
0.83602
0.78762
0.7545
0.71629
0.68573
0.6628
0.63733
0.60676
0.59912
0.58384
0.5711
0.55072
0.54053
0.53289
0.52525
0.51761
0.50997
0.50997
0.50997
0.50742
0.50487
0.49978
0.50997
0.52016
0.51506
0.53544
0.54308
0.60167
0.68318
0.78252
0.87932
0.96083
1.0322
1.0704
1.0882
1.0882
1.0678
1.0322
0.99395
0.94045
0.88696
0.83602
0.79781
0.75705
0.70865
0.68573
0.65007
0.62205
0.59912
0.58638
0.5711
0.55582
0.54308
0.53799
0.52525
0.51761
0.51251
0.50997
0.50997
0.49978
0.49978
0.51251
0.51251
0.52016
0.52525
0.51506
0.53034
0.5278
0.53289
0.54308
0.5762
0.6628
0.77743
0.90734
1.0118
1.1213
1.185
1.2359
1.2436
1.2334
1.1952
1.1468
1.078
1.022
0.95828
0.88441
0.84111
0.77488
0.73413
0.69337
0.65771
0.62969
0.60167
0.57365
0.55327
0.54053
0.5278
0.50997
0.49214
0.49723
0.48704
0.48704
0.48704
0.48195
0.48704
0.48195
0.4794
0.49723
0.49978
0.49468
0.49214
0.50487
0.51251
0.53034
0.58129
0.66026
0.7545
0.86149
0.96083
1.022
1.0678
1.0882
1.0958
1.0704
1.0322
0.98885
0.93791
0.88441
0.83602
0.8029
0.76469
0.72903
0.69592
0.65261
0.62969
0.59912
0.58638
0.56855
0.56091
0.53544
0.53544
0.5278
0.5227
0.52016
0.51761
0.50997
0.52016
0.51761
0.51761
0.51761
0.51506
0.51761
0.51761
0.51761
0.53289
0.5278
0.55582
0.59148
0.68573
0.78762
0.90734
0.99904
1.0907
1.1417
1.1824
1.1799
1.1621
1.1213
1.0704
1.0143
0.95319
0.88951
0.83602
0.78762
0.73413
0.70101
0.66535
0.63478
0.60931
0.57874
0.5711
0.54818
0.53799
0.52016
0.52016
0.51251
0.49978
0.50232
0.50487
0.49723
0.49978
0.50742
0.50487
0.51251
0.50997
0.51761
0.51251
0.53034
0.55072
0.61695
0.71375
0.81819
0.90989
0.98885
1.0627
1.0933
1.1111
1.0882
1.0653
1.0169
0.97612
0.91243
0.86658
0.81054
0.76979
0.73413
0.68827
0.66535
0.63988
0.60676
0.58638
0.56855
0.55582
0.54308
0.5278
0.51761
0.5227
0.50487
0.50997
0.50742
0.50487
0.50742
0.50487
0.51251
0.50997
0.52016
0.52016
0.53034
0.5278
0.54053
0.54053
0.58638
0.65516
0.78507
0.90479
1.022
1.1213
1.1952
1.2461
1.2538
1.2436
1.2079
1.1468
1.0933
1.0194
0.95319
0.88951
0.83856
0.77998
0.72903
0.69082
0.65007
0.6144
0.58893
0.56855
0.54818
0.52016
0.50997
0.49978
0.49214
0.48195
0.4794
0.46921
0.47176
0.46921
0.47685
0.46921
0.47685
0.48449
0.4794
0.48449
0.48704
0.49978
0.49978
0.52016
0.56601
0.65261
0.75705
0.87168
0.96083
1.0398
1.1009
1.134
1.1468
1.1213
1.078
1.0398
0.98376
0.93026
0.86913
0.81054
0.76979
0.72394
0.69337
0.65007
0.62459
0.60167
0.57365
0.55072
0.54818
0.52016
0.5227
0.50997
0.49978
0.50232
0.49468
0.49723
0.50232
0.49468
0.49723
0.49723
0.49978
0.50232
0.51251
0.51506
0.51251
0.5227
0.53034
0.55582
0.62205
0.73667
0.8513
0.96593
1.0653
1.1442
1.1926
1.2181
1.2003
1.1697
1.1264
1.0627
0.99395
0.93536
0.87677
0.83092
0.77233
0.72139
0.68827
0.65261
0.62205
0.59912
0.5711
0.56346
0.54053
0.53289
0.53034
0.51761
0.51506
0.49723
0.49468
0.48959
0.48195
0.49214
0.49214
0.49214
0.49214
0.48959
0.49978
0.50742
0.52016
0.52525
0.53799
0.59403
0.69337
0.78762
0.90479
0.9914
1.0704
1.106
1.1315
1.1162
1.0984
1.0602
0.99395
0.94045
0.89715
0.84875
0.80545
0.7545
0.7112
0.67299
0.64242
0.62459
0.59403
0.5711
0.56091
0.53544
0.53289
0.51251
0.52016
0.50997
0.50997
0.51251
0.50997
0.49468
0.49978
0.49723
0.51251
0.50997
0.51251
0.52525
0.52016
0.53289
0.54563
0.59148
0.66535
0.78507
0.89206
0.9863
1.078
1.1366
1.1646
1.1824
1.1519
1.1162
1.0653
1.0067
0.95574
0.8997
0.84111
0.78252
0.74177
0.70611
0.66026
0.63988
0.61695
0.59403
0.5711
0.55072
0.53799
0.5278
0.52525
0.50997
0.50487
0.49978
0.50487
0.48959
0.49723
0.49978
0.49978
0.49978
0.50487
0.49978
0.50232
0.50487
0.52016
0.52525
0.54308
0.58129
0.67044
0.76215
0.87677
0.99395
1.0856
1.1544
1.1977
1.213
1.1901
1.1493
1.1009
1.0322
0.96847
0.91498
0.86404
0.80545
0.7545
0.7112
0.6679
0.63478
0.60422
0.58638
0.56601
0.54818
0.53799
0.52525
0.50487
0.50487
0.50487
0.48959
0.49468
0.49468
0.49214
0.49214
0.49468
0.48959
0.49978
0.50232
0.50742
0.50742
0.50742
0.51251
0.5227
0.55072
0.59912
0.69846
0.80035
0.91753
1.0143
1.0831
1.129
1.1544
1.1442
1.1188
1.078
1.0169
0.96847
0.90989
0.8513
0.80545
0.76724
0.72903
0.68318
0.65261
0.62969
0.60931
0.59148
0.57365
0.56091
0.53799
0.5278
0.52525
0.52016
0.51251
0.51251
0.50742
0.50487
0.50997
0.49978
0.50997
0.50997
0.51251
0.51506
0.52016
0.53034
0.54053
0.5711
0.65007
0.73667
0.8462
0.93791
1.0194
1.0704
1.1009
1.0933
1.0729
1.0347
0.9914
0.95574
0.89715
0.85385
0.81054
0.76469
0.72903
0.68827
0.66026
0.63988
0.62205
0.60931
0.58893
0.57365
0.56601
0.55327
0.54308
0.53034
0.53289
0.53034
0.53034
0.53034
0.53034
0.53034
0.5278
0.53034
0.53799
0.5278
0.54053
0.54818
0.5762
0.62205
0.71629
0.81819
0.92262
1.022
1.0958
1.1366
1.1621
1.1442
1.1213
1.0907
1.0347
0.98885
0.93281
0.87677
0.81309
0.76469
0.73667
0.70101
0.65516
0.63478
0.59912
0.58129
0.55582
0.54563
0.53289
0.5278
0.52016
0.50997
0.50487
0.49214
0.49723
0.50487
0.49214
0.50742
0.49468
0.50487
0.49978
0.51506
0.53034
0.54053
0.59657
0.67299
0.78762
0.90479
0.98885
1.0729
1.1162
1.1468
1.1417
1.1264
1.078
1.0322
0.97102
0.91753
0.85894
0.80035
0.76215
0.72394
0.67554
0.64752
0.61186
0.59148
0.56855
0.55327
0.53034
0.53034
0.5227
0.51251
0.49978
0.49978
0.50487
0.48959
0.50487
0.49723
0.50487
0.50997
0.50997
0.51761
0.51506
0.52016
0.5278
0.53289
0.59148
0.68827
0.81564
0.93026
1.0423
1.129
1.1926
1.2181
1.2308
1.1952
1.1544
1.1009
1.0296
0.96083
0.89715
0.83347
0.78507
0.72903
0.68318
0.65007
0.61695
0.57365
0.55836
0.53799
0.5278
0.49978
0.50232
0.48959
0.4794
0.47431
0.46921
0.47176
0.46157
0.47431
0.46921
0.46412
0.46666
0.46921
0.48704
0.48704
0.48959
0.50997
0.54818
0.6144
0.72139
0.8513
0.95828
1.0372
1.1137
1.1391
1.1595
1.1391
1.1035
1.0551
0.99904
0.943
0.87932
0.82328
0.76979
0.72394
0.67554
0.64752
0.60931
0.58384
0.56091
0.55072
0.53289
0.5227
0.50742
0.51251
0.49723
0.49978
0.48959
0.49468
0.49468
0.49468
0.48959
0.49214
0.49978
0.49978
0.49978
0.51251
0.50487
0.52016
0.51761
0.54053
0.59657
0.69337
0.81309
0.94045
1.0576
1.1366
1.1977
1.2283
1.2283
1.1977
1.1646
1.0933
1.0347
0.96083
0.90479
0.84366
0.78762
0.74941
0.69846
0.65516
0.62969
0.60167
0.5762
0.55327
0.53799
0.52016
0.51761
0.49978
0.49978
0.47685
0.4794
0.47685
0.47431
0.47431
0.47685
0.48195
0.48704
0.48959
0.48704
0.49723
0.49978
0.51251
0.5278
0.54308
0.59912
0.68318
0.79526
0.90734
1.0067
1.0856
1.1417
1.1621
1.1595
1.1264
1.0933
1.0296
0.97866
0.91498
0.87422
0.82073
0.76979
0.72648
0.68318
0.65516
0.6195
0.59403
0.58638
0.5711
0.55327
0.53289
0.5278
0.52016
0.52016
0.50997
0.50997
0.49978
0.50232
0.50232
0.50742
0.50232
0.50487
0.50997
0.50997
0.51251
0.52016
0.53034
0.5278
0.55582
0.62459
0.72394
0.84366
0.96338
1.0474
1.1239
1.1723
1.1926
1.1977
1.1621
1.1111
1.0576
1.0016
0.94045
0.87677
0.82328
0.76979
0.72139
0.69082
0.66026
0.63224
0.59657
0.5762
0.55582
0.54563
0.52525
0.51761
0.51506
0.50232
0.50487
0.49723
0.48959
0.49468
0.48704
0.48959
0.49978
0.50742
0.50997
0.52016
0.51761
0.51506
0.52525
0.54053
0.56091
0.61695
0.70101
0.808
0.92008
1.0067
1.0704
1.1239
1.1391
1.1315
1.1086
1.0704
1.0118
0.95828
0.90734
0.8513
0.79526
0.76724
0.71884
0.67554
0.64242
0.6144
0.59148
0.5762
0.55327
0.54563
0.54053
0.53034
0.51506
0.51761
0.51506
0.51251
0.50742
0.52016
0.50997
0.52016
0.5227
0.51761
0.5278
0.53289
0.5278
0.54308
0.54308
0.54818
0.56855
0.62205
0.70101
0.81564
0.92772
1.0194
1.1086
1.1595
1.1773
1.1697
1.1417
1.0933
1.0398
0.98376
0.93026
0.87677
0.81819
0.77488
0.73413
0.69592
0.65516
0.63988
0.60167
0.59148
0.57365
0.55072
0.55072
0.53289
0.53544
0.53034
0.51761
0.52016
0.51251
0.51506
0.50232
0.50232
0.50232
0.49978
0.50232
0.51506
0.5227
0.53034
0.53034
0.55582
0.6195
0.72648
0.82328
0.93026
1.0067
1.0678
1.106
1.1035
1.0882
1.0678
1.0092
0.96847
0.91243
0.86658
0.82328
0.76979
0.73413
0.69337
0.66026
0.63988
0.62205
0.59657
0.58893
0.5711
0.55836
0.54818
0.54053
0.53034
0.52525
0.51506
0.51251
0.52525
0.50997
0.51761
0.52016
0.5227
0.52016
0.53034
0.53289
0.54053
0.54563
0.55072
0.56601
0.59912
0.68063
0.79271
0.90989
1.0194
1.1035
1.1799
1.2028
1.2181
1.2003
1.1595
1.1111
1.0398
0.98121
0.92008
0.85639
0.81054
0.76215
0.72394
0.68063
0.63988
0.6195
0.59403
0.58129
0.55072
0.54308
0.52016
0.51761
0.50997
0.50487
0.49214
0.50487
0.49214
0.48959
0.48959
0.49723
0.49214
0.49468
0.48959
0.49468
0.50232
0.50997
0.50997
0.53034
0.54053
0.60422
0.68827
0.80545
0.90479
0.99904
1.0755
1.1111
1.1366
1.134
1.1035
1.0602
1.0092
0.95574
0.90734
0.84366
0.80035
0.7545
0.7112
0.68573
0.65261
0.62714
0.60931
0.58638
0.57365
0.56091
0.54308
0.53289
0.53289
0.51506
0.51761
0.52016
0.50997
0.50742
0.5227
0.51506
0.51761
0.52016
0.51506
0.52525
0.53289
0.53799
0.53799
0.53799
0.56091
0.60676
0.70101
0.81054
0.91243
1.0169
1.1009
1.1621
1.1824
1.1773
1.1621
1.1188
1.0678
1.0143
0.95064
0.88441
0.83856
0.79526
0.74177
0.70101
0.6679
0.63478
0.61186
0.57874
0.5711
0.54818
0.53289
0.52016
0.51761
0.49978
0.49978
0.50742
0.49468
0.50742
0.50487
0.50487
0.50997
0.50487
0.51506
0.51251
0.51506
0.52016
0.52016
0.53034
0.53799
0.56091
0.61695
0.7112
0.81054
0.92262
1.0118
1.0958
1.1366
1.1493
1.1519
1.1162
1.0729
1.022
0.97102
0.91498
0.86404
0.808
0.77488
0.72903
0.69337
0.67044
0.63733
0.6144
0.59403
0.5711
0.56091
0.54053
0.54308
0.52525
0.5227
0.5227
0.51506
0.51506
0.52016
0.51761
0.51251
0.51506
0.51506
0.51761
0.5227
0.51761
0.52525
0.53544
0.54053
0.55327
0.58384
0.67044
0.77488
0.88696
0.98885
1.078
1.1264
1.1621
1.1723
1.1493
1.1086
1.0551
1.0016
0.94555
0.8946
0.8513
0.79271
0.74941
0.71375
0.67044
0.63988
0.6195
0.59403
0.58384
0.56346
0.55582
0.54308
0.54053
0.5278
0.51251
0.52016
0.50487
0.50997
0.51251
0.50997
0.51251
0.50742
0.51251
0.51761
0.51506
0.52016
0.5278
0.54308
0.56091
0.63224
0.73922
0.83347
0.94045
1.0245
1.0856
1.1188
1.1264
1.106
1.0678
1.022
0.97612
0.92008
0.86658
0.81819
0.77743
0.72648
0.69592
0.66535
0.63478
0.61186
0.58129
0.57365
0.55072
0.54563
0.53034
0.5227
0.52525
0.5227
0.51761
0.52016
0.51506
0.51761
0.51506
0.5227
0.51506
0.5227
0.53034
0.52525
0.53544
0.53034
0.54818
0.55072
0.57365
0.62459
0.7112
0.81819
0.943
1.05
1.1468
1.2054
1.2334
1.2461
1.2105
1.1672
1.1137
1.0551
0.98376
0.92008
0.85894
0.808
0.7545
0.71884
0.67554
0.63478
0.6195
0.58384
0.5711
0.54818
0.5278
0.5227
0.51506
0.50997
0.49723
0.49214
0.48959
0.48959
0.49723
0.48959
0.49214
0.48704
0.49978
0.49468
0.50487
0.50997
0.51251
0.52525
0.53289
0.54818
0.58638
0.65516
0.7596
0.87932
0.97102
1.0602
1.1111
1.134
1.1391
1.1315
1.0958
1.0372
0.98885
0.92772
0.87677
0.83092
0.78252
0.73158
0.69337
0.65516
0.63224
0.59912
0.57874
0.56855
0.54818
0.54053
0.53034
0.53034
0.51761
0.51506
0.51506
0.50742
0.50487
0.49978
0.51251
0.51251
0.50997
0.51251
0.50997
0.51761
0.52016
0.52525
0.53034
0.54053
0.56601
0.60931
0.68827
0.81054
0.91753
1.0194
1.106
1.1621
1.1875
1.2028
1.1723
1.1264
1.0729
1.0271
0.95574
0.90224
0.8513
0.79781
0.7545
0.7112
0.68318
0.65261
0.62205
0.59657
0.5762
0.56855
0.55582
0.53799
0.53034
0.5227
0.51761
0.51251
0.50742
0.49468
0.49723
0.50487
0.50487
0.50232
0.50487
0.49468
0.50232
0.50742
0.51251
0.52525
0.5278
0.54818
0.59148
0.67809
0.78507
0.8997
0.99395
1.0729
1.1315
1.1595
1.1621
1.1417
1.0984
1.0551
0.99904
0.93281
0.88696
0.82328
0.78762
0.73667
0.69846
0.6679
0.63988
0.61186
0.58893
0.5762
0.56346
0.55072
0.53544
0.5278
0.51761
0.50997
0.50742
0.50997
0.50742
0.50742
0.50997
0.51506
0.51506
0.51251
0.5278
0.52525
0.5278
0.53799
0.54053
0.54053
0.5711
0.64497
0.75196
0.85639
0.96083
1.05
1.1213
1.1621
1.1773
1.1519
1.1188
1.0729
1.0169
0.95828
0.90224
0.8462
0.8029
0.74941
0.7112
0.67809
0.63733
0.62205
0.59657
0.5762
0.55836
0.54818
0.5227
0.52016
0.51761
0.50742
0.50487
0.50997
0.50742
0.50742
0.50232
0.51761
0.51251
0.51506
0.51506
0.51506
0.51506
0.52016
0.52016
0.53289
0.5278
0.55072
0.58893
0.6628
0.76469
0.8946
0.99904
1.1009
1.1646
1.213
1.213
1.2079
1.1697
1.1188
1.0653
0.99904
0.94555
0.87932
0.81819
0.76724
0.72648
0.68318
0.65261
0.62459
0.60676
0.5762
0.55836
0.55072
0.52525
0.52525
0.50997
0.51506
0.50487
0.49723
0.50487
0.48959
0.49978
0.49723
0.49978
0.49468
0.49723
0.49978
0.51506
0.51251
0.51251
0.52525
0.54053
0.54818
0.55836
0.6195
0.70611
0.81819
0.93281
1.0169
1.1035
1.1519
1.1773
1.1697
1.1519
1.1009
1.05
0.9914
0.943
0.88187
0.83092
0.77998
0.73413
0.69846
0.67299
0.63224
0.60676
0.59148
0.5711
0.56091
0.54308
0.52525
0.51761
0.51506
0.51506
0.50487
0.50487
0.50487
0.50487
0.50232
0.50487
0.50997
0.50997
0.51251
0.51761
0.51506
0.5278
0.5278
0.53289
0.53289
0.55327
0.57365
0.64497
0.73413
0.85385
0.95319
1.0449
1.1239
1.1697
1.1952
1.185
1.1493
1.0984
1.0449
0.99395
0.93536
0.87932
0.82837
0.78252
0.73922
0.70356
0.66026
0.63988
0.61186
0.58638
0.5711
0.55072
0.54563
0.5278
0.5278
0.5227
0.50997
0.50997
0.50232
0.50997
0.51761
0.51251
0.51251
0.50997
0.51251
0.5227
0.52016
0.52525
0.5227
0.54053
0.54053
0.55836
0.57365
0.6195
0.7112
0.82837
0.93791
1.0169
1.0984
1.1442
1.1646
1.157
1.129
1.0958
1.0423
0.98121
0.92262
0.88187
0.82583
0.78252
0.74177
0.69592
0.67299
0.63478
0.61695
0.59657
0.57365
0.56346
0.53799
0.53034
0.53034
0.51251
0.51761
0.52016
0.50742
0.50997
0.51251
0.51506
0.50997
0.50742
0.5227
0.52525
0.5227
0.53034
0.53034
0.53544
0.54563
0.55836
0.58129
0.63733
0.72394
0.82583
0.92772
1.0194
1.1009
1.1442
1.1799
1.1723
1.1366
1.0958
1.0551
0.99904
0.93281
0.89206
0.83092
0.78507
0.75196
0.70356
0.68318
0.63988
0.61186
0.59657
0.57874
0.56346
0.54053
0.53544
0.5278
0.51761
0.52525
0.51506
0.50742
0.50742
0.50997
0.50997
0.50232
0.50997
0.51506
0.50997
0.52016
0.5227
0.5278
0.53544
0.53034
0.54308
0.55836
0.56346
0.62459
0.70356
0.81564
0.92772
1.0194
1.1009
1.1519
1.1824
1.1926
1.1672
1.1239
1.078
1.022
0.96847
0.91243
0.86913
0.81564
0.77233
0.72648
0.68827
0.67044
0.63478
0.60422
0.59148
0.5711
0.55072
0.55072
0.53544
0.5227
0.51761
0.51506
0.52016
0.51761
0.50997
0.51251
0.50487
0.51761
0.51251
0.51251
0.52016
0.50997
0.5227
0.52525
0.53799
0.53799
0.54563
0.56091
0.59148
0.66535
0.76215
0.87168
0.95828
1.0551
1.1188
1.1519
1.1544
1.1417
1.1137
1.0755
1.022
0.96847
0.90989
0.85639
0.81054
0.76469
0.72648
0.68318
0.66026
0.63224
0.60931
0.59912
0.58129
0.56091
0.55072
0.54053
0.53289
0.52525
0.51761
0.51506
0.50487
0.50997
0.50742
0.50232
0.50997
0.51251
0.50742
0.52525
0.5278
0.5278
0.53289
0.54053
0.54308
0.55836
0.56091
0.58384
0.62969
0.71884
0.82073
0.92517
1.0169
1.0882
1.1442
1.1672
1.1646
1.1391
1.0907
1.0576
0.99904
0.94045
0.89206
0.83856
0.78507
0.75196
0.71629
0.69082
0.66026
0.63224
0.61695
0.59403
0.58129
0.56855
0.56091
0.54563
0.53034
0.53034
0.5278
0.51761
0.52016
0.5278
0.5278
0.53034
0.5278
0.5278
0.53034
0.5278
0.5278
0.54053
0.54563
0.55072
0.56091
0.59403
0.64497
0.72903
0.83602
0.92772
1.0092
1.0704
1.1162
1.1213
1.1111
1.0907
1.0423
0.99649
0.96083
0.90224
0.85385
0.808
0.76469
0.73413
0.70356
0.66535
0.63988
0.6144
0.59148
0.58129
0.56855
0.55582
0.54308
0.54053
0.53799
0.53034
0.5278
0.53544
0.53034
0.52016
0.53034
0.53544
0.53799
0.5278
0.53544
0.5278
0.53034
0.54563
0.54818
0.55327
0.56091
0.57874
0.62459
0.71375
0.80545
0.92008
1.0169
1.1035
1.1493
1.185
1.1952
1.1697
1.129
1.0806
1.0169
0.96083
0.90479
0.84366
0.80035
0.7596
0.72648
0.68573
0.65516
0.62969
0.60167
0.57365
0.56346
0.54818
0.53544
0.5278
0.51251
0.51761
0.50487
0.50487
0.51251
0.50742
0.50232
0.50997
0.50742
0.50742
0.51761
0.51251
0.5227
0.5278
0.53289
0.53799
0.53799
0.55327
0.58129
0.63224
0.71629
0.82328
0.92008
1.0067
1.0882
1.1366
1.1646
1.1544
1.1315
1.0958
1.0347
0.9863
0.93281
0.88441
0.83347
0.78507
0.74431
0.70865
0.66535
0.63478
0.60931
0.59912
0.56855
0.55327
0.54563
0.53034
0.5278
0.51506
0.51506
0.50997
0.50997
0.50997
0.51251
0.50997
0.51506
0.51761
0.51506
0.5278
0.51761
0.53289
0.53034
0.53289
0.54053
0.54818
0.55836
0.58638
0.64752
0.73158
0.84366
0.94045
1.0347
1.1137
1.1468
1.1723
1.1646
1.1315
1.0958
1.0474
0.9914
0.943
0.87932
0.83347
0.79017
0.74686
0.70865
0.67044
0.65261
0.62205
0.59912
0.58384
0.56601
0.54053
0.54053
0.5227
0.53034
0.51506
0.51251
0.50742
0.50997
0.50742
0.51251
0.50997
0.50997
0.50487
0.52016
0.52525
0.5227
0.52016
0.53289
0.54053
0.55836
0.58893
0.65516
0.74941
0.86149
0.95828
1.0449
1.1035
1.1366
1.1366
1.1213
1.0882
1.0398
0.99395
0.95064
0.88696
0.83856
0.8029
0.7545
0.71629
0.67554
0.65261
0.62969
0.60676
0.59148
0.56601
0.55582
0.55327
0.54563
0.54053
0.54053
0.53034
0.5278
0.52016
0.5227
0.52016
0.51506
0.51251
0.52525
0.51761
0.5227
0.5278
0.52016
0.52525
0.53799
0.55072
0.5762
0.65007
0.75196
0.85894
0.96847
1.0525
1.129
1.1723
1.1875
1.1773
1.1544
1.1086
1.0551
0.99395
0.93536
0.88187
0.83092
0.79017
0.73158
0.69592
0.6628
0.63733
0.60676
0.58638
0.56601
0.55072
0.54053
0.53034
0.52525
0.50997
0.50232
0.49468
0.49214
0.49214
0.49214
0.49214
0.48959
0.49214
0.50487
0.49723
0.50487
0.51506
0.51761
0.53034
0.54053
0.54818
0.55836
0.59148
0.65771
0.77233
0.88696
0.99395
1.0933
1.157
1.1977
1.2105
1.2003
1.1595
1.1162
1.0678
1.0067
0.94555
0.88951
0.83602
0.78507
0.74686
0.70611
0.67809
0.65007
0.60931
0.59148
0.5711
0.55582
0.54308
0.53034
0.51506
0.50997
0.49978
0.48704
0.49723
0.48195
0.48704
0.48195
0.49214
0.48959
0.50232
0.50487
0.51251
0.50997
0.52016
0.51251
0.52016
0.5278
0.53799
0.55327
0.61695
0.70611
0.81309
0.91753
1.0143
1.1009
1.1544
1.1723
1.1723
1.1544
1.1009
1.0627
1.0041
0.94555
0.90734
0.85639
0.8029
0.76469
0.72394
0.68827
0.64497
0.62714
0.60167
0.5711
0.55836
0.55072
0.53289
0.53799
0.5278
0.52525
0.51506
0.50742
0.50997
0.50997
0.49978
0.50742
0.50742
0.50742
0.50487
0.50742
0.51506
0.50487
0.52016
0.52016
0.53034
0.54308
0.56855
0.62205
0.72139
0.82837
0.92262
1.0194
1.0958
1.1417
1.1621
1.157
1.1366
1.0958
1.0398
0.97866
0.94045
0.88441
0.83347
0.79526
0.76215
0.72394
0.68063
0.65007
0.63988
0.60931
0.58129
0.57874
0.56601
0.54818
0.54053
0.53799
0.52525
0.5227
0.51761
0.5227
0.51251
0.50997
0.50997
0.50487
0.50487
0.50742
0.51506
0.51506
0.53034
0.5278
0.54053
0.55072
0.59912
0.67554
0.77488
0.87422
0.98121
1.0551
1.1162
1.1519
1.1493
1.1391
1.0984
1.0576
0.99904
0.95064
0.8946
0.8462
0.79526
0.75705
0.72903
0.68318
0.66026
0.63478
0.61186
0.58638
0.5762
0.56855
0.55072
0.53544
0.53544
0.53034
0.5227
0.52016
0.51761
0.52016
0.51506
0.51506
0.51506
0.51506
0.50997
0.5227
0.5278
0.52016
0.5227
0.54053
0.54818
0.55327
0.5711
0.63733
0.72139
0.82837
0.94555
1.0372
1.1315
1.1875
1.2105
1.2181
1.1875
1.1519
1.0856
1.0322
0.97357
0.91498
0.86404
0.808
0.76215
0.73413
0.68318
0.65516
0.63224
0.60167
0.58129
0.56601
0.54818
0.53799
0.5227
0.51761
0.49978
0.50232
0.49978
0.50742
0.48959
0.48704
0.49978
0.49723
0.48959
0.49723
0.50487
0.50997
0.50997
0.5227
0.5227
0.53034
0.55072
0.56855
0.62714
0.72139
0.82073
0.92517
1.0169
1.0806
1.1391
1.1493
1.1417
1.1162
1.0882
1.0271
0.97357
0.92772
0.87932
0.82583
0.78252
0.74177
0.70356
0.6628
0.63478
0.6144
0.59403
0.58129
0.55072
0.54563
0.5278
0.53289
0.51506
0.52016
0.50997
0.50742
0.50997
0.51251
0.51761
0.50742
0.51251
0.52016
0.51506
0.51761
0.51761
0.52525
0.53544
0.54053
0.56091
0.59657
0.67554
0.78252
0.89206
0.9863
1.0678
1.1315
1.1544
1.1621
1.1468
1.1111
1.0602
1.0041
0.9481
0.90734
0.84366
0.81054
0.76469
0.72648
0.69846
0.67044
0.62969
0.60676
0.59148
0.57365
0.55072
0.54563
0.54053
0.52525
0.5227
0.50742
0.51761
0.51761
0.51251
0.50997
0.50997
0.50997
0.51251
0.51251
0.51761
0.52016
0.52525
0.52525
0.54308
0.55327
0.61186
0.70356
0.79781
0.91753
1.0092
1.0882
1.1468
1.1646
1.1646
1.1366
1.1035
1.0474
0.99395
0.93281
0.88696
0.8462
0.79781
0.74431
0.71375
0.68318
0.63988
0.62205
0.59912
0.57365
0.56346
0.54563
0.53289
0.53034
0.50997
0.50997
0.50997
0.50487
0.49723
0.49978
0.49723
0.49978
0.50742
0.50997
0.50997
0.50997
0.51506
0.52016
0.53034
0.53544
0.54818
0.56346
0.6195
0.70865
0.81819
0.93536
1.0347
1.1188
1.1824
1.2105
1.2079
1.1799
1.134
1.0882
1.0245
0.96847
0.91243
0.85894
0.81564
0.75705
0.72139
0.68318
0.65007
0.62205
0.60167
0.57365
0.55582
0.53799
0.5227
0.52525
0.51251
0.50742
0.49468
0.48704
0.48449
0.48195
0.48704
0.49468
0.49723
0.48959
0.49468
0.49214
0.50232
0.51506
0.52016
0.5227
0.52525
0.54818
0.58129
0.65261
0.7545
0.87168
0.96593
1.0551
1.1188
1.1646
1.1748
1.1595
1.129
1.0755
1.022
0.96847
0.90989
0.86149
0.8029
0.76979
0.72394
0.68063
0.65261
0.6195
0.59403
0.58638
0.55582
0.54308
0.53799
0.52525
0.51251
0.50997
0.50487
0.49978
0.50232
0.49978
0.49468
0.50997
0.49978
0.49978
0.50997
0.50997
0.5227
0.51251
0.5278
0.53544
0.55072
0.57365
0.65007
0.74177
0.86149
0.96083
1.0474
1.1137
1.1493
1.1621
1.1442
1.1137
1.078
1.0245
0.96338
0.90224
0.8513
0.81054
0.76469
0.72139
0.68318
0.64752
0.6195
0.59403
0.58893
0.55836
0.55072
0.54563
0.53034
0.51506
0.5227
0.50997
0.50742
0.50487
0.49978
0.50232
0.50487
0.50997
0.50742
0.50997
0.50997
0.51761
0.51506
0.5278
0.54563
0.55836
0.58384
0.6679
0.77743
0.88187
0.9914
1.0856
1.1519
1.1824
1.2003
1.1723
1.1391
1.0958
1.0372
0.98885
0.92517
0.86404
0.82328
0.77233
0.71629
0.68573
0.65007
0.6144
0.59912
0.58129
0.55582
0.54053
0.54053
0.5227
0.52016
0.50487
0.50997
0.50487
0.50232
0.49978
0.50232
0.48959
0.48959
0.49978
0.50742
0.50997
0.50742
0.50232
0.51506
0.5227
0.53034
0.53799
0.57365
0.6628
0.76215
0.87677
0.9914
1.0755
1.1595
1.1901
1.213
1.2003
1.1646
1.1162
1.0678
0.99649
0.93791
0.88441
0.82583
0.77233
0.73413
0.69337
0.66026
0.62714
0.59912
0.57874
0.56346
0.55327
0.53289
0.5278
0.51251
0.50487
0.49978
0.49468
0.48959
0.48704
0.49214
0.49978
0.49978
0.50487
0.49468
0.50997
0.49978
0.51251
0.51761
0.5227
0.53544
0.54563
0.5711
0.63988
0.73922
0.8462
0.95828
1.0423
1.1162
1.1544
1.1748
1.1697
1.1315
1.0856
1.0322
0.97612
0.91498
0.86149
0.81564
0.76979
0.72139
0.69592
0.6628
0.62714
0.60931
0.58384
0.56346
0.55836
0.54053
0.53544
0.52016
0.51506
0.50487
0.50742
0.50487
0.50997
0.50487
0.49468
0.50742
0.50997
0.51251
0.50997
0.51506
0.50997
0.5227
0.54053
0.55072
0.58893
0.67044
0.76469
0.87422
0.97102
1.0551
1.1137
1.1468
1.1544
1.1315
1.1009
1.0653
1.0067
0.95319
0.8997
0.84111
0.80545
0.74941
0.7112
0.68318
0.64242
0.62714
0.59912
0.58638
0.56091
0.55836
0.54053
0.53034
0.52016
0.51506
0.51761
0.50997
0.50742
0.51251
0.50742
0.50232
0.50997
0.50997
0.51251
0.50742
0.5227
0.51761
0.52525
0.53034
0.56346
0.62205
0.72394
0.82583
0.94045
1.0372
1.1162
1.1646
1.1824
1.1875
1.1544
1.1035
1.0602
0.99649
0.93536
0.88696
0.83602
0.79017
0.73413
0.68827
0.66026
0.62714
0.59657
0.58893
0.56091
0.54563
0.54053
0.53544
0.51761
0.50742
0.51506
0.50487
0.49468
0.49214
0.49214
0.49214
0.49468
0.50487
0.50232
0.51251
0.5227
0.5278
0.5227
0.53034
0.53034
0.55582
0.59912
0.69082
0.79526
0.91243
1.0118
1.106
1.1646
1.2003
1.2028
1.1901
1.1417
1.0882
1.0347
0.97357
0.90734
0.85894
0.8029
0.76469
0.7112
0.67554
0.64242
0.60676
0.59148
0.56855
0.54563
0.53034
0.52525
0.51761
0.51251
0.49978
0.49214
0.49468
0.49978
0.49978
0.49468
0.49468
0.49214
0.49978
0.50487
0.50997
0.50742
0.50487
0.50997
0.5227
0.5278
0.56091
0.6144
0.70611
0.81564
0.92008
1.0169
1.0856
1.1391
1.1697
1.1646
1.1391
1.1035
1.0423
0.9863
0.93026
0.88441
0.82837
0.78252
0.73922
0.69592
0.67044
0.63988
0.60931
0.59403
0.5711
0.55072
0.54053
0.53289
0.5278
0.51251
0.51251
0.49468
0.49468
0.49214
0.49978
0.49978
0.50487
0.50742
0.51761
0.51251
0.51251
0.53034
0.5278
0.54053
0.55582
0.60167
0.70101
0.79526
0.90224
0.99649
1.0755
1.1264
1.1595
1.157
1.129
1.0882
1.0372
0.9863
0.93281
0.87168
0.82837
0.78507
0.74431
0.70101
0.66535
0.64242
0.61695
0.59657
0.58129
0.55836
0.54563
0.53799
0.52525
0.52016
0.51506
0.50997
0.49214
0.49978
0.50487
0.49978
0.50487
0.50232
0.50232
0.49723
0.50997
0.51761
0.51761
0.5278
0.55327
0.59912
0.68318
0.79526
0.91498
1.0245
1.1111
1.1621
1.1926
1.1901
1.1672
1.1315
1.0729
1.0271
0.95828
0.89206
0.84366
0.79781
0.75196
0.7112
0.6679
0.62714
0.60676
0.57874
0.55836
0.54563
0.53544
0.52016
0.51761
0.49723
0.50232
0.48704
0.48959
0.48704
0.48704
0.49468
0.48959
0.49468
0.49723
0.49468
0.51251
0.50997
0.51506
0.5278
0.5227
0.55072
0.58384
0.66535
0.76724
0.89206
1.0016
1.0907
1.1544
1.2105
1.2181
1.2028
1.1646
1.1137
1.0576
0.99395
0.92517
0.87677
0.808
0.76469
0.72394
0.68063
0.64497
0.6144
0.58893
0.56091
0.55327
0.54563
0.52016
0.51761
0.50997
0.49978
0.48959
0.49214
0.49214
0.48704
0.49214
0.49978
0.49978
0.49978
0.50742
0.50742
0.50742
0.52016
0.51251
0.52016
0.53034
0.55327
0.60676
0.69337
0.81054
0.90989
1.022
1.1035
1.1493
1.1875
1.1824
1.1595
1.1086
1.0602
1.0118
0.94555
0.89206
0.83092
0.79526
0.73922
0.7112
0.6679
0.63733
0.61695
0.58893
0.55836
0.54818
0.53034
0.51506
0.50997
0.49723
0.50487
0.49468
0.49468
0.49978
0.50232
0.49214
0.50742
0.49723
0.50742
0.51251
0.51506
0.51761
0.51506
0.5278
0.53289
0.5762
0.65516
0.75196
0.85385
0.96083
1.0398
1.1086
1.1519
1.1519
1.1493
1.1111
1.0704
1.0067
0.95828
0.89715
0.84366
0.8029
0.74686
0.7112
0.68318
0.64242
0.6144
0.60167
0.5711
0.55836
0.54563
0.53799
0.52525
0.52016
0.5227
0.51761
0.50742
0.50487
0.51251
0.50997
0.50487
0.50997
0.50997
0.50997
0.51506
0.51251
0.52525
0.53034
0.54563
0.56855
0.62714
0.72394
0.83602
0.9481
1.05
1.1188
1.1824
1.1926
1.2003
1.1621
1.1213
1.0704
1.0067
0.95064
0.89715
0.83856
0.77998
0.73413
0.70611
0.6628
0.63224
0.59912
0.5762
0.55072
0.54563
0.5227
0.50997
0.50742
0.49723
0.49214
0.49723
0.48959
0.49468
0.48959
0.48449
0.49978
0.48959
0.50232
0.50997
0.49978
0.51506
0.51251
0.50997
0.51761
0.53544
0.5711
0.65771
0.77488
0.88441
0.9914
1.0882
1.1468
1.185
1.2028
1.1773
1.1442
1.0984
1.0398
0.97866
0.92517
0.86913
0.81309
0.76724
0.71884
0.68063
0.65007
0.62714
0.59912
0.5762
0.55836
0.54053
0.53034
0.51251
0.51251
0.50742
0.49978
0.49978
0.49468
0.49978
0.49978
0.50487
0.49468
0.49723
0.50997
0.51251
0.51761
0.51506
0.51251
0.5278
0.54308
0.56601
0.6195
0.71884
0.83602
0.93281
1.0372
1.0958
1.1442
1.1697
1.1595
1.1239
1.0882
1.0347
0.97866
0.93026
0.87677
0.82583
0.77233
0.74177
0.70611
0.6628
0.63478
0.60931
0.58638
0.56091
0.55072
0.54053
0.52525
0.53034
0.52525
0.51761
0.51251
0.50487
0.51761
0.51251
0.52016
0.51506
0.5227
0.52525
0.51251
0.53034
0.5278
0.53799
0.54053
0.55582
0.6195
0.70865
0.81309
0.91753
1.0067
1.0678
1.1213
1.1391
1.1366
1.0984
1.0602
1.0143
0.97102
0.91498
0.87168
0.81564
0.77743
0.73922
0.70356
0.67299
0.64242
0.60931
0.59657
0.5711
0.55582
0.54308
0.53544
0.52525
0.52525
0.51761
0.50997
0.51251
0.50487
0.49723
0.50232
0.50742
0.51251
0.51251
0.51506
0.51251
0.53034
0.52525
0.54563
0.56346
0.63224
0.73158
0.84875
0.94555
1.0449
1.1213
1.1621
1.185
1.1799
1.157
1.1111
1.0627
0.99904
0.93536
0.88951
0.82583
0.78252
0.73413
0.69337
0.65261
0.62714
0.59912
0.5762
0.55582
0.54563
0.5278
0.51506
0.50742
0.50232
0.48959
0.48704
0.48704
0.48704
0.4794
0.48449
0.48704
0.49468
0.48704
0.49723
0.49978
0.49978
0.51251
0.5278
0.53289
0.56091
0.62459
0.72139
0.84111
0.93536
1.0347
1.1137
1.1723
1.1875
1.2003
1.1595
1.1162
1.0678
1.0041
0.95064
0.89206
0.83602
0.78252
0.73922
0.70611
0.67044
0.63988
0.60167
0.58384
0.56346
0.55072
0.53034
0.51251
0.51761
0.49723
0.50487
0.48704
0.49723
0.49468
0.48195
0.49214
0.48959
0.48959
0.49468
0.49978
0.50487
0.50997
0.51761
0.52525
0.53289
0.56091
0.62205
0.70356
0.82583
0.93536
1.0296
1.0933
1.1493
1.1773
1.1621
1.1391
1.1035
1.0423
0.98885
0.93281
0.87932
0.82583
0.77998
0.73158
0.69592
0.65516
0.63224
0.61186
0.58893
0.56091
0.55327
0.5278
0.53034
0.51251
0.51506
0.50997
0.48959
0.49468
0.49214
0.49214
0.50232
0.49723
0.50487
0.49723
0.50742
0.51251
0.52016
0.53034
0.54818
0.59148
0.67554
0.78507
0.88951
0.98885
1.0678
1.1137
1.1417
1.1544
1.1213
1.0958
1.0398
0.98885
0.93281
0.88696
0.82583
0.77488
0.73922
0.70356
0.66026
0.63733
0.61186
0.59403
0.56855
0.55072
0.53034
0.52525
0.50997
0.51506
0.50487
0.50997
0.50487
0.50232
0.49723
0.50232
0.50997
0.50742
0.51761
0.51506
0.50997
0.52525
0.53034
0.53034
0.55582
0.61186
0.71629
0.83602
0.95319
1.0576
1.1417
1.1952
1.2181
1.2232
1.1926
1.1493
1.1009
1.0347
0.97102
0.91498
0.85385
0.8029
0.75196
0.7112
0.65516
0.62969
0.59657
0.5711
0.55072
0.5278
0.51251
0.50997
0.49468
0.48959
0.49723
0.4794
0.4794
0.48449
0.4794
0.48449
0.4794
0.48449
0.48195
0.49214
0.48959
0.50742
0.50742
0.51506
0.5227
0.56855
0.64752
0.75196
0.87677
0.9863
1.0729
1.1417
1.185
1.2003
1.1824
1.1468
1.0882
1.0347
0.97357
0.92008
0.85639
0.81309
0.75705
0.70611
0.67809
0.62969
0.60676
0.5762
0.55836
0.53034
0.52016
0.51506
0.50742
0.48704
0.48959
0.48449
0.48704
0.48449
0.48959
0.48959
0.48195
0.4794
0.49214
0.48704
0.49978
0.49978
0.50997
0.50997
0.52525
0.55072
0.60676
0.71375
0.82583
0.943
1.0525
1.129
1.1824
1.2105
1.2105
1.1875
1.1315
1.0882
1.022
0.95828
0.88696
0.83347
0.77998
0.72394
0.68827
0.65516
0.61695
0.58638
0.56601
0.54563
0.53034
0.52525
0.50742
0.50997
0.49723
0.49214
0.48449
0.48704
0.48959
0.48449
0.48704
0.49978
0.50742
0.50487
0.49978
0.50487
0.50997
0.52525
0.54563
0.59403
0.69082
0.79526
0.90734
1.0041
1.0831
1.1417
1.1621
1.157
1.1239
1.0831
1.0423
0.97612
0.91753
0.87168
0.82328
0.77998
0.72394
0.69337
0.65261
0.63478
0.59403
0.58384
0.55327
0.54818
0.52525
0.50997
0.50487
0.50232
0.49468
0.49468
0.50232
0.48704
0.49214
0.48959
0.48704
0.49723
0.49978
0.49978
0.50742
0.50997
0.52525
0.55072
0.61695
0.72139
0.84875
0.96083
1.0653
1.1417
1.2105
1.2257
1.2207
1.1901
1.1493
1.0882
1.022
0.95064
0.89715
0.83602
0.79017
0.72903
0.68827
0.64497
0.61695
0.58638
0.55582
0.53544
0.51251
0.49978
0.49214
0.48959
0.48195
0.48704
0.47685
0.46921
0.47176
0.48195
0.47685
0.47685
0.4794
0.48195
0.47685
0.49723
0.49468
0.50487
0.51251
0.54053
0.59912
0.70611
0.82583
0.9481
1.0576
1.129
1.1926
1.213
1.2079
1.1901
1.1391
1.0806
1.0169
0.95064
0.89715
0.84111
0.78252
0.73667
0.69082
0.65261
0.61695
0.59403
0.56346
0.54818
0.51761
0.50997
0.49723
0.48959
0.48195
0.46921
0.46921
0.46157
0.46157
0.46921
0.4794
0.46921
0.47431
0.47685
0.47431
0.48704
0.50232
0.49723
0.51761
0.54563
0.60676
0.71629
0.83602
0.9481
1.0551
1.1391
1.1926
1.213
1.2028
1.1773
1.1264
1.0653
0.99395
0.93791
0.88696
0.83092
0.77233
0.72139
0.68827
0.65007
0.6144
0.59148
0.56601
0.54818
0.53034
0.5227
0.50997
0.49214
0.49214
0.48959
0.4794
0.46921
0.48195
0.4794
0.48195
0.48704
0.49214
0.49723
0.49978
0.49978
0.52016
0.53289
0.58893
0.68063
0.79017
0.91753
1.0194
1.0933
1.1595
1.1824
1.1799
1.1519
1.1009
1.0576
0.99904
0.93026
0.86658
0.81564
0.76724
0.72139
0.68573
0.63988
0.61186
0.59148
0.56601
0.54053
0.52525
0.51761
0.51251
0.49978
0.49978
0.48959
0.48195
0.48704
0.4794
0.48704
0.48959
0.48704
0.48959
0.49468
0.50487
0.50232
0.51761
0.51761
0.54053
0.60676
0.70611
0.83347
0.96593
1.0755
1.1595
1.2283
1.2487
1.2538
1.2232
1.1799
1.1111
1.0372
0.97357
0.91243
0.84875
0.78507
0.73158
0.69337
0.65261
0.60422
0.57874
0.55327
0.5278
0.50742
0.50232
0.48704
0.4794
0.46666
0.47176
0.47176
0.46921
0.46412
0.46666
0.46157
0.46666
0.47431
0.47176
0.47685
0.48195
0.48704
0.48704
0.51761
0.55327
0.63988
0.7596
0.88441
0.99904
1.1009
1.1595
1.1977
1.2079
1.2003
1.157
1.1009
1.0423
0.97357
0.90479
0.84366
0.8029
0.74431
0.70611
0.6628
0.62969
0.59148
0.55836
0.54053
0.5227
0.50997
0.50487
0.49723
0.48959
0.4794
0.48959
0.48704
0.48449
0.4794
0.48449
0.4794
0.4794
0.48959
0.49723
0.49723
0.49978
0.50487
0.51761
0.54818
0.61186
0.71884
0.83856
0.96338
1.0678
1.1417
1.2003
1.2207
1.2079
1.1824
1.1239
1.0602
0.99904
0.94555
0.87677
0.81054
0.76215
0.7112
0.67044
0.62969
0.59912
0.57365
0.55072
0.53289
0.51251
0.50742
0.49723
0.49723
0.48959
0.48959
0.48959
0.48449
0.47685
0.47176
0.47685
0.47685
0.48449
0.49214
0.49978
0.50487
0.52016
0.54053
0.59403
0.69082
0.808
0.92262
1.0245
1.0958
1.1621
1.1875
1.1672
1.1417
1.0907
1.0398
0.98376
0.92008
0.86658
0.808
0.75196
0.71629
0.67554
0.63224
0.60931
0.58129
0.55327
0.54308
0.53034
0.50997
0.50232
0.48959
0.48959
0.49468
0.48959
0.47685
0.47685
0.47685
0.48959
0.48704
0.48959
0.49468
0.49468
0.50487
0.51761
0.53544
0.60931
0.71629
0.83092
0.95319
1.0627
1.1493
1.2156
1.2436
1.2359
1.2105
1.1519
1.0933
1.0296
0.95319
0.89715
0.83347
0.77488
0.73158
0.68063
0.64242
0.60676
0.5762
0.55072
0.5227
0.51506
0.49978
0.48704
0.46666
0.47176
0.46921
0.46157
0.45902
0.46921
0.46412
0.47176
0.46412
0.4794
0.47685
0.48195
0.48704
0.49214
0.50487
0.52016
0.56855
0.67299
0.79526
0.92772
1.0398
1.129
1.1875
1.2232
1.2308
1.2105
1.1672
1.1188
1.0474
0.97866
0.91498
0.85639
0.78762
0.73413
0.69082
0.65261
0.62205
0.59148
0.55327
0.54053
0.51506
0.50232
0.49214
0.48449
0.46666
0.46921
0.47176
0.46412
0.46666
0.47431
0.46921
0.47176
0.48195
0.48959
0.48195
0.49468
0.49978
0.51251
0.51251
0.55582
0.63224
0.75196
0.87422
0.9914
1.0933
1.1621
1.2105
1.2207
1.2028
1.1621
1.106
1.0525
0.9863
0.92262
0.86658
0.79526
0.74686
0.69592
0.65516
0.61695
0.59148
0.56091
0.53544
0.5227
0.51251
0.49468
0.48449
0.48704
0.48195
0.47431
0.4794
0.47431
0.47685
0.47685
0.47685
0.48449
0.48449
0.48959
0.49978
0.49978
0.51251
0.55072
0.6195
0.73922
0.85639
0.96847
1.0474
1.1213
1.1621
1.1697
1.1544
1.1188
1.0755
1.0169
0.96338
0.8946
0.84875
0.79271
0.75196
0.70611
0.6628
0.62714
0.59657
0.5711
0.55582
0.53544
0.5278
0.50997
0.49468
0.48704
0.48449
0.48449
0.48195
0.48704
0.48959
0.48704
0.48195
0.49468
0.49214
0.48959
0.49468
0.50487
0.52016
0.54818
0.62459
0.73922
0.86658
0.97612
1.0755
1.1519
1.2003
1.2257
1.2079
1.1773
1.1213
1.0627
1.0041
0.93536
0.87168
0.82073
0.75705
0.71375
0.67554
0.63733
0.59912
0.5711
0.56091
0.54053
0.51251
0.50742
0.49978
0.48195
0.48704
0.47176
0.47685
0.46921
0.46921
0.47431
0.46921
0.48449
0.48449
0.48195
0.49468
0.50742
0.51251
0.51251
0.55327
0.6144
0.71375
0.84366
0.96083
1.0653
1.1468
1.1901
1.2207
1.2105
1.1773
1.1239
1.078
1.0092
0.94555
0.88951
0.83092
0.76469
0.72903
0.67554
0.62714
0.59403
0.58129
0.55836
0.53289
0.50997
0.50742
0.48959
0.49214
0.48704
0.4794
0.47685
0.47685
0.47176
0.48449
0.47176
0.4794
0.48704
0.48449
0.4794
0.49723
0.49723
0.50487
0.52016
0.56601
0.65007
0.76724
0.8946
0.99904
1.1009
1.1595
1.2079
1.2028
1.1952
1.1468
1.1009
1.0296
0.96847
0.90734
0.84111
0.79781
0.73667
0.68827
0.65261
0.62459
0.59403
0.56601
0.54308
0.52016
0.51761
0.50487
0.49723
0.49214
0.49468
0.48704
0.49214
0.49214
0.49723
0.48959
0.49468
0.48959
0.49214
0.50742
0.50487
0.50997
0.51506
0.52016
0.55836
0.61695
0.72648
0.84111
0.96593
1.0576
1.1264
1.1799
1.1926
1.1799
1.1519
1.1009
1.0372
0.97612
0.91498
0.85639
0.80545
0.7545
0.70356
0.67299
0.63478
0.60422
0.58129
0.56091
0.54308
0.52016
0.51761
0.50487
0.49978
0.49978
0.49723
0.48959
0.48195
0.48449
0.49468
0.48959
0.49468
0.49978
0.50487
0.50232
0.50997
0.51761
0.56091
0.62969
0.74177
0.84875
0.95064
1.0525
1.1137
1.157
1.1748
1.1519
1.1239
1.0627
1.0092
0.95064
0.89206
0.84366
0.79271
0.74686
0.69592
0.66026
0.62714
0.59657
0.5711
0.56346
0.54053
0.53034
0.51761
0.50487
0.49978
0.49468
0.49214
0.48959
0.49468
0.49214
0.48959
0.49214
0.49214
0.49723
0.49723
0.49978
0.50742
0.51251
0.5278
0.55072
0.62969
0.74177
0.86404
0.98885
1.0958
1.1748
1.2359
1.269
1.2538
1.2334
1.1672
1.1162
1.0423
0.97102
0.90734
0.84366
0.77998
0.72648
0.67299
0.64497
0.60167
0.57365
0.54818
0.54053
0.51251
0.51251
0.48704
0.49214
0.47176
0.47431
0.47685
0.47431
0.47431
0.46666
0.46412
0.46666
0.46412
0.47176
0.48195
0.48449
0.49214
0.49723
0.5278
0.56091
0.65261
0.77233
0.8997
0.99904
1.0856
1.1417
1.1875
1.1926
1.1621
1.1264
1.0729
1.0143
0.95319
0.89206
0.83092
0.78507
0.74431
0.69337
0.6628
0.6195
0.58638
0.57365
0.54818
0.53544
0.53034
0.51251
0.50487
0.48959
0.48449
0.48704
0.48704
0.48449
0.47685
0.49214
0.4794
0.49468
0.49214
0.49723
0.49723
0.50232
0.50997
0.52016
0.55327
0.63988
0.75196
0.87168
0.98376
1.078
1.1544
1.1952
1.213
1.1926
1.1621
1.0984
1.05
0.98885
0.92772
0.86404
0.81054
0.7596
0.71375
0.67299
0.63224
0.60931
0.58893
0.56346
0.54818
0.5278
0.51761
0.50232
0.48959
0.47685
0.47431
0.47685
0.46921
0.48195
0.4794
0.47685
0.48704
0.48704
0.49723
0.50487
0.50487
0.5227
0.54563
0.62459
0.72903
0.84875
0.94555
1.05
1.1162
1.1595
1.1723
1.1595
1.1239
1.078
1.0118
0.95574
0.88696
0.83602
0.77998
0.73667
0.69082
0.65516
0.62969
0.60167
0.56855
0.55327
0.53034
0.51761
0.52016
0.50997
0.49468
0.49214
0.49214
0.49468
0.48449
0.49468
0.49468
0.49723
0.49978
0.50742
0.50997
0.51251
0.51506
0.5278
0.56346
0.64752
0.7596
0.87932
0.98885
1.0856
1.157
1.1977
1.2207
1.2028
1.1621
1.1086
1.0474
0.98376
0.91753
0.85894
0.79526
0.75196
0.70611
0.6679
0.62205
0.60167
0.57874
0.55072
0.5278
0.51761
0.49978
0.49468
0.48449
0.48195
0.47431
0.46666
0.47685
0.46157
0.46921
0.46921
0.4794
0.47685
0.48449
0.48449
0.49468
0.50487
0.50997
0.56091
0.62969
0.74941
0.87932
0.99649
1.0958
1.157
1.2079
1.2207
1.2079
1.1646
1.1213
1.0576
0.98885
0.93281
0.86404
0.81054
0.7545
0.70101
0.65261
0.63224
0.59403
0.5711
0.54818
0.53034
0.51506
0.50997
0.48959
0.48704
0.4794
0.47176
0.48195
0.47176
0.47176
0.48449
0.47431
0.4794
0.48195
0.48959
0.49978
0.50742
0.50997
0.51506
0.55072
0.62205
0.72903
0.85639
0.96847
1.0627
1.1442
1.2003
1.213
1.2003
1.1723
1.1162
1.0551
0.9863
0.92517
0.87422
0.81054
0.75705
0.7112
0.6679
0.63224
0.59657
0.5711
0.55582
0.53289
0.51506
0.50742
0.49468
0.48704
0.48959
0.48704
0.48959
0.48195
0.48449
0.47431
0.48704
0.48704
0.47685
0.47685
0.48959
0.49214
0.49723
0.51761
0.55836
0.64497
0.7596
0.88441
0.98121
1.0755
1.1442
1.1799
1.1952
1.1723
1.129
1.0831
1.0169
0.96338
0.90479
0.8462
0.79781
0.74431
0.69337
0.66026
0.62714
0.59657
0.5711
0.55582
0.54053
0.52016
0.51251
0.50487
0.48959
0.48959
0.48704
0.47685
0.4794
0.48959
0.48449
0.48704
0.49468
0.48959
0.49723
0.49723
0.50742
0.53544
0.58129
0.6628
0.78507
0.88696
1.0016
1.0806
1.1468
1.185
1.1824
1.1646
1.1162
1.0602
0.99904
0.943
0.87677
0.81564
0.76979
0.71629
0.68827
0.64242
0.61695
0.59403
0.55836
0.54818
0.53034
0.52016
0.50487
0.50232
0.48449
0.48704
0.48449
0.48195
0.48959
0.49214
0.48449
0.49723
0.49468
0.48959
0.49978
0.49723
0.50487
0.50742
0.52525
0.56601
0.64752
0.76979
0.88951
