1.1926
1.1875
1.1621
1.1162
1.0474
0.99904
0.94045
0.87677
0.81819
0.77743
0.73158
0.68573
0.65261
0.6195
0.59148
0.56601
0.54563
0.53544
0.53034
0.52016
0.51251
0.50742
0.50487
0.49723
0.49214
0.50232
0.49723
0.48959
0.49723
0.49468
0.50997
0.51761
0.5278
0.53544
0.56855
0.64497
0.74431
0.85385
0.96847
1.0602
1.1315
1.1595
1.1646
1.1544
1.1086
1.0627
0.99904
0.943
0.88441
0.83347
0.78507
0.72903
0.69846
0.6628
0.6195
0.59912
0.56855
0.56091
0.53799
0.5278
0.51251
0.50997
0.49723
0.49468
0.48449
0.48704
0.47176
0.48195
0.47685
0.4794
0.4794
0.48704
0.49214
0.49723
0.50742
0.53034
0.56346
0.62714
0.72903
0.81819
0.92517
0.99904
1.0576
1.078
1.0653
1.0551
1.0041
0.96847
0.92008
0.87677
0.82328
0.77488
0.73922
0.70101
0.66026
0.62459
0.60676
0.5711
0.55582
0.54053
0.52016
0.50487
0.50487
0.48959
0.49214
0.47685
0.48959
0.48704
0.48195
0.48959
0.48959
0.49214
0.49468
0.50487
0.51761
0.5278
0.55327
0.5711
0.61186
0.66026
0.73413
0.79017
0.84366
0.88441
0.89715
0.89206
0.88951
0.88187
0.85894
0.83092
0.81054
0.77233
0.75196
0.73158
0.70356
0.68573
0.67044
0.6628
0.64242
0.63224
0.62205
0.6144
0.61695
0.60167
0.60422
0.60167
0.59403
0.60676
0.60676
0.59912
0.60422
0.60167
0.59912
0.60422
0.6144
0.61186
0.62714
0.63988
0.68827
0.7596
0.8513
0.93791
1.0169
1.0831
1.1366
1.1391
1.1391
1.1111
1.0755
1.0296
0.98376
0.93536
0.88696
0.84111
0.80035
0.7596
0.71884
0.69337
0.65771
0.63224
0.61695
0.59148
0.58384
0.5711
0.55582
0.55582
0.54308
0.54563
0.54053
0.54053
0.54818
0.54053
0.54563
0.54053
0.54053
0.54308
0.54818
0.55836
0.58129
0.63988
0.74177
0.85894
0.97612
1.0704
1.1519
1.2054
1.2308
1.2207
1.1901
1.129
1.0678
1.0092
0.9481
0.89206
0.83347
0.78252
0.73413
0.68827
0.64497
0.62205
0.59148
0.57365
0.54563
0.54053
0.51761
0.50997
0.50487
0.48704
0.49214
0.48195
0.48959
0.4794
0.48959
0.48959
0.49214
0.48959
0.50232
0.51506
0.53034
0.54818
0.58638
0.66535
0.77233
0.8946
0.99395
1.0882
1.1544
1.1901
1.1875
1.1672
1.1162
1.0653
1.0092
0.94045
0.87932
0.82583
0.77488
0.72139
0.68063
0.64242
0.60931
0.57874
0.55327
0.53289
0.50997
0.50487
0.49214
0.48449
0.47431
0.47685
0.47431
0.46921
0.47176
0.4794
0.4794
0.47685
0.48195
0.49214
0.49978
0.50997
0.52016
0.54308
0.58129
0.6628
0.76469
0.86658
0.9863
1.0678
1.1239
1.1519
1.1493
1.1162
1.0755
1.0194
0.96593
0.90224
0.84366
0.78252
0.74431
0.69082
0.64497
0.62205
0.58638
0.56601
0.54308
0.52525
0.51761
0.49978
0.49214
0.48195
0.47176
0.47685
0.47431
0.46412
0.46157
0.46921
0.46921
0.46921
0.48449
0.48195
0.48449
0.49468
0.50487
0.51761
0.53544
0.58129
0.65007
0.71629
0.8029
0.85894
0.92008
0.93536
0.943
0.93026
0.92008
0.88696
0.8513
0.82328
0.79526
0.75705
0.72139
0.70356
0.67809
0.6628
0.63224
0.62205
0.61186
0.59403
0.58893
0.58129
0.57365
0.57365
0.55836
0.56601
0.55582
0.55582
0.56346
0.55582
0.56091
0.56091
0.56346
0.56601
0.57874
0.58129
0.58893
0.60167
0.62714
0.67299
0.73413
0.79781
0.86913
0.90734
0.94555
0.95574
0.94045
0.92008
0.90989
0.87677
0.84366
0.82583
0.79017
0.76979
0.74686
0.71629
0.70356
0.68063
0.67299
0.65007
0.64752
0.63733
0.61695
0.6195
0.61186
0.60422
0.6144
0.61186
0.60676
0.60422
0.61695
0.60422
0.60676
0.61186
0.62205
0.62205
0.62459
0.63733
0.6628
0.73413
0.81309
0.92517
1.0271
1.1111
1.185
1.2181
1.2232
1.2079
1.1723
1.1213
1.0627
1.0118
0.943
0.89715
0.84366
0.79017
0.75196
0.71629
0.67299
0.63478
0.61186
0.58129
0.5711
0.54818
0.53289
0.51251
0.51761
0.49978
0.49978
0.49723
0.49978
0.49214
0.49978
0.49978
0.50487
0.50487
0.50997
0.51251
0.5227
0.55582
0.60167
0.69846
0.80035
0.91498
1.0016
1.0755
1.134
1.1417
1.129
1.1035
1.0525
0.99904
0.94045
0.88187
0.82583
0.77233
0.72394
0.68318
0.64752
0.61186
0.59148
0.55836
0.53034
0.51251
0.50487
0.48959
0.49214
0.48449
0.48195
0.47176
0.4794
0.48449
0.47685
0.49723
0.49723
0.49978
0.50742
0.51761
0.50997
0.52016
0.54563
0.56091
0.62714
0.70611
0.82073
0.91753
1.0041
1.0729
1.1111
1.1239
1.0984
1.0627
1.0194
0.96593
0.90989
0.86658
0.81054
0.76979
0.72903
0.69337
0.66026
0.63478
0.61186
0.59148
0.56855
0.55327
0.54053
0.53544
0.51761
0.51761
0.51251
0.51506
0.49978
0.50742
0.50232
0.50742
0.50742
0.51251
0.52016
0.53289
0.53289
0.54818
0.56855
0.60676
0.67044
0.74941
0.81564
0.88951
0.93791
0.96083
0.98121
0.96593
0.94045
0.91243
0.88441
0.85385
0.81819
0.77488
0.75705
0.72139
0.70356
0.68063
0.65261
0.64242
0.62205
0.59912
0.59148
0.58638
0.56855
0.56601
0.56855
0.56601
0.56855
0.56346
0.55327
0.55582
0.55582
0.55836
0.56601
0.56346
0.56346
0.5762
0.58893
0.60931
0.66026
0.74177
0.85385
0.95319
1.0347
1.0907
1.129
1.1519
1.1315
1.0984
1.0653
1.0169
0.96593
0.91753
0.86149
0.82583
0.78507
0.73667
0.70356
0.67044
0.64242
0.62205
0.60167
0.57874
0.56346
0.55836
0.55072
0.5278
0.5278
0.52525
0.52016
0.51506
0.5227
0.51761
0.52016
0.5278
0.51761
0.53799
0.54053
0.55072
0.57365
0.62714
0.71375
0.82073
0.943
1.0423
1.134
1.2003
1.2156
1.2207
1.1977
1.1468
1.0933
1.0245
0.96847
0.90224
0.8513
0.79271
0.75196
0.71375
0.66535
0.63478
0.60931
0.57874
0.56601
0.54053
0.53544
0.52525
0.51251
0.50487
0.48959
0.48959
0.49214
0.48704
0.48704
0.48704
0.49468
0.49468
0.49978
0.50232
0.49978
0.51251
0.5278
0.56091
0.64242
0.73413
0.83092
0.943
1.0194
1.078
1.1086
1.1035
1.0806
1.0449
1.0067
0.95319
0.8997
0.8513
0.80035
0.7545
0.72139
0.68318
0.65516
0.62714
0.60167
0.58129
0.56091
0.55582
0.54053
0.52525
0.51761
0.50997
0.50742
0.50232
0.49723
0.49723
0.49723
0.48959
0.49978
0.50742
0.49978
0.50997
0.52016
0.53034
0.53799
0.55836
0.59148
0.66026
0.74431
0.82583
0.8997
0.96338
0.98885
1.0016
0.9914
0.95319
0.93536
0.88441
0.84875
0.81309
0.76979
0.73158
0.70865
0.67299
0.64752
0.62205
0.6144
0.59148
0.57874
0.56601
0.55836
0.54818
0.54818
0.53289
0.53799
0.54563
0.53034
0.54308
0.54563
0.54053
0.54563
0.54563
0.54053
0.54563
0.56601
0.56346
0.58129
0.59657
0.63224
0.67299
0.71629
0.76979
0.81309
0.83092
0.84366
0.85385
0.83602
0.83092
0.808
0.8029
0.77743
0.7596
0.74686
0.72394
0.70356
0.69337
0.68063
0.66535
0.6628
0.63988
0.64242
0.63224
0.61695
0.62205
0.62714
0.60931
0.61186
0.62205
0.61186
0.6195
0.6195
0.62459
0.63224
0.62714
0.63988
0.63478
0.64752
0.67554
0.72139
0.80545
0.89715
0.9914
1.0806
1.1417
1.1977
1.2028
1.185
1.157
1.1213
1.0729
1.0143
0.95828
0.91753
0.85894
0.8029
0.76724
0.72903
0.69337
0.65516
0.64242
0.61186
0.58638
0.58384
0.56346
0.55327
0.55327
0.54053
0.53034
0.5278
0.53289
0.53289
0.53544
0.52525
0.54053
0.54308
0.54818
0.55072
0.56855
0.59148
0.65007
0.73922
0.86149
0.97866
1.0933
1.1723
1.2207
1.2436
1.2385
1.2028
1.1468
1.0856
1.0194
0.95574
0.87932
0.83347
0.77233
0.72394
0.68318
0.63733
0.60167
0.57874
0.54818
0.53544
0.50997
0.49723
0.48704
0.47176
0.47431
0.46412
0.46412
0.46666
0.47431
0.47685
0.47176
0.4794
0.48195
0.48195
0.49214
0.50487
0.50742
0.55327
0.60676
0.69592
0.808
0.93281
1.022
1.0882
1.1366
1.1519
1.1391
1.1009
1.0551
0.99395
0.93026
0.87422
0.83347
0.77998
0.72903
0.68573
0.65516
0.6195
0.59403
0.5711
0.54563
0.54053
0.52525
0.50997
0.49978
0.49214
0.48195
0.47685
0.46921
0.4794
0.47431
0.4794
0.46921
0.4794
0.48195
0.49468
0.49468
0.50742
0.51761
0.54818
0.59148
0.67554
0.77233
0.87932
0.95828
1.0372
1.0627
1.0806
1.0729
1.0271
0.9863
0.93791
0.89715
0.83856
0.8029
0.75196
0.7112
0.67044
0.63988
0.60931
0.58893
0.56601
0.54308
0.53289
0.5278
0.51506
0.49468
0.49978
0.49468
0.49468
0.49468
0.49723
0.49214
0.49723
0.50997
0.50487
0.51251
0.5278
0.54053
0.54818
0.56346
0.60167
0.6628
0.74177
0.82073
0.88187
0.92772
0.96083
0.95828
0.95319
0.92517
0.90479
0.87932
0.83856
0.80545
0.77998
0.74686
0.71629
0.69337
0.68063
0.64752
0.64497
0.63224
0.60931
0.60422
0.60167
0.58893
0.58638
0.5762
0.5762
0.56855
0.56601
0.5762
0.5711
0.5711
0.5711
0.5711
0.58129
0.58638
0.58893
0.60931
0.64242
0.72139
0.81564
0.92008
1.022
1.0984
1.1519
1.1723
1.1672
1.1519
1.1035
1.0602
1.0194
0.95319
0.8997
0.85639
0.808
0.75705
0.72139
0.69082
0.6679
0.62714
0.61186
0.58638
0.56855
0.55836
0.54053
0.53799
0.52525
0.51251
0.50742
0.51251
0.51506
0.50997
0.50487
0.51251
0.51761
0.5278
0.5227
0.53799
0.56346
0.59912
0.69082
0.808
0.94045
1.0525
1.1417
1.2181
1.2538
1.264
1.2308
1.185
1.134
1.0602
0.98885
0.92517
0.85639
0.80545
0.7596
0.70611
0.67044
0.62714
0.59403
0.5762
0.54563
0.52525
0.50997
0.50232
0.49214
0.48704
0.48195
0.47176
0.47176
0.47176
0.47685
0.4794
0.47431
0.47685
0.47431
0.48195
0.49214
0.49978
0.53544
0.59912
0.70611
0.81309
0.93791
1.0423
1.1239
1.1824
1.2028
1.1926
1.1417
1.0907
1.0372
0.97357
0.90224
0.8513
0.79781
0.73922
0.68063
0.63988
0.61695
0.57365
0.55072
0.5278
0.51251
0.49468
0.48449
0.46921
0.47431
0.46157
0.45393
0.46157
0.45902
0.46157
0.46412
0.46412
0.46666
0.47431
0.47176
0.47176
0.48959
0.50997
0.55072
0.63224
0.75705
0.87168
0.98121
1.0729
1.1264
1.157
1.157
1.1264
1.0856
1.0271
0.97612
0.92008
0.85894
0.80545
0.7545
0.7112
0.6679
0.63988
0.60931
0.57874
0.55836
0.53034
0.50997
0.49214
0.48959
0.4794
0.46412
0.45902
0.45647
0.45393
0.45393
0.45138
0.46412
0.46666
0.47176
0.47176
0.48704
0.50742
0.52016
0.5278
0.5762
0.62969
0.70865
0.79017
0.86404
0.91243
0.95574
0.96593
0.96083
0.943
0.91753
0.88441
0.84111
0.81309
0.77488
0.73667
0.7112
0.68573
0.6628
0.64752
0.62205
0.60676
0.59148
0.58129
0.56855
0.56601
0.55327
0.54053
0.54818
0.54563
0.55072
0.54053
0.54563
0.54053
0.55582
0.54818
0.55582
0.56346
0.56855
0.57365
0.60167
0.64497
0.71884
0.79526
0.88951
0.96847
1.0271
1.0704
1.0755
1.0602
1.0398
1.0067
0.96593
0.92008
0.87677
0.83602
0.79781
0.76469
0.72394
0.70356
0.67809
0.65516
0.63224
0.6195
0.59912
0.58638
0.56346
0.56091
0.54563
0.54818
0.54053
0.53034
0.5278
0.53289
0.53544
0.53034
0.53799
0.54308
0.55327
0.56601
0.5711
0.60676
0.66026
0.76724
0.87168
0.99395
1.0933
1.1799
1.2334
1.2589
1.2461
1.2054
1.1442
1.0907
1.0271
0.96338
0.90734
0.84366
0.78507
0.74431
0.70356
0.6628
0.63478
0.60422
0.58638
0.55582
0.54308
0.5227
0.51251
0.50997
0.49978
0.49468
0.48449
0.48959
0.49214
0.48959
0.48959
0.47685
0.47685
0.4794
0.48449
0.48959
0.50997
0.54308
0.62969
0.72139
0.84111
0.95574
1.0551
1.1239
1.1672
1.1697
1.1595
1.1213
1.078
1.0194
0.96847
0.92262
0.87168
0.81564
0.76469
0.72394
0.68318
0.63224
0.59912
0.55836
0.52525
0.49723
0.4794
0.46412
0.45138
0.44883
0.4361
0.431
0.42336
0.431
0.44119
0.4361
0.45902
0.46666
0.4794
0.49723
0.51506
0.51761
0.55072
0.59403
0.67299
0.76469
0.86658
0.97612
1.05
1.1086
1.1442
1.1417
1.1162
1.0729
1.0271
0.97357
0.93281
0.86913
0.82583
0.78762
0.73922
0.71375
0.67809
0.65771
0.62714
0.60931
0.59148
0.58129
0.56601
0.56855
0.54818
0.54563
0.53799
0.53544
0.5227
0.50997
0.52016
0.52016
0.51761
0.51251
0.51506
0.5278
0.51761
0.53544
0.55836
0.60931
0.67299
0.74941
0.83092
0.90224
0.95828
0.98885
0.98885
0.97612
0.95828
0.93026
0.90224
0.86149
0.82837
0.79271
0.76469
0.73413
0.70611
0.67044
0.65261
0.62969
0.60167
0.58384
0.56601
0.56601
0.54308
0.54053
0.53544
0.53799
0.5278
0.53034
0.53289
0.53544
0.53544
0.54563
0.54818
0.55582
0.56346
0.56601
0.58893
0.62969
0.69082
0.78762
0.88441
0.96593
1.0474
1.1009
1.1086
1.1086
1.078
1.0474
1.0041
0.95064
0.90734
0.86149
0.81819
0.77488
0.73158
0.70101
0.6679
0.64752
0.6144
0.58638
0.57365
0.55836
0.55072
0.53544
0.54053
0.53289
0.53289
0.52525
0.52525
0.52525
0.53034
0.53034
0.52525
0.54053
0.53799
0.54818
0.55072
0.5711
0.63733
0.73667
0.84875
0.95828
1.0704
1.157
1.1952
1.2232
1.2105
1.1773
1.129
1.0653
0.99904
0.943
0.87422
0.81309
0.7596
0.70865
0.66535
0.63478
0.60422
0.5762
0.55836
0.53544
0.52016
0.50997
0.49978
0.48959
0.49214
0.48959
0.48195
0.48449
0.48959
0.49723
0.48959
0.49723
0.49978
0.50487
0.51251
0.5227
0.55072
0.59912
0.68827
0.808
0.92008
1.0322
1.1188
1.1799
1.1926
1.185
1.157
1.1035
1.0474
0.98376
0.91498
0.86404
0.8029
0.74431
0.70611
0.66535
0.62205
0.59912
0.57874
0.55072
0.53034
0.51251
0.49978
0.48704
0.46921
0.46921
0.47685
0.46157
0.46921
0.47176
0.47176
0.47685
0.47176
0.48195
0.48449
0.48449
0.49978
0.52016
0.56091
0.64752
0.75196
0.86658
0.96847
1.0602
1.1239
1.157
1.1595
1.1315
1.0831
1.0296
0.97357
0.92008
0.85894
0.8029
0.7596
0.7112
0.67554
0.65261
0.63478
0.60931
0.58638
0.56855
0.56346
0.55072
0.53544
0.5227
0.51761
0.50487
0.48704
0.48704
0.48449
0.46921
0.46666
0.47685
0.4794
0.46921
0.48704
0.47685
0.49214
0.51761
0.54818
0.62205
0.70611
0.79271
0.87677
0.94555
0.97866
0.98121
0.97357
0.94555
0.90989
0.85639
0.81564
0.77233
0.73667
0.69082
0.6628
0.62714
0.60167
0.58129
0.56601
0.55582
0.53799
0.5278
0.52525
0.50997
0.50997
0.50232
0.50997
0.51251
0.5227
0.51761
0.5278
0.53034
0.54053
0.54053
0.55072
0.56091
0.5711
0.57874
0.59912
0.6195
0.65261
0.70101
0.76215
0.82583
0.86658
0.90224
0.91753
0.90989
0.8946
0.87932
0.85894
0.83347
0.80545
0.79271
0.76469
0.74941
0.73158
0.70865
0.70101
0.69337
0.67299
0.67299
0.6628
0.64242
0.63988
0.63224
0.62205
0.62205
0.62714
0.61695
0.62205
0.60931
0.6144
0.61186
0.62205
0.61695
0.62205
0.62205
0.63478
0.65771
0.69592
0.75705
0.84111
0.93281
1.0143
1.0704
1.1213
1.1315
1.1213
1.0856
1.0525
1.0041
0.96847
0.90989
0.86658
0.82328
0.79271
0.75196
0.72394
0.69082
0.67044
0.64752
0.62714
0.6144
0.60167
0.58638
0.58638
0.5762
0.57874
0.57365
0.5762
0.57874
0.5711
0.56855
0.56091
0.56091
0.56855
0.56855
0.58384
0.58893
0.61186
0.6679
0.75705
0.85894
0.97612
1.0729
1.1417
1.185
1.2028
1.1799
1.1366
1.0907
1.0347
0.97357
0.90734
0.85894
0.80545
0.7596
0.72139
0.67044
0.65007
0.62205
0.59148
0.56855
0.55072
0.53034
0.51761
0.50487
0.49978
0.49723
0.48704
0.47431
0.4794
0.48959
0.47685
0.48449
0.48449
0.49978
0.49468
0.51251
0.51761
0.53289
0.56855
0.64752
0.74177
0.85385
0.93791
1.022
1.0678
1.0907
1.078
1.0449
1.0016
0.96847
0.90734
0.8513
0.80035
0.7596
0.71629
0.68573
0.64752
0.60931
0.59148
0.5711
0.54053
0.53544
0.51761
0.51761
0.51761
0.50487
0.50742
0.49723
0.49214
0.50232
0.49214
0.50742
0.49723
0.49978
0.50742
0.52525
0.5278
0.54053
0.55327
0.60167
0.6628
0.73667
0.82328
0.88696
0.95319
0.97866
0.97866
0.97612
0.95064
0.92517
0.8997
0.86149
0.82328
0.78252
0.74686
0.71884
0.68063
0.65771
0.63733
0.61186
0.59403
0.58638
0.5762
0.56601
0.55327
0.56346
0.55836
0.55072
0.55327
0.54818
0.55836
0.56346
0.57365
0.5711
0.58384
0.57874
0.59148
0.59912
0.62205
0.6628
0.73667
0.83092
0.92008
1.022
1.078
1.1213
1.1417
1.129
1.0907
1.0474
0.99649
0.94555
0.88441
0.84875
0.79271
0.7596
0.7112
0.68827
0.66535
0.62969
0.6195
0.58893
0.58638
0.56091
0.55327
0.55836
0.54308
0.54818
0.54053
0.54563
0.53544
0.53289
0.54818
0.53544
0.55072
0.54308
0.55327
0.56091
0.5762
0.60422
0.68827
0.77998
0.90224
1.0322
1.1315
1.2003
1.2436
1.2487
1.2207
1.1773
1.1111
1.0449
0.97866
0.91498
0.85385
0.8029
0.74431
0.70865
0.67299
0.63478
0.59657
0.57365
0.54818
0.53034
0.5278
0.50487
0.49214
0.49723
0.49214
0.48449
0.48449
0.4794
0.48704
0.49723
0.48704
0.50232
0.49723
0.50487
0.50997
0.52016
0.5278
0.54563
0.60931
0.68318
0.76979
0.83856
0.90989
0.95574
0.97357
0.97357
0.96083
0.92262
0.8946
0.86149
0.81054
0.77488
0.74177
0.69846
0.67809
0.63478
0.6144
0.59148
0.56346
0.55836
0.54053
0.52016
0.52525
0.51761
0.50997
0.50487
0.48959
0.49468
0.47685
0.48449
0.47431
0.4794
0.46412
0.46666
0.46666
0.47431
0.4794
0.49214
0.51251
0.54053
0.59148
0.6628
0.74431
0.82837
0.91243
0.96338
0.9863
0.98885
0.98885
0.96593
0.93791
0.90734
0.87422
0.8462
0.81564
0.76979
0.74941
0.71884
0.70101
0.67809
0.66026
0.64242
0.62714
0.6195
0.60167
0.59148
0.58893
0.58893
0.57874
0.57874
0.58129
0.58384
0.59657
0.58893
0.59148
0.60422
0.61186
0.62205
0.62714
0.63224
0.65261
0.6679
0.7112
0.77488
0.84366
0.92262
0.98121
1.0296
1.0423
1.0398
1.0322
0.99904
0.96338
0.92008
0.87932
0.85385
0.8029
0.76724
0.74177
0.7112
0.68827
0.66535
0.63988
0.62969
0.61186
0.61186
0.59403
0.58384
0.57874
0.5711
0.56855
0.56601
0.56346
0.56601
0.5711
0.56601
0.57365
0.57874
0.58638
0.58893
0.58638
0.59148
0.60167
0.61186
0.63988
0.68573
0.73413
0.79271
0.83347
0.86404
0.87677
0.88187
0.88696
0.86913
0.85894
0.83347
0.808
0.77743
0.7596
0.74177
0.7112
0.69337
0.68063
0.65771
0.64242
0.63478
0.62205
0.60676
0.60167
0.58893
0.59148
0.59148
0.58893
0.58893
0.58638
0.58893
0.59148
0.59148
0.59657
0.60676
0.60931
0.61186
0.62459
0.63988
0.66026
0.69082
0.74941
0.81309
0.87932
0.92517
0.96593
0.97102
0.97866
0.96338
0.94555
0.91753
0.89715
0.85894
0.83602
0.81309
0.77233
0.74431
0.73413
0.7112
0.69337
0.68063
0.66026
0.64752
0.62969
0.62969
0.6195
0.60931
0.6144
0.60422
0.60676
0.59148
0.60167
0.58893
0.59148
0.58893
0.58384
0.58638
0.58638
0.59148
0.59403
0.63224
0.6679
0.75705
0.84875
0.943
1.0347
1.0933
1.1239
1.129
1.1239
1.0831
1.0551
1.0016
0.96847
0.91243
0.87168
0.83602
0.79781
0.75705
0.72139
0.68318
0.6628
0.63224
0.61186
0.58893
0.58638
0.56601
0.56091
0.54818
0.54818
0.54818
0.54053
0.5278
0.54053
0.5227
0.53034
0.53544
0.53799
0.54053
0.54818
0.56091
0.58638
0.63478
0.72394
0.83602
0.93791
1.022
1.1009
1.1315
1.1391
1.1213
1.0882
1.0423
0.98885
0.93536
0.88696
0.82837
0.77488
0.73413
0.70356
0.65516
0.63224
0.60167
0.5762
0.56091
0.54308
0.5227
0.51506
0.50742
0.49468
0.48959
0.48959
0.48195
0.48195
0.48195
0.48449
0.4794
0.48959
0.48959
0.50487
0.50742
0.5278
0.56091
0.6144
0.69846
0.79781
0.8946
0.98121
1.0398
1.0627
1.078
1.0551
1.0296
0.98121
0.943
0.8946
0.8462
0.8029
0.7545
0.71629
0.68318
0.65007
0.62714
0.59657
0.5762
0.55072
0.54053
0.54053
0.5278
0.5227
0.51251
0.51761
0.51761
0.51251
0.52525
0.52016
0.52016
0.52525
0.53289
0.53289
0.54818
0.56091
0.5762
0.62969
0.70101
0.79781
0.89715
0.9914
1.0729
1.1162
1.134
1.134
1.0984
1.0653
1.0143
0.96083
0.90224
0.85639
0.808
0.75705
0.72139
0.68827
0.65771
0.63224
0.59657
0.57874
0.55836
0.54563
0.5278
0.52525
0.51761
0.52016
0.51761
0.51506
0.50487
0.51251
0.50997
0.5227
0.52016
0.5278
0.53544
0.54818
0.56601
0.60167
0.66026
0.75196
0.84366
0.95064
1.0245
1.0831
1.1009
1.0907
1.0806
1.0449
0.99395
0.943
0.89715
0.84111
0.80035
0.75705
0.72394
0.68318
0.65261
0.62459
0.60676
0.57874
0.55836
0.54818
0.53289
0.5227
0.51506
0.49978
0.48959
0.48704
0.49468
0.48959
0.49978
0.50487
0.50487
0.50997
0.51251
0.51761
0.5278
0.54818
0.58638
0.64497
0.72903
0.79781
0.86913
0.92262
0.96338
0.96847
0.96338
0.93536
0.91243
0.88696
0.84366
0.80545
0.76979
0.73413
0.70611
0.67044
0.63988
0.6195
0.6144
0.59403
0.5762
0.58129
0.5711
0.56091
0.56855
0.56346
0.54818
0.55072
0.55072
0.55327
0.55582
0.55072
0.54308
0.55582
0.56091
0.56091
0.5762
0.59148
0.62205
0.65261
0.69846
0.74941
0.79017
0.82328
0.83602
0.8513
0.85639
0.83856
0.82837
0.80545
0.79271
0.77743
0.7545
0.73413
0.71884
0.7112
0.69846
0.69337
0.68573
0.67044
0.65516
0.66026
0.64497
0.64242
0.63733
0.63224
0.62205
0.62459
0.60931
0.6144
0.6195
0.61186
0.61695
0.62205
0.62714
0.62714
0.63478
0.67044
0.7112
0.78507
0.87422
0.95828
1.0347
1.0882
1.1111
1.1264
1.1086
1.0856
1.0398
0.99904
0.9481
0.91243
0.87168
0.81819
0.79271
0.74431
0.71884
0.69846
0.67044
0.65007
0.62969
0.62205
0.60931
0.58638
0.58129
0.57365
0.56601
0.55836
0.55327
0.55072
0.55327
0.54818
0.55072
0.55582
0.55836
0.56855
0.58129
0.6144
0.68827
0.77998
0.88441
0.9914
1.0831
1.1519
1.1824
1.1773
1.1493
1.1111
1.0729
1.022
0.95828
0.90479
0.84875
0.8029
0.74941
0.7112
0.68063
0.63733
0.61186
0.58638
0.55327
0.53289
0.51506
0.50232
0.49468
0.48959
0.48704
0.48959
0.48704
0.48959
0.48959
0.49723
0.49978
0.50997
0.51251
0.5278
0.5278
0.56091
0.6195
0.70865
0.808
0.92262
1.0016
1.078
1.1035
1.1162
1.1035
1.0627
1.0169
0.95828
0.92008
0.86658
0.81054
0.76724
0.7112
0.68318
0.64497
0.6144
0.59403
0.56601
0.54563
0.53289
0.51761
0.50997
0.50232
0.49214
0.48959
0.47685
0.47685
0.4794
0.4794
0.47431
0.48959
0.48704
0.49723
0.50487
0.50487
0.53034
0.57874
0.65261
0.73413
0.83856
0.92517
0.99649
1.0398
1.0474
1.0474
1.0169
0.99395
0.95064
0.90734
0.85894
0.81819
0.77488
0.73922
0.7112
0.67299
0.64242
0.61695
0.59912
0.57874
0.56346
0.54308
0.54053
0.5278
0.51506
0.51506
0.51506
0.50487
0.51506
0.52016
0.50997
0.50997
0.51251
0.52016
0.53034
0.5278
0.54818
0.58638
0.64242
0.72394
0.83602
0.93026
1.0092
1.0551
1.0704
1.0755
1.0602
1.0143
0.98376
0.93281
0.88441
0.83856
0.79526
0.74941
0.7112
0.68827
0.66026
0.62205
0.60931
0.58384
0.56091
0.55072
0.54563
0.53544
0.5227
0.52016
0.50997
0.51761
0.51506
0.51761
0.50487
0.51251
0.51251
0.52016
0.5278
0.5278
0.55072
0.5711
0.59912
0.67044
0.75196
0.83347
0.90734
0.95319
0.97866
0.9863
0.97102
0.95319
0.92517
0.88441
0.84875
0.81564
0.78762
0.74431
0.72394
0.69846
0.6628
0.64242
0.62205
0.60931
0.59148
0.5762
0.55836
0.55836
0.55327
0.54053
0.54053
0.54053
0.53544
0.54053
0.54818
0.55072
0.56601
0.56091
0.57874
0.57874
0.59657
0.62205
0.67044
0.74686
0.84366
0.93026
1.0092
1.0627
1.0933
1.0907
1.0831
1.0602
1.0118
0.97612
0.92517
0.88696
0.84366
0.80035
0.76724
0.72903
0.69592
0.67299
0.65516
0.63733
0.61695
0.60422
0.58638
0.5711
0.55836
0.55582
0.54308
0.54308
0.53289
0.53289
0.53799
0.53799
0.53544
0.54053
0.55072
0.55582
0.56346
0.60676
0.69337
0.81054
0.943
1.0525
1.1646
1.2308
1.2843
1.2869
1.2665
1.2207
1.157
1.0907
1.0143
0.94555
0.89715
0.83347
0.78252
0.71629
0.68063
0.63988
0.60167
0.5711
0.55582
0.53289
0.50997
0.50232
0.48449
0.4794
0.46666
0.46157
0.45902
0.45393
0.45393
0.45647
0.45647
0.46921
0.46412
0.48449
0.48704
0.52525
0.59403
0.71375
0.8462
0.98376
1.0806
1.1672
1.2308
1.2538
1.2461
1.213
1.1646
1.0933
1.0245
0.95828
0.88696
0.82583
0.77488
0.71375
0.66026
0.62459
0.58638
0.54563
0.51506
0.50487
0.46921
0.44883
0.4361
0.42845
0.41572
0.41317
0.41062
0.41572
0.41572
0.41827
0.41827
0.42591
0.44119
0.44629
0.46666
0.47431
0.53034
0.60931
0.71629
0.8462
0.96847
1.0755
1.1468
1.2028
1.2105
1.1926
1.1621
1.1035
1.0372
0.97612
0.90734
0.85894
0.80035
0.74686
0.70101
0.65261
0.61186
0.58638
0.55836
0.52016
0.50997
0.48959
0.47176
0.46666
0.44629
0.44374
0.44374
0.43864
0.4361
0.43355
0.43864
0.43355
0.44374
0.44374
0.44119
0.45647
0.47431
0.49978
0.56855
0.6628
0.79017
0.90224
1.0118
1.0907
1.1417
1.1544
1.1442
1.1111
1.0653
1.0016
0.9481
0.8946
0.83602
0.79017
0.72903
0.70356
0.65007
0.62205
0.59403
0.5711
0.53799
0.5278
0.50997
0.49468
0.48704
0.47176
0.46412
0.47176
0.46412
0.46666
0.47176
0.46666
0.47176
0.46412
0.47431
0.47176
0.48195
0.49214
0.50487
0.55582
0.63988
0.73158
0.84875
0.95828
1.022
1.0806
1.1035
1.0984
1.0653
1.0372
0.9863
0.93536
0.88696
0.83602
0.79271
0.74431
0.71629
0.6679
0.63988
0.61186
0.59148
0.5711
0.55582
0.54308
0.53799
0.5278
0.51761
0.51506
0.51251
0.51761
0.50997
0.50997
0.50997
0.52016
0.5227
0.52525
0.53034
0.53799
0.54818
0.5711
0.6144
0.68063
0.76979
0.86404
0.93536
0.9863
1.0194
1.0194
1.0067
0.97866
0.9481
0.90224
0.85385
0.81819
0.77233
0.74177
0.7112
0.67809
0.65771
0.62714
0.60931
0.59148
0.56855
0.55327
0.55836
0.53544
0.53289
0.53034
0.54053
0.53799
0.54818
0.54818
0.55072
0.55327
0.56091
0.56091
0.56346
0.5762
0.58893
0.60931
0.67809
0.77743
0.89206
0.99904
1.0958
1.1723
1.2156
1.2181
1.2028
1.1723
1.1086
1.0551
0.9914
0.93026
0.86658
0.81309
0.76979
0.72394
0.68318
0.64752
0.60931
0.58893
0.5711
0.54308
0.51761
0.50997
0.50232
0.48195
0.47685
0.48704
0.47431
0.4794
0.4794
0.48195
0.4794
0.48959
0.49723
0.51251
0.52016
0.53799
0.59148
0.67044
0.79017
0.92262
1.05
1.1519
1.2257
1.264
1.2741
1.2512
1.2028
1.1417
1.0755
1.0041
0.94045
0.86913
0.8029
0.7596
0.70356
0.65261
0.6144
0.58638
0.56091
0.53799
0.51251
0.49214
0.46921
0.45647
0.45902
0.44374
0.4361
0.44883
0.45138
0.44119
0.44883
0.45138
0.45393
0.45393
0.47176
0.47685
0.49723
0.56091
0.65007
0.77488
0.91243
1.0372
1.1213
1.1952
1.2385
1.2334
1.2105
1.1723
1.1111
1.0398
0.98121
0.91498
0.8513
0.79526
0.73667
0.69592
0.65516
0.61186
0.58129
0.56091
0.54053
0.5227
0.49723
0.48959
0.46157
0.46412
0.43864
0.43355
0.42845
0.42336
0.42845
0.42591
0.43355
0.4361
0.4361
0.44374
0.44883
0.4794
0.54308
0.63988
0.74941
0.88441
0.99904
1.0958
1.157
1.1875
1.1901
1.1672
1.1162
1.0576
0.99395
0.92517
0.86913
0.8029
0.7545
0.69846
0.65516
0.62205
0.58129
0.54053
0.51506
0.49214
0.47176
0.45393
0.44119
0.42845
0.42336
0.41062
0.42336
0.42336
0.41317
0.42336
0.42336
0.4361
0.44374
0.46157
0.46921
0.4794
0.49978
0.54563
0.6144
0.71884
0.84111
0.94555
1.0398
1.0958
1.1264
1.1213
1.078
1.0322
0.98121
0.92517
0.86913
0.81564
0.76979
0.72139
0.68063
0.65771
0.62459
0.59912
0.58129
0.56091
0.55072
0.53799
0.51761
0.51761
0.51506
0.50232
0.49978
0.49978
0.49214
0.48959
0.49723
0.49978
0.49978
0.50742
0.51251
0.52016
0.5278
0.54053
0.55582
0.59148
0.64752
0.72394
0.808
0.87422
0.92262
0.95574
0.95574
0.9481
0.92262
0.8946
0.86404
0.83856
0.8029
0.78507
0.75196
0.71629
0.70356
0.68063
0.65771
0.64752
0.6195
0.61695
0.60676
0.59403
0.58893
0.58638
0.56855
0.57365
0.57365
0.5711
0.58129
0.58129
0.57874
0.58129
0.58384
0.58893
0.59403
0.60676
0.6195
0.65771
0.69337
0.77488
0.86404
0.93791
0.99904
1.0449
1.0627
1.0602
1.0398
1.0067
0.97102
0.93536
0.87932
0.83856
0.80545
0.77743
0.74431
0.70865
0.68827
0.66026
0.64497
0.62969
0.62205
0.60676
0.60167
0.59403
0.58893
0.59148
0.58129
0.57874
0.58384
0.5762
0.57365
0.5711
0.56601
0.5711
0.57874
0.58384
0.60167
0.65771
0.75196
0.86149
0.99395
1.1009
1.185
1.2512
1.2741
1.2614
1.2385
1.1799
1.1213
1.0474
0.98121
0.92262
0.85894
0.81054
0.75196
0.70101
0.6679
0.63478
0.60676
0.57874
0.55072
0.54308
0.51251
0.49978
0.49468
0.48959
0.48449
0.47431
0.48704
0.47176
0.48959
0.48195
0.48959
0.49468
0.50487
0.52016
0.54053
0.59148
0.68827
0.81309
0.93791
1.05
1.1595
1.2156
1.2487
1.2436
1.2156
1.1621
1.1009
1.0245
0.96083
0.89206
0.82837
0.77233
0.70865
0.65771
0.6144
0.58384
0.54308
0.5278
0.49978
0.48195
0.46921
0.44883
0.44629
0.43864
0.4361
0.42591
0.42591
0.43355
0.44119
0.4361
0.44629
0.45393
0.46412
0.4794
0.51506
0.59148
0.70611
0.83347
0.95574
1.0627
1.1595
1.1977
1.2232
1.213
1.1748
1.1213
1.0627
0.99904
0.92517
0.85894
0.808
0.74177
0.69337
0.63988
0.59912
0.56346
0.53799
0.50997
0.48195
0.47431
0.45902
0.43864
0.42336
0.42336
0.41827
0.41572
0.40808
0.41572
0.41572
0.41827
0.43355
0.4361
0.45393
0.48449
0.54563
0.63478
0.7545
0.88441
0.99904
1.1009
1.1519
1.1977
1.185
1.1621
1.1162
1.0551
1.0041
0.93791
0.86404
0.80545
0.75196
0.69337
0.64752
0.60167
0.56346
0.54053
0.50997
0.48449
0.46666
0.44883
0.43864
0.431
0.42845
0.42845
0.42845
0.4361
0.42845
0.4361
0.44374
0.4361
0.45393
0.45902
0.46666
0.48959
0.54818
0.63733
0.7545
0.86658
0.96847
1.0551
1.0984
1.1162
1.1111
1.0704
1.0271
0.97102
0.92262
0.86658
0.81309
0.76215
0.72139
0.67044
0.65007
0.61186
0.58638
0.56091
0.54053
0.5227
0.50997
0.50997
0.49468
0.4794
0.48195
0.48195
0.4794
0.47176
0.47431
0.47431
0.4794
0.48959
0.49214
0.50997
0.52525
0.55582
0.60931
0.69846
0.77998
0.86913
0.94555
0.99395
1.0092
1.0067
0.98885
0.96847
0.93026
0.89206
0.84366
0.79781
0.76979
0.73413
0.70356
0.68063
0.65261
0.62714
0.61695
0.59657
0.58638
0.58129
0.5762
0.56601
0.55582
0.54563
0.54818
0.54818
0.54818
0.55582
0.56346
0.55327
0.56601
0.57365
0.5711
0.58129
0.61186
0.6628
0.74941
0.8513
0.96847
1.0525
1.1188
1.157
1.157
1.1519
1.1009
1.0576
0.99904
0.94045
0.8946
0.84875
0.79271
0.7545
0.72139
0.68318
0.65261
0.62714
0.60676
0.58638
0.56346
0.54818
0.54563
0.53034
0.52525
0.51761
0.51761
0.50487
0.50232
0.50997
0.49723
0.50997
0.50487
0.5227
0.52016
0.54818
0.57874
0.6679
0.76469
0.8997
1.0067
1.1137
1.1799
1.2181
1.2207
1.1952
1.1493
1.0933
1.0296
0.96593
0.89715
0.84366
0.78762
0.73413
0.70101
0.65261
0.62205
0.58893
0.5711
0.54053
0.52525
0.51761
0.50232
0.48704
0.47685
0.47685
0.4794
0.4794
0.46921
0.47176
0.46921
0.47176
0.47685
0.48704
0.49468
0.50997
0.54818
0.60422
0.7112
0.82073
0.93281
1.0398
1.1213
1.1544
1.1748
1.1595
1.1137
1.0704
1.0194
0.96083
0.8997
0.84875
0.79271
0.74177
0.70356
0.65771
0.6195
0.59657
0.56855
0.54818
0.52525
0.5227
0.49723
0.48959
0.47431
0.47176
0.46157
0.46921
0.46157
0.45902
0.45902
0.46921
0.47431
0.48449
0.49214
0.51251
0.52525
0.56091
0.63224
0.72139
0.83602
0.9481
1.0169
1.0806
1.1086
1.1111
1.0831
1.0449
0.99904
0.94555
0.89715
0.84875
0.79526
0.76215
0.7112
0.68063
0.65007
0.6195
0.59912
0.56091
0.55327
0.5278
0.51761
0.50997
0.50997
0.50997
0.50487
0.50742
0.51761
0.51251
0.51761
0.52525
0.50997
0.51761
0.52016
0.5227
0.52016
0.53034
0.55072
0.58129
0.63733
0.71884
0.81309
0.88696
0.94555
0.97866
0.97866
0.97612
0.95319
0.92517
0.8946
0.8513
0.81564
0.76215
0.72903
0.70101
0.65771
0.63224
0.60931
0.58638
0.56855
0.54818
0.53289
0.53034
0.50997
0.50742
0.49978
0.48959
0.49214
0.48449
0.49978
0.49214
0.49723
0.50487
0.50997
0.50997
0.5278
0.53799
0.54563
0.56855
0.58638
0.60676
0.63224
0.65771
0.68063
0.70611
0.7112
0.7112
0.71884
0.71629
0.71629
0.7112
0.71375
0.70356
0.70611
0.70101
0.70101
0.68063
0.69337
0.67809
0.68063
0.67299
0.6679
0.6679
0.67044
0.67044
0.6679
0.67044
0.6679
0.6679
0.6679
0.67554
0.67554
0.66535
0.67299
0.67299
0.67044
0.68063
0.68063
0.68318
0.69082
0.7112
0.72394
0.74941
0.78507
0.83092
0.86404
0.88696
0.90479
0.91753
0.90224
0.8997
0.88696
0.86404
0.85385
0.82328
0.81054
0.78507
0.76469
0.75705
0.74686
0.72903
0.71629
0.70865
0.69592
0.69082
0.67809
0.67299
0.6628
0.67044
0.66026
0.65771
0.65516
0.65261
0.65261
0.65771
0.65516
0.66535
0.65771
0.66535
0.68063
0.69082
0.71375
0.73158
0.78507
0.86149
0.92517
0.98885
1.0296
1.0551
1.0576
1.0474
1.0347
1.0118
0.97357
0.94045
0.90479
0.86658
0.8462
0.81054
0.78507
0.76469
0.72903
0.71884
0.68827
0.67044
0.66026
0.64752
0.62969
0.62459
0.62205
0.60931
0.60931
0.59657
0.58638
0.58893
0.58129
0.58638
0.59148
0.58384
0.58638
0.59148
0.60167
0.60676
0.61186
0.62205
0.64242
0.68827
0.73667
0.8029
0.86404
0.91753
0.9481
0.95828
0.96847
0.95064
0.93281
0.8997
0.87422
0.84366
0.81309
0.78252
0.75196
0.73158
0.69337
0.68318
0.6628
0.65007
0.62969
0.62969
0.6195
0.60167
0.59148
0.59148
0.5711
0.57874
0.56091
0.56601
0.5711
0.56346
0.55327
0.55582
0.55582
0.56091
0.55836
0.5711
0.57874
0.59403
0.60167
0.6195
0.64242
0.67299
0.71629
0.74686
0.77488
0.79526
0.8029
0.79526
0.79271
0.78762
0.78252
0.76469
0.75196
0.73413
0.72394
0.71629
0.7112
0.70101
0.68318
0.6679
0.6628
0.65516
0.65007
0.63733
0.64752
0.63478
0.63733
0.63478
0.62969
0.62969
0.6195
0.63224
0.63224
0.62459
0.62205
0.6144
0.62459
0.62714
0.63478
0.65261
0.6628
0.67554
0.69592
0.7112
0.72394
0.73413
0.74941
0.74941
0.74941
0.7545
0.75705
0.73922
0.74431
0.73922
0.73158
0.72139
0.71375
0.69846
0.69337
0.68573
0.68827
0.68827
0.68318
0.67809
0.67044
0.67299
0.6628
0.6628
0.6679
0.6679
0.66535
0.6628
0.66535
0.6628
0.66535
0.66026
0.67299
0.6679
0.67299
0.67299
0.68827
0.69846
0.70611
0.71884
0.73413
0.74431
0.76469
0.77743
0.78252
0.77998
0.78252
0.76979
0.76215
0.74686
0.73922
0.74431
0.72903
0.71375
0.72139
0.70611
0.70865
0.70356
0.69592
0.68573
0.69592
0.68827
0.69082
0.68318
0.67299
0.67299
0.67809
0.67809
0.67044
0.67554
0.6679
0.66535
0.6628
0.6628
0.65771
0.6679
0.66026
0.67809
0.68573
0.68827
0.69846
0.70611
0.71375
0.71884
0.72394
0.72903
0.72394
0.72139
0.72139
0.71375
0.71884
0.71629
0.70865
0.70865
0.69846
0.70356
0.70101
0.69082
0.68827
0.69846
0.69337
0.69082
0.69592
0.69337
0.69337
0.69337
0.69337
0.69846
0.68827
0.68827
0.68827
0.69082
0.69846
0.70356
0.70356
0.70865
0.7112
0.71375
0.72139
0.73158
0.74431
0.75196
0.7596
0.77233
0.76979
0.76724
0.76469
0.75196
0.76215
0.74941
0.74177
0.74177
0.73413
0.73413
0.73413
0.73158
0.72648
0.71884
0.72139
0.71884
0.71629
0.71375
0.71884
0.71884
0.71375
0.70611
0.71375
0.70611
0.7112
0.7112
0.71375
0.71375
0.72648
0.72139
0.72139
0.72394
0.72903
0.72394
0.73158
0.75196
0.79526
0.8462
0.92008
0.99649
1.05
1.0856
1.1162
1.1239
1.1086
1.0856
1.0602
1.0169
0.98376
0.94045
0.90224
0.87168
0.83856
0.808
0.77233
0.75196
0.73158
0.70101
0.68063
0.65261
0.64242
0.6195
0.6144
0.59657
0.58638
0.59148
0.57874
0.5711
0.5711
0.57365
0.5711
0.5711
0.57365
0.56855
0.58638
0.60931
0.67299
0.76215
0.85894
0.9481
1.0296
1.0755
1.1035
1.106
1.0882
1.0551
1.0067
0.96847
0.91498
0.87168
0.82583
0.78252
0.73158
0.70865
0.67299
0.63988
0.6144
0.58638
0.5711
0.56091
0.54053
0.5278
0.51761
0.51251
0.50232
0.49723
0.49214
0.49468
0.48195
0.48195
0.48704
0.49214
0.49978
0.50997
0.52016
0.54818
0.60931
0.69082
0.78507
0.87422
0.96083
1.0118
1.0474
1.0449
1.0322
1.0143
0.96593
0.92262
0.88696
0.84111
0.80035
0.75705
0.72139
0.68573
0.65516
0.62459
0.59403
0.58384
0.55836
0.54563
0.53799
0.52016
0.50742
0.50487
0.49214
0.49468
0.48449
0.48704
0.48959
0.47431
0.48449
0.47431
0.48704
0.49468
0.51251
0.53289
0.58384
0.65771
0.75196
0.83856
0.93026
1.0016
1.0474
1.0704
1.0627
1.0423
1.0118
0.97102
0.93281
0.88441
0.83347
0.80545
0.76215
0.72394
0.69337
0.65516
0.63224
0.61186
0.59403
0.58129
0.56346
0.54563
0.53544
0.52016
0.5278
0.5227
0.52016
0.50997
0.49978
0.50997
0.50232
0.50232
0.50997
0.50487
0.51761
0.53544
0.54563
0.59657
0.67299
0.75196
0.83856
0.91753
0.96338
0.99395
0.99904
0.98885
0.95828
0.93281
0.90224
0.85639
0.82073
0.78507
0.75705
0.71884
0.68827
0.67044
0.63478
0.62205
0.59657
0.59148
0.57365
0.56855
0.55582
0.54818
0.53799
0.5278
0.53034
0.53034
0.53034
0.53799
0.53289
0.53799
0.53799
0.53799
0.55072
0.56091
0.5711
0.59148
0.63478
0.67809
0.75196
0.80035
0.85385
0.87422
0.89206
0.89715
0.88187
0.86658
0.8462
0.82583
0.8029
0.78252
0.76469
0.73667
0.72139
0.70611
0.68827
0.67554
0.66535
0.64752
0.64497
0.62969
0.62714
0.62459
0.60167
0.60931
0.59912
0.59148
0.59403
0.59403
0.58129
0.58638
0.58893
0.58384
0.59403
0.59657
0.62459
0.66535
0.71884
0.81309
0.91753
1.0296
1.0984
1.1493
1.1773
1.1723
1.1417
1.1009
1.0423
0.98121
0.92772
0.87168
0.82583
0.77488
0.72903
0.69592
0.67299
0.63988
0.62459
0.59912
0.58129
0.56855
0.55072
0.54053
0.53289
0.53034
0.52525
0.52525
0.52525
0.53289
0.53034
0.52525
0.52525
0.53544
0.54053
0.53799
0.55327
0.56091
0.6195
0.70101
0.79781
0.90989
1.0016
1.0678
1.1264
1.1417
1.1366
1.1086
1.0576
1.0194
0.95574
0.91243
0.85894
0.80035
0.75196
0.7112
0.67044
0.64242
0.62205
0.60167
0.5762
0.56601
0.54818
0.54053
0.53799
0.53289
0.5278
0.5278
0.5278
0.5278
0.52525
0.51761
0.52525
0.52525
0.5227
0.54053
0.55582
0.60676
0.69592
0.81819
0.95574
1.0602
1.1621
1.2105
1.2563
1.2436
1.2105
1.1697
1.1111
1.0474
0.9863
0.90734
0.84875
0.78252
0.74177
0.69592
0.63988
0.61695
0.58129
0.55327
0.53289
0.51761
0.49468
0.47431
0.46921
0.46921
0.44883
0.44883
0.44629
0.44374
0.4361
0.44374
0.44374
0.4361
0.44119
0.45647
0.48959
0.54818
0.64497
0.77233
0.8946
0.99904
1.0755
1.1111
1.129
1.1137
1.078
1.0245
0.96593
0.91243
0.85385
0.79271
0.7545
0.69592
0.6628
0.6195
0.58129
0.55327
0.54053
0.51506
0.49978
0.4794
0.46921
0.46666
0.46666
0.45393
0.46157
0.45393
0.45902
0.44883
0.45902
0.46157
0.46412
0.48704
0.49214
0.50997
0.56091
0.65771
0.76979
0.8946
1.022
1.0984
1.1672
1.1952
1.1977
1.1621
1.1162
1.0576
0.99904
0.93791
0.88187
0.81819
0.76979
0.72139
0.68318
0.63988
0.60931
0.58893
0.5711
0.53544
0.52525
0.49723
0.48959
0.47431
0.4794
0.46921
0.46157
0.46666
0.46666
0.47431
0.46921
0.46666
0.47685
0.48959
0.50997
0.5278
0.58129
0.68827
0.808
0.92517
1.0372
1.1188
1.1672
1.1773
1.1672
1.1213
1.0729
1.0118
0.943
0.87422
0.81309
0.75705
0.70611
0.6679
0.63478
0.58893
0.56601
0.53799
0.5227
0.51251
0.49723
0.49214
0.47176
0.47176
0.47431
0.46412
0.45902
0.46412
0.47176
0.47685
0.46666
0.48195
0.47685
0.49214
0.50742
0.53544
0.59403
0.68318
0.78507
0.87422
0.96847
1.0143
1.0449
1.0322
1.0169
0.9863
0.93791
0.89715
0.85639
0.82073
0.77743
0.73922
0.70356
0.67044
0.65261
0.62714
0.60676
0.58893
0.5711
0.55836
0.54053
0.53799
0.53034
0.52525
0.5227
0.51506
0.51761
0.51761
0.52016
0.5278
0.53289
0.54308
0.55072
0.56601
0.59912
0.68063
0.78507
0.91498
1.0245
1.1213
1.1901
1.2207
1.2283
1.2054
1.1519
1.0958
1.0372
0.96847
0.90479
0.8462
0.79271
0.74177
0.69337
0.64752
0.62205
0.59148
0.55836
0.53799
0.52525
0.51761
0.49214
0.48195
0.48195
0.48195
0.4794
0.47176
0.47431
0.46921
0.47176
0.47685
0.48959
0.48449
0.50232
0.5278
0.58893
0.69592
0.83602
0.96593
1.0882
1.185
1.2461
1.2741
1.2665
1.2385
1.1952
1.1213
1.0525
0.98376
0.92262
0.85385
0.79526
0.74177
0.69846
0.65516
0.60676
0.57874
0.54818
0.5278
0.49214
0.48195
0.46412
0.45138
0.43864
0.4361
0.42591
0.42336
0.41827
0.42081
0.41572
0.42336
0.42336
0.4361
0.4361
0.45647
0.52525
0.6195
0.73413
0.87168
0.99904
1.0958
1.1672
1.2003
1.2028
1.1824
1.1366
1.078
1.0169
0.95319
0.89206
0.83347
0.78252
0.73413
0.68827
0.63988
0.60931
0.5711
0.54818
0.51506
0.49468
0.48959
0.46666
0.45393
0.44374
0.44119
0.42845
0.4361
0.4361
0.43864
0.43355
0.4361
0.43864
0.45138
0.44629
0.46412
0.48959
0.54308
0.64752
0.76724
0.89206
0.98885
1.078
1.1188
1.1366
1.1264
1.0907
1.0423
0.99395
0.93026
0.88187
0.83347
0.77998
0.73667
0.69082
0.66026
0.62459
0.60167
0.57874
0.56091
0.54308
0.5227
0.51251
0.49723
0.48959
0.47431
0.47685
0.4794
0.47431
0.47431
0.48195
0.47685
0.47685
0.48449
0.49214
0.50232
0.50742
0.54563
0.58893
0.68827
0.80545
0.91753
0.99649
1.0704
1.0984
1.1086
1.0831
1.0525
1.0118
0.95574
0.89715
0.84875
0.8029
0.74686
0.71884
0.67809
0.64752
0.6144
0.59912
0.57365
0.5711
0.55072
0.53289
0.53289
0.51506
0.49978
0.49723
0.49214
0.49214
0.48959
0.48704
0.48704
0.48449
0.50487
0.49978
0.50742
0.52525
0.5278
0.55582
0.58893
0.65771
0.73667
0.81564
0.8997
0.943
0.96338
0.97357
0.95574
0.943
0.90734
0.87168
0.83347
0.79781
0.76979
0.73158
0.70356
0.68063
0.65261
0.63988
0.62459
0.60422
0.59148
0.57874
0.57874
0.5711
0.56346
0.55836
0.55327
0.54053
0.54053
0.53799
0.54053
0.54818
0.55327
0.55836
0.56601
0.57365
0.58893
0.60931
0.63988
0.70356
0.79271
0.88441
0.97102
1.0423
1.0856
1.1009
1.1009
1.078
1.0347
0.99649
0.95064
0.90479
0.86913
0.81309
0.78507
0.74686
0.7112
0.67299
0.65261
0.62714
0.60931
0.59403
0.56855
0.56601
0.55582
0.54308
0.54308
0.52525
0.5278
0.5227
0.5278
0.5278
0.5227
0.53289
0.54053
0.54563
0.55836
0.56601
0.59403
0.65261
0.74941
0.86149
0.99395
1.0933
1.1595
1.2028
1.2181
1.1952
1.1697
1.1188
1.0551
0.99649
0.92772
0.87422
0.808
0.76979
0.72139
0.67809
0.63988
0.62969
0.59148
0.58384
0.55582
0.54818
0.54308
0.5278
0.5227
0.50997
0.50487
0.49978
0.50487
0.48959
0.48959
0.50487
0.50742
0.50742
0.50742
0.5278
0.54053
0.55072
0.60931
0.69592
0.81309
0.93791
1.0449
1.129
1.1697
1.185
1.1799
1.1366
1.0933
1.0423
0.97612
0.91753
0.86658
0.81564
0.75705
0.7112
0.67299
0.63733
0.60167
0.57874
0.55582
0.53544
0.5227
0.51761
0.49468
0.48449
0.48449
0.47431
0.47685
0.4794
0.48704
0.48704
0.49214
0.48195
0.49214
0.50487
0.49978
0.51251
0.53034
0.56855
0.64752
0.7545
0.86913
0.96847
1.0653
1.1188
1.1493
1.1417
1.106
1.0678
1.0118
0.95319
0.90479
0.8462
0.78507
0.74431
0.70865
0.6628
0.62969
0.59912
0.5711
0.55836
0.53289
0.51761
0.50232
0.48704
0.48449
0.47685
0.46666
0.46921
0.47431
0.46412
0.47685
0.47176
0.47685
0.48959
0.48959
0.49978
0.50487
0.50997
0.54053
0.58384
0.65516
0.7596
0.85639
0.93791
1.0092
1.0398
1.0602
1.0474
1.0194
0.98376
0.943
0.88696
0.84366
0.80035
0.76215
0.72903
0.68318
0.65516
0.63988
0.60931
0.59148
0.5762
0.56855
0.55072
0.53799
0.53034
0.53799
0.54053
0.53289
0.53289
0.53289
0.53289
0.53289
0.5278
0.53799
0.53544
0.54053
0.54563
0.55582
0.58638
0.6195
0.67554
0.76724
0.83856
0.91498
0.95828
0.99395
0.99649
0.9914
0.97612
0.94045
0.90734
0.87168
0.83602
0.80035
0.76469
0.73158
0.70356
0.67809
0.66535
0.65261
0.63224
0.6195
0.61186
0.59912
0.58384
0.5762
0.5711
0.56601
0.56601
0.57874
0.57365
0.58129
0.58129
0.57874
0.58384
0.59912
0.60676
0.61186
0.65516
0.71375
0.81564
0.93791
1.0602
1.1723
1.2436
1.2971
1.3098
1.2843
1.241
1.1824
1.1137
1.0474
0.98121
0.90224
0.8462
0.79526
0.74177
0.70356
0.65007
0.62205
0.59148
0.56601
0.56091
0.53289
0.52016
0.50742
0.50487
0.48959
0.48704
0.48449
0.4794
0.48959
0.48449
0.48449
0.48449
0.48195
0.49214
0.49978
0.51251
0.55327
0.65261
0.77233
0.91243
1.0423
1.1468
1.2334
1.2843
1.2945
1.2843
1.2334
1.1723
1.106
1.0271
0.95574
0.88441
0.81564
0.74941
0.69846
0.6628
0.6195
0.57365
0.55836
0.51761
0.50742
0.47685
0.46921
0.44119
0.431
0.41062
0.40808
0.39025
0.39025
0.38006
0.38515
0.37496
0.37751
0.3877
0.40043
0.41572
0.4361
0.48959
0.59148
0.71884
0.85894
1.0016
1.0984
1.1824
1.2283
1.2436
1.2105
1.1723
1.106
1.0372
0.97866
0.90224
0.83602
0.78252
0.72394
0.6679
0.61695
0.57874
0.54563
0.51761
0.49723
0.47685
0.45902
0.44119
0.42081
0.41572
0.40808
0.39534
0.40043
0.40553
0.40298
0.40553
0.41062
0.41317
0.431
0.44119
0.45902
0.48959
0.55327
0.66026
0.77743
0.89206
0.99904
1.0678
1.1162
1.1213
1.1111
1.0704
1.0194
0.96593
0.91498
0.85639
0.79781
0.74431
0.7112
0.66026
0.63224
0.60167
0.5711
0.54818
0.53034
0.52016
0.50487
0.48959
0.47685
0.47431
0.46666
0.46412
0.46412
0.47431
0.47176
0.47431
0.4794
0.48195
0.48704
0.50232
0.53289
0.57874
0.67044
0.78252
0.93026
1.0704
1.1723
1.264
1.3149
1.3353
1.3276
1.2894
1.2283
1.1595
1.0856
1.0016
0.93536
0.86658
0.8029
0.74177
0.70356
0.6628
0.6195
0.58384
0.55582
0.53799
0.50742
0.50232
0.48704
0.47176
0.45393
0.44883
0.43864
0.44119
0.43864
0.42845
0.43355
0.4361
0.44119
0.44119
0.46666
0.50232
0.58129
0.72139
0.87422
1.0525
1.2181
1.3658
1.483
1.5671
1.6078
1.5976
1.5543
1.4728
1.3735
1.2741
1.1544
1.05
0.9481
0.85385
0.7596
0.68827
0.60422
0.54563
0.48959
0.45138
0.42081
0.37496
0.34694
0.32656
0.31383
0.30109
0.28326
0.27307
0.26798
0.27052
0.26543
0.26034
0.26543
0.27562
0.28836
0.31383
0.34439
0.42336
0.55327
0.71629
0.8946
1.0704
1.2359
1.3633
1.4499
1.4856
1.4754
1.427
1.3506
1.2589
1.1544
1.05
0.943
0.83602
0.75705
0.6679
0.59403
0.5227
0.46921
0.42336
0.3826
0.34694
0.33166
0.30619
0.28326
0.27307
0.26034
0.25524
0.24505
0.25269
0.25269
0.25524
0.27307
0.27052
0.2909
0.28836
0.31128
0.34185
0.40298
0.49978
0.65261
0.8029
0.96593
1.1009
1.2207
1.3022
1.3353
1.3251
1.2869
1.2308
1.1519
1.0627
0.98376
0.8997
0.81819
0.7545
0.68573
0.62205
0.56855
0.5227
0.48959
0.46412
0.42591
0.41062
0.3877
0.37751
0.37241
0.35713
0.34949
0.34949
0.34185
0.33675
0.33421
0.34439
0.3393
0.34949
0.34439
0.36732
0.36732
0.39789
0.44629
0.53034
0.65007
0.77998
0.90479
1.0092
1.0856
1.1366
1.1442
1.129
1.0933
1.0372
0.98376
0.91498
0.86913
0.808
0.75705
0.7112
0.66535
0.63478
0.60167
0.57365
0.55582
0.53289
0.51251
0.48449
0.46921
0.45647
0.44883
0.44883
0.43864
0.43864
0.42845
0.42845
0.42845
0.42591
0.431
0.431
0.44629
0.45138
0.46921
0.4794
0.51761
0.5762
0.6679
0.7596
0.85385
0.92008
0.96083
0.97612
0.97357
0.94555
0.92772
0.88441
0.8462
0.81819
0.78252
0.74431
0.72139
0.70356
0.67299
0.65516
0.64497
0.62969
0.61695
0.60167
0.59403
0.59403
0.59403
0.58384
0.58893
0.58129
0.57365
0.58638
0.58638
0.59657
0.59403
0.59912
0.60422
0.61186
0.62205
0.63988
0.65516
0.70356
0.80035
0.90989
1.0296
1.1315
1.2028
1.2436
1.2614
1.2283
1.1952
1.1442
1.0933
1.0271
0.97357
0.91753
0.85894
0.808
0.76469
0.73158
0.69337
0.6679
0.62969
0.6144
0.58893
0.56346
0.56091
0.54053
0.5278
0.51761
0.51251
0.49978
0.50997
0.50997
0.50997
0.49978
0.50487
0.51761
0.53034
0.53799
0.54818
0.57365
0.62714
0.73158
0.84875
0.98885
1.1162
1.213
1.2792
1.3098
1.2996
1.269
1.2207
1.1468
1.0806
1.0092
0.9481
0.87168
0.81054
0.7545
0.70865
0.67299
0.63224
0.60167
0.57365
0.55072
0.53289
0.50997
0.48704
0.48195
0.47176
0.45902
0.45647
0.45393
0.45647
0.44119
0.44119
0.44883
0.45647
0.45138
0.45902
0.46157
0.47431
0.51251
0.5711
0.67299
0.81564
0.94045
1.0576
1.1442
1.2028
1.2257
1.2207
1.1799
1.1239
1.0678
1.0092
0.94045
0.87168
0.81564
0.76979
0.71884
0.67044
0.62969
0.59148
0.56091
0.53544
0.5227
0.50487
0.48449
0.47176
0.46921
0.46412
0.45138
0.44883
0.45647
0.45393
0.45393
0.45647
0.46157
0.45902
0.46412
0.47685
0.48704
0.50742
0.53544
0.60676
0.71375
0.8513
0.96847
1.0704
1.1417
1.1824
1.1926
1.1748
1.1188
1.0627
1.0067
0.943
0.87932
0.82837
0.76724
0.71629
0.6679
0.63478
0.60676
0.58129
0.55836
0.54818
0.53034
0.51251
0.49723
0.50232
0.49723
0.48959
0.48959
0.48959
0.48449
0.48449
0.48704
0.48959
0.49723
0.49723
0.50487
0.50742
0.50997
0.53544
0.56601
0.63224
0.73158
0.8462
0.96847
1.0551
1.1213
1.1519
1.1468
1.1162
1.0729
1.022
0.95828
0.89715
0.83856
0.78507
0.73413
0.69337
0.65261
0.62459
0.59148
0.5711
0.53799
0.5278
0.50487
0.49723
0.48959
0.49214
0.48195
0.48195
0.4794
0.47431
0.4794
0.47431
0.48449
0.48704
0.49723
0.49468
0.50232
0.50487
0.5227
0.53289
0.56091
0.62205
0.69846
0.79526
0.88187
0.94555
0.9863
1.0016
0.99904
0.96338
0.9481
0.90734
0.86913
0.83347
0.80035
0.7596
0.72394
0.70101
0.67554
0.65261
0.63224
0.60931
0.59657
0.58384
0.5762
0.5711
0.56091
0.56346
0.55327
0.55072
0.55072
0.56091
0.56091
0.56601
0.57365
0.5711
0.5762
0.57874
0.58638
0.60422
0.6195
0.67554
0.76215
0.87168
0.9863
1.0907
1.1621
1.2105
1.2232
1.2028
1.1697
1.1213
1.0474
0.9914
0.93281
0.87677
0.82837
0.77743
0.73413
0.69082
0.66026
0.63478
0.60676
0.58638
0.5711
0.55072
0.54563
0.53544
0.53034
0.53034
0.52525
0.50997
0.50742
0.50997
0.51251
0.51506
0.49978
0.50487
0.52016
0.52016
0.53544
0.55582
0.62714
0.73413
0.87932
1.022
1.1493
1.2589
1.3404
1.3862
1.3888
1.3633
1.3047
1.2461
1.1646
1.078
1.0016
0.92262
0.85385
0.79526
0.73667
0.68827
0.64242
0.60422
0.5711
0.55072
0.5227
0.49468
0.46921
0.45902
0.44119
0.44119
0.42081
0.42336
0.42081
0.41062
0.41062
0.41062
0.41317
0.41827
0.42591
0.4361
0.46157
0.49978
0.59912
0.74177
0.8997
1.0449
1.1748
1.2818
1.3506
1.3862
1.376
1.3455
1.2792
1.2105
1.1188
1.0322
0.93791
0.86658
0.78252
0.72139
0.6679
0.60167
0.55836
0.51506
0.48449
0.44629
0.42845
0.41827
0.39534
0.37496
0.37241
0.36732
0.36732
0.35204
0.34949
0.35713
0.36223
0.36987
0.37496
0.36987
0.39534
0.41317
0.44119
0.50487
0.61186
0.76469
0.91753
1.0602
1.1875
1.2843
1.3455
1.3684
1.3455
1.3047
1.2461
1.1621
1.0729
0.98121
0.90224
0.81564
0.74431
0.68318
0.62969
0.56601
0.5278
0.49978
0.46412
0.44119
0.41827
0.40298
0.39279
0.3826
0.37496
0.35458
0.35713
0.35713
0.36477
0.35458
0.36477
0.37496
0.37496
0.3826
0.3877
0.40808
0.431
0.50997
0.62714
0.76469
0.89715
1.0169
1.1137
1.1697
1.2003
1.1901
1.1595
1.1137
1.05
0.98121
0.90989
0.84366
0.78252
0.72139
0.67044
0.62969
0.59912
0.55582
0.52016
0.49468
0.4794
0.46412
0.44629
0.42591
0.42591
0.42336
0.41062
0.41062
0.40808
0.40808
0.40808
0.40553
0.41317
0.41827
0.431
0.43864
0.45138
0.47176
0.52016
0.58384
0.69337
0.80545
0.90734
0.9863
1.0398
1.0551
1.0423
1.0169
0.98121
0.93026
0.87422
0.83602
0.78507
0.74431
0.70865
0.67299
0.63733
0.61186
0.60167
0.58638
0.56346
0.55072
0.53289
0.54053
0.53034
0.53289
0.53544
0.53289
0.52525
0.5278
0.53544
0.52525
0.52525
0.53034
0.54563
0.55072
0.55072
0.55836
0.58129
0.60167
0.67044
0.77488
0.88441
0.99904
1.0933
1.1621
1.1952
1.1926
1.1723
1.1213
1.0856
1.0245
0.96847
0.91498
0.85385
0.81309
0.77488
0.72648
0.69082
0.65516
0.64242
0.6144
0.59148
0.5711
0.56091
0.54818
0.54053
0.54053
0.52525
0.53034
0.5227
0.52016
0.51761
0.5227
0.5278
0.5278
0.53289
0.53799
0.54563
0.56601
0.58893
0.67044
0.79271
0.93791
1.078
1.1977
1.2792
1.3429
1.3658
1.3557
1.3174
1.2614
1.1977
1.1188
1.0347
0.97357
0.89206
0.82328
0.76469
0.7112
0.6679
0.62714
0.58638
0.56855
0.53544
0.51251
0.49468
0.4794
0.47176
0.46412
0.44883
0.44374
0.43355
0.43355
0.43355
0.43355
0.42845
0.43864
0.4361
0.45647
0.46157
0.48959
0.54563
0.6679
0.80545
0.95319
1.0984
1.2283
1.3174
1.3735
1.3964
1.376
1.3327
1.2589
1.1773
1.0984
1.0194
0.93791
0.85385
0.78507
0.71629
0.65261
0.60167
0.55327
0.52016
0.48704
0.44629
0.431
0.40553
0.39534
0.39025
0.37496
0.36987
0.37241
0.36987
0.35713
0.35458
0.36477
0.37241
0.37241
0.3877
0.39279
0.41572
0.42591
0.50232
0.60422
0.73922
0.87677
1.0067
1.129
1.2054
1.2538
1.2716
1.2563
1.2105
1.1442
1.0831
1.0092
0.93281
0.86658
0.79526
0.74431
0.67044
0.62714
0.57365
0.54308
0.50742
0.48959
0.46412
0.43355
0.42591
0.41317
0.40553
0.40298
0.3877
0.38515
0.39534
0.39279
0.39025
0.39534
0.40553
0.41317
0.41827
0.42845
0.44629
0.45393
0.52016
0.62205
0.74177
0.87932
0.99395
1.0907
1.1544
1.2003
1.2054
1.1799
1.129
1.078
1.0092
0.943
0.87677
0.81564
0.7596
0.71375
0.6679
0.62459
0.58893
0.56601
0.53289
0.50997
0.49978
0.4794
0.45902
0.44629
0.44883
0.4361
0.43864
0.42336
0.42081
0.42845
0.431
0.4361
0.431
0.43864
0.44374
0.46157
0.4794
0.49723
0.54563
0.6195
0.72139
0.83602
0.92772
1.0067
1.0474
1.05
1.05
1.0067
0.97102
0.92772
0.87168
0.81819
0.77233
0.73667
0.69846
0.67044
0.64242
0.61186
0.58893
0.57365
0.55582
0.55072
0.54308
0.53544
0.53034
0.5227
0.53034
0.53034
0.52525
0.5227
0.5278
0.54053
0.53289
0.53799
0.55072
0.56091
0.57365
0.58384
0.60676
0.65007
0.73158
0.84366
0.94555
1.0602
1.134
1.185
1.2028
1.1901
1.1468
1.1035
1.0474
0.9914
0.92772
0.86913
0.81564
0.76979
0.72139
0.68063
0.65516
0.63224
0.60931
0.58893
0.5711
0.56601
0.54308
0.53799
0.53799
0.53799
0.53034
0.53034
0.53034
0.52525
0.53289
0.53034
0.5278
0.53544
0.54053
0.54818
0.55582
0.5711
0.61186
0.70356
0.83092
0.97866
1.1111
1.2283
1.3098
1.376
1.3862
1.3811
1.3378
1.2767
1.2003
1.1188
1.0474
0.96083
0.88696
0.82583
0.76215
0.69846
0.65007
0.60931
0.56855
0.53799
0.51251
0.48449
0.45647
0.44119
0.44119
0.42591
0.41827
0.42081
0.42591
0.41572
0.42336
0.41827
0.42336
0.43864
0.44374
0.44374
0.45902
0.48449
0.53034
0.63478
0.75705
0.91243
1.0474
1.1748
1.2665
1.3353
1.3608
1.3608
1.3149
1.2589
1.1799
1.0984
1.0169
0.93536
0.8513
0.77998
0.71629
0.67299
0.61186
0.57874
0.54818
0.51506
0.48449
0.46412
0.44119
0.42081
0.40808
0.40808
0.40043
0.39789
0.39025
0.40298
0.40553
0.39279
0.40553
0.40808
0.41827
0.42336
0.43355
0.45138
0.49978
0.58129
0.70865
0.8513
0.98885
1.1035
1.2105
1.269
1.3047
1.292
1.2665
1.2003
1.134
1.0474
0.97357
0.8997
0.82583
0.75705
0.68827
0.63733
0.59403
0.55582
0.52525
0.4794
0.46157
0.44119
0.42081
0.41317
0.40298
0.3877
0.38006
0.3826
0.37496
0.37496
0.37496
0.37496
0.38515
0.39279
0.40043
0.41317
0.41827
0.4361
0.45902
0.51761
0.62714
0.7545
0.89715
1.0143
1.1188
1.1799
1.2105
1.2232
1.1926
1.1391
1.0806
1.0169
0.94555
0.87422
0.80545
0.7545
0.69337
0.65007
0.61186
0.5711
0.54053
0.51506
0.49468
0.46921
0.45902
0.44883
0.4361
0.43355
0.42845
0.42591
0.42336
0.42336
0.41572
0.42591
0.42845
0.42336
0.44119
0.43355
0.45138
0.45902
0.48449
0.55072
0.63988
0.7596
0.86658
0.95828
1.0347
1.0704
1.0653
1.0576
1.022
0.97612
0.92008
0.86658
0.83092
0.78252
0.74431
0.70356
0.67299
0.65007
0.6195
0.59912
0.57874
0.55836
0.55327
0.55072
0.53289
0.5278
0.5227
0.53034
0.5278
0.5278
0.54053
0.53799
0.54053
0.53799
0.55582
0.55836
0.56091
0.58638
0.58893
0.63224
0.71629
0.83347
0.96083
1.0958
1.2028
1.2767
1.32
1.3276
1.3022
1.2538
1.1926
1.1111
1.0347
0.97102
0.89715
0.84111
0.78507
0.73667
0.69337
0.65771
0.6195
0.59912
0.56091
0.54053
0.5278
0.51506
0.49723
0.48704
0.48449
0.47176
0.47685
0.47176
0.46666
0.4794
0.47685
0.4794
0.4794
0.49468
0.49723
0.52016
0.56091
0.65007
0.79017
0.95319
1.1162
1.2843
1.4168
1.5289
1.5824
1.6053
1.5747
1.5187
1.4372
1.3225
1.2207
1.1137
0.99395
0.90734
0.80545
0.72139
0.64752
0.58384
0.53289
0.48959
0.43864
0.40808
0.36732
0.34185
0.32656
0.29854
0.29854
0.29345
0.27817
0.28581
0.29345
0.296
0.30873
0.30619
0.32656
0.32402
0.34185
0.36223
0.42845
0.54563
0.69337
0.86404
1.0551
1.2359
1.3811
1.4932
1.5518
1.5773
1.5492
1.4856
1.3913
1.2741
1.1621
1.05
0.943
0.84366
0.74941
0.6679
0.59403
0.5278
0.47431
0.431
0.3826
0.35458
0.31383
0.29854
0.28071
0.26798
0.26034
0.24505
0.2476
0.25524
0.26543
0.26543
0.27307
0.28326
0.28581
0.30109
0.32911
0.34949
0.4361
0.55072
0.71629
0.8946
1.0755
1.2308
1.3709
1.4474
1.4958
1.4805
1.4372
1.3633
1.2589
1.1621
1.0576
0.95064
0.86149
0.76979
0.68318
0.61186
0.53544
0.48449
0.42845
0.39279
0.35458
0.33675
0.31638
0.2909
0.27562
0.27307
0.26798
0.26543
0.25779
0.26288
0.26034
0.27562
0.27307
0.29345
0.31128
0.31383
0.33166
0.35968
0.43864
0.55582
0.69082
0.83347
0.97866
1.0984
1.2028
1.2538
1.2767
1.2461
1.1952
1.134
1.0525
0.97102
0.89206
0.81819
0.75705
0.68827
0.64497
0.59657
0.54308
0.5227
0.48959
0.46412
0.44374
0.431
0.41317
0.40298
0.39789
0.3877
0.39025
0.37241
0.37496
0.37751
0.38006
0.39534
0.40553
0.41572
0.41317
0.42591
0.45393
0.48449
0.55072
0.67044
0.8029
0.91753
1.0194
1.0806
1.1137
1.1213
1.1111
1.0627
1.0194
0.95828
0.90224
0.84366
0.79271
0.74941
0.70101
0.6628
0.63224
0.60167
0.58129
0.56091
0.54563
0.53289
0.5227
0.51761
0.50742
0.50997
0.50742
0.51251
0.51761
0.51506
0.52525
0.52525
0.5278
0.52525
0.53544
0.54563
0.55072
0.56601
0.59403
0.68573
0.808
0.943
1.0806
1.1926
1.2869
1.3506
1.3862
1.3735
1.3455
1.2894
1.2181
1.1417
1.0653
0.99649
0.91753
0.85639
0.78252
0.73413
0.68063
0.63478
0.59657
0.56091
0.52525
0.50742
0.48704
0.47685
0.45902
0.45138
0.43864
0.43864
0.43355
0.44374
0.4361
0.42845
0.42845
0.431
0.44629
0.44629
0.46157
0.47431
0.53034
0.62969
0.7545
0.91753
1.0525
1.1926
1.2945
1.3735
1.4015
1.4015
1.3608
1.3022
1.2207
1.129
1.0449
0.95828
0.87677
0.79781
0.74431
0.67299
0.62969
0.5762
0.54818
0.50742
0.47685
0.44374
0.42845
0.41062
0.40298
0.39534
0.38515
0.3877
0.3826
0.3877
0.38515
0.38006
0.37496
0.39279
0.39534
0.40298
0.40553
0.42336
0.47176
0.55836
0.68827
0.83856
0.96847
1.0933
1.2028
1.2792
1.3174
1.32
1.292
1.2385
1.1595
1.0806
1.0067
0.92008
0.85385
0.78507
0.73158
0.6628
0.6195
0.58129
0.53289
0.51506
0.4794
0.45393
0.44119
0.42081
0.41317
0.40553
0.40553
0.38515
0.39025
0.39025
0.38515
0.39534
0.39279
0.39534
0.40808
0.42081
0.42845
0.43355
0.45393
0.50487
0.59657
0.72139
0.84875
0.97866
1.0831
1.157
1.2003
1.2028
1.1977
1.1417
1.0831
1.0271
0.96083
0.90479
0.83347
0.78252
0.72139
0.67809
0.62969
0.58893
0.56601
0.53034
0.50742
0.48959
0.46921
0.46157
0.44374
0.44374
0.42845
0.42845
0.42845
0.43355
0.43355
0.44119
0.44374
0.44629
0.45647
0.46157
0.46921
0.4794
0.49978
0.52525
0.55836
0.65261
0.7596
0.85894
0.95574
1.0194
1.0525
1.0602
1.0423
1.0041
0.95828
0.91753
0.86404
0.82328
0.77743
0.73667
0.69082
0.65771
0.62714
0.6144
0.58384
0.57874
0.56091
0.54308
0.54563
0.54563
0.53034
0.5278
0.53799
0.53289
0.53544
0.54563
0.54563
0.54053
0.54308
0.54818
0.55327
0.56091
0.56601
0.56855
0.57874
0.6144
0.68063
0.78252
0.87422
0.98885
1.0729
1.1239
1.1595
1.1519
1.1315
1.0933
1.0372
0.98376
0.93281
0.88696
0.84366
0.79017
0.7596
0.72139
0.68573
0.67044
0.64242
0.62714
0.60676
0.59657
0.58638
0.5762
0.5711
0.56346
0.55836
0.56091
0.55836
0.55072
0.54053
0.54563
0.55072
0.55327
0.55327
0.56601
0.5711
0.58129
0.60931
0.68318
0.79781
0.92772
1.0627
1.1824
1.2767
1.3276
1.3506
1.3353
1.2971
1.2232
1.1493
1.0729
1.0092
0.93026
0.85894
0.79526
0.74431
0.69337
0.64242
0.59657
0.5711
0.55072
0.52525
0.50487
0.48959
0.48704
0.47176
0.46921
0.46666
0.46157
0.45902
0.46412
0.46921
0.46921
0.47176
0.46666
0.47685
0.47685
0.49978
0.50997
0.55072
0.64752
0.77743
0.92517
1.0704
1.1952
1.2996
1.3658
1.3939
1.3811
1.3455
1.2818
1.1977
1.1213
1.022
0.94555
0.86404
0.79526
0.72394
0.65771
0.6195
0.5711
0.53289
0.49468
0.46412
0.44374
0.42081
0.40553
0.39789
0.39534
0.38515
0.37751
0.36477
0.36477
0.36223
0.36477
0.38006
0.38006
0.3826
0.40298
0.40043
0.42081
0.45647
0.5278
0.63478
0.7596
0.8946
0.99904
1.0831
1.1417
1.1672
1.1595
1.1213
1.0704
1.0067
0.943
0.87168
0.808
0.74941
0.70356
0.66535
0.6144
0.59403
0.55072
0.53289
0.50487
0.48959
0.47685
0.46921
0.46921
0.45902
0.45902
0.46157
0.46412
0.47176
0.46412
0.47176
0.46921
0.48195
0.48959
0.49214
0.50742
0.50487
0.5278
0.55072
0.62459
0.73413
0.85639
0.97357
1.0729
1.1493
1.1901
1.1977
1.1748
1.129
1.0755
1.0041
0.943
0.86658
0.81564
0.76724
0.71375
0.67299
0.63988
0.59403
0.56855
0.54308
0.5227
0.51761
0.49214
0.48704
0.47176
0.47685
0.47176
0.47431
0.47685
0.47176
0.47431
0.47431
0.47431
0.48449
0.48195
0.49468
0.49978
0.50742
0.5278
0.54563
0.60931
0.70865
0.82073
0.92008
0.99904
1.0474
1.0704
1.0678
1.0372
0.99904
0.95319
0.90479
0.85894
0.80545
0.76979
0.72394
0.70101
0.6628
0.63224
0.60931
0.58129
0.57874
0.55836
0.53799
0.53289
0.53289
0.52525
0.5278
0.5227
0.53034
0.52525
0.53034
0.53289
0.54053
0.54308
0.55072
0.55836
0.58129
0.58638
0.59148
0.63224
0.69846
0.81564
0.93791
1.0627
1.1646
1.2385
1.2792
1.2869
1.2487
1.2079
1.1468
1.078
1.0067
0.93026
0.87422
0.81819
0.75705
0.7112
0.67044
0.63478
0.60676
0.59403
0.5762
0.55327
0.53544
0.53034
0.51506
0.50742
0.50487
0.50487
0.50232
0.50742
0.50742
0.49978
0.50997
0.50997
0.51506
0.5227
0.53034
0.53799
0.56346
0.62714
0.74941
0.88696
1.0296
1.1519
1.2461
1.3098
1.3378
1.3276
1.2945
1.2283
1.1544
1.0755
0.99649
0.92008
0.85639
0.78762
0.72139
0.6679
0.62714
0.59148
0.55072
0.5227
0.48959
0.4794
0.45647
0.44629
0.44374
0.4361
0.4361
0.42591
0.43355
0.43355
0.44119
0.4361
0.45138
0.45902
0.46666
0.47431
0.48704
0.49978
0.53289
0.6144
0.74686
0.88696
1.0245
1.1544
1.2385
1.2971
1.3251
1.3022
1.264
1.2003
1.1213
1.0372
0.97102
0.88441
0.81819
0.7545
0.70101
0.65261
0.59912
0.56855
0.53289
0.49723
0.48195
0.46921
0.44883
0.42591
0.42845
0.41827
0.41827
0.40808
0.40298
0.40298
0.42081
0.41062
0.42845
0.42845
0.44119
0.44374
0.45647
0.46666
0.49214
0.56601
0.68318
0.8029
0.94045
1.0551
1.1366
1.1875
1.2156
1.1952
1.1672
1.106
1.0372
0.97357
0.8997
0.83856
0.77743
0.7112
0.66535
0.62205
0.58129
0.55582
0.5278
0.50742
0.48959
0.46921
0.45902
0.45393
0.44374
0.44119
0.43864
0.42845
0.431
0.42845
0.4361
0.44119
0.44883
0.45138
0.45647
0.46666
0.47685
0.48959
0.50742
0.54818
0.62714
0.73667
0.84875
0.9481
1.0423
1.0958
1.1162
1.1137
1.0755
1.022
0.97357
0.91498
0.85385
0.8029
0.7596
0.7112
0.68063
0.63478
0.6195
0.59148
0.58129
0.55836
0.54818
0.54053
0.52525
0.52016
0.52525
0.50997
0.52016
0.50742
0.51251
0.51506
0.51761
0.51761
0.51251
0.52525
0.53799
0.54563
0.54053
0.55582
0.59403
0.65771
0.75196
0.87168
0.98121
1.0704
1.134
1.1621
1.1621
1.1391
1.0984
1.0372
0.9914
0.92772
0.87677
0.81819
0.76724
0.73413
0.69082
0.65007
0.62969
0.60931
0.58129
0.56091
0.54818
0.54053
0.52525
0.53034
0.51506
0.5227
0.51761
0.52016
0.52525
0.53034
0.5278
0.53289
0.54308
0.53544
0.55327
0.56346
0.5711
0.60167
0.6679
0.78762
0.92262
1.0474
1.1621
1.2614
1.3047
1.3327
1.3124
1.2589
1.1926
1.1162
1.0372
0.95828
0.89206
0.82073
0.75705
0.69592
0.65007
0.61186
0.58638
0.55327
0.53034
0.49978
0.48449
0.47431
0.45902
0.45647
0.44374
0.43864
0.4361
0.4361
0.43864
0.44629
0.4361
0.44883
0.45393
0.46157
0.47685
0.48195
0.49978
0.53289
0.6144
0.73413
0.86658
1.0041
1.1264
1.213
1.264
1.2869
1.2665
1.2334
1.1646
1.0933
1.0143
0.93536
0.86404
0.79526
0.73413
0.67044
0.62969
0.58638
0.55327
0.5278
0.50232
0.47685
0.46412
0.44374
0.44119
0.44629
0.44374
0.44883
0.45647
0.45393
0.45393
0.46921
0.46412
0.47431
0.47685
0.49214
0.49978
0.51761
0.53034
0.55072
0.58893
0.65771
0.78252
0.91753
1.0271
1.1315
1.2079
1.241
1.2232
1.1926
1.1442
1.0831
1.0067
0.93791
0.87168
0.81564
0.7545
0.69337
0.65516
0.6144
0.58129
0.55327
0.53799
0.50742
0.49723
0.48195
0.4794
0.47176
0.45647
0.46157
0.46412
0.46157
0.47431
0.46921
0.46666
0.47176
0.48449
0.47431
0.48195
0.49214
0.49723
0.50232
0.52525
0.56601
0.65261
0.7545
0.86913
0.98121
1.0627
1.1239
1.134
1.1264
1.0984
1.0449
0.99649
0.93791
0.88441
0.82583
0.77233
0.72903
0.69082
0.65516
0.62969
0.59912
0.58384
0.56346
0.54053
0.52525
0.52016
0.50742
0.49978
0.49468
0.49723
0.48959
0.49723
0.48959
0.48959
0.49214
0.49978
0.51506
0.50997
0.52525
0.53289
0.54053
0.56855
0.59403
0.66535
0.73413
0.81819
0.90734
0.9481
0.9863
0.99395
0.98885
0.95828
0.92517
0.89206
0.86149
0.81564
0.77743
0.74431
0.72139
0.69592
0.67554
0.65261
0.62969
0.60931
0.60167
0.58638
0.57874
0.56855
0.5711
0.5711
0.56091
0.56601
0.56855
0.5711
0.5711
0.56855
0.5762
0.57874
0.58129
0.58129
0.59148
0.60931
0.62714
0.66026
0.72903
0.82583
0.91753
1.0271
1.1188
1.1748
1.2079
1.2028
1.1773
1.1391
1.0907
1.0398
0.9863
0.93536
0.88696
0.83602
0.79526
0.77233
0.74177
0.70865
0.68827
0.6628
0.63224
0.61186
0.59657
0.58129
0.57365
0.55582
0.55072
0.54053
0.53034
0.53034
0.52016
0.51761
0.50997
0.51761
0.51251
0.52016
0.5278
0.54053
0.55327
0.59657
0.68318
0.808
0.94555
1.0525
1.157
1.2232
1.2538
1.2385
1.2054
1.1595
1.0806
1.0194
0.95828
0.88187
0.83347
0.76979
0.72139
0.68318
0.63224
0.61186
0.57365
0.56091
0.53544
0.52525
0.49978
0.49214
0.48959
0.47685
0.47176
0.46921
0.46921
0.46157
0.47176
0.45902
0.46157
0.47685
0.4794
0.48195
0.48959
0.49723
0.5278
0.58129
0.67299
0.80545
0.93536
1.0627
1.1646
1.2359
1.269
1.2512
1.2232
1.1723
1.0958
1.0169
0.95064
0.87932
0.808
0.7596
0.70611
0.65007
0.61695
0.5762
0.55327
0.51506
0.49723
0.4794
0.47431
0.45647
0.45393
0.45138
0.45138
0.44374
0.44629
0.45647
0.45647
0.45393
0.46921
0.46412
0.46921
0.48449
0.48959
0.49214
0.50997
0.54308
0.6144
0.71629
0.8462
0.97357
1.0627
1.1366
1.1824
1.1901
1.157
1.1111
1.0602
0.99649
0.93536
0.87932
0.81054
0.75705
0.72139
0.67299
0.64752
0.60931
0.57874
0.55836
0.54053
0.51506
0.51506
0.49978
0.48449
0.49214
0.47685
0.4794
0.48449
0.4794
0.47431
0.46921
0.46921
0.4794
0.48959
0.48449
0.50487
0.51761
0.53289
0.5762
0.65516
0.76469
0.87168
0.96847
1.0372
1.0907
1.0984
1.0907
1.0602
1.0169
0.96338
0.91498
0.86913
0.81819
0.77488
0.72903
0.69592
0.67554
0.64242
0.62459
0.59148
0.57874
0.55836
0.55327
0.54053
0.54053
0.53034
0.53289
0.52525
0.53034
0.52525
0.52016
0.5278
0.52525
0.53544
0.53289
0.54563
0.55327
0.56346
0.58893
0.65261
0.77233
0.90479
1.0372
1.1519
1.2359
1.2869
1.32
1.3022
1.2538
1.1977
1.1162
1.0398
0.96847
0.89206
0.82837
0.77233
0.72139
0.67554
0.63478
0.59657
0.5762
0.54053
0.5278
0.51506
0.49978
0.4794
0.4794
0.46666
0.46921
0.46157
0.45647
0.45647
0.46157
0.47176
0.46666
0.47685
0.4794
0.4794
0.49468
0.50997
0.5711
0.66535
0.81309
0.95574
1.1086
1.2308
1.3251
1.3913
1.4117
1.399
1.3608
1.3073
1.2257
1.1442
1.0576
0.98121
0.90479
0.83092
0.76724
0.69337
0.64497
0.60167
0.55327
0.51506
0.49214
0.46157
0.44629
0.41572
0.40298
0.39279
0.39534
0.37751
0.3826
0.3877
0.38515
0.3877
0.39534
0.39789
0.41062
0.42591
0.42591
0.44883
0.47176
0.56346
0.67299
0.83347
0.98121
1.1009
1.2181
1.2818
1.3353
1.3327
1.3047
1.2461
1.1799
1.0958
1.0118
0.93281
0.85639
0.79017
0.72394
0.65516
0.61186
0.56601
0.5278
0.49214
0.46157
0.4361
0.42591
0.40043
0.39534
0.38006
0.37751
0.36223
0.35968
0.35968
0.36223
0.36987
0.37496
0.37751
0.3826
0.39025
0.41062
0.42081
0.44374
0.49978
0.61186
0.74941
0.88696
1.0194
1.1315
1.2054
1.241
1.2512
1.2308
1.1824
1.1188
1.0602
0.9863
0.92262
0.85385
0.78507
0.73922
0.68827
0.64497
0.60167
0.5711
0.54563
0.53034
0.50487
0.48704
0.4794
0.46666
0.46412
0.44883
0.44374
0.43864
0.43864
0.431
0.42336
0.42845
0.42591
0.42336
0.41827
0.41827
0.42845
0.44374
0.45138
0.50232
0.60167
0.72648
0.84366
0.96593
1.05
1.106
1.1239
1.1213
1.0907
1.0322
0.97866
0.92517
0.86658
0.80545
0.76979
0.7112
0.6679
0.64242
0.60676
0.58384
0.56091
0.53289
0.51761
0.49978
0.48959
0.48449
0.46921
0.47431
0.47685
0.46412
0.47685
0.46666
0.48195
0.47431
0.49468
0.49978
0.50997
0.50742
0.51251
0.5278
0.54053
0.56346
0.63478
0.73413
0.83856
0.94045
1.0143
1.0602
1.0755
1.0704
1.0398
0.9863
0.95064
0.88696
0.84366
0.79271
0.75705
0.71375
0.68827
0.64752
0.62205
0.61186
0.58893
0.57874
0.55072
0.54818
0.54053
0.53289
0.52525
0.53544
0.53034
0.53289
0.53799
0.54563
0.54818
0.54308
0.56346
0.56346
0.56346
0.5762
0.58638
0.59912
0.61695
0.67044
0.76469
0.88696
1.0041
1.1137
1.1977
1.2436
1.2487
1.2283
1.1952
1.1239
1.0653
0.99904
0.93536
0.87422
0.81564
0.76979
0.72394
0.68318
0.65261
0.6195
0.59912
0.58129
0.56091
0.54053
0.53034
0.5227
0.51506
0.50487
0.50742
0.50997
0.50997
0.50742
0.49978
0.50742
0.49978
0.50232
0.51251
0.5227
0.53289
0.54308
0.5711
0.64497
0.76724
0.90989
1.0551
1.185
1.2869
1.3658
1.4015
1.4041
1.3684
1.3149
1.2436
1.1621
1.0831
1.0092
0.92517
0.85639
0.79271
0.72394
0.67044
0.62459
0.5762
0.54563
0.50997
0.48195
0.45902
0.4361
0.4361
0.41062
0.41062
0.40553
0.40298
0.39789
0.39789
0.39534
0.40808
0.41572
0.42336
0.43355
0.44629
0.45138
0.47685
0.53034
0.62714
0.76215
0.90224
1.0347
1.1442
1.2334
1.2818
1.2996
1.2843
1.2487
1.1773
1.1137
1.0347
0.95574
0.89206
0.81564
0.76215
0.70611
0.65007
0.61186
0.57365
0.53799
0.50997
0.47685
0.46412
0.45393
0.4361
0.42845
0.42845
0.41827
0.42081
0.40808
0.41572
0.42336
0.42336
0.42081
0.4361
0.431
0.44374
0.45902
0.46412
0.4794
0.54053
0.64497
0.77233
0.90224
1.0296
1.1264
1.1926
1.2207
1.2232
1.2003
1.1417
1.0882
1.0118
0.95828
0.88696
0.82328
0.76469
0.72139
0.67044
0.62969
0.59403
0.5711
0.53034
0.50997
0.48959
0.48195
0.46666
0.45647
0.45647
0.45138
0.44374
0.43864
0.4361
0.44883
0.43355
0.43864
0.44119
0.44883
0.46157
0.46921
0.47685
0.49214
0.52016
0.59148
0.69592
0.83092
0.95574
1.0525
1.1366
1.1799
1.1824
1.1697
1.1239
1.0576
0.99904
0.93791
0.86658
0.81309
0.7596
0.7112
0.6628
0.62714
0.60676
0.5711
0.55582
0.53289
0.50742
0.49978
0.49214
0.47685
0.48195
0.46921
0.46412
0.46157
0.46412
0.46921
0.47176
0.47431
0.47176
0.48195
0.4794
0.48704
0.49723
0.50487
0.5227
0.56601
0.63224
0.74177
0.83856
0.92772
0.99649
1.0423
1.0423
1.0398
1.022
0.97866
0.93791
0.89715
0.85385
0.81309
0.76724
0.72648
0.70356
0.67809
0.65516
0.63733
0.6144
0.60676
0.59657
0.58384
0.57365
0.55836
0.55582
0.54308
0.53289
0.53034
0.53034
0.53544
0.53544
0.53034
0.54308
0.54818
0.55327
0.56346
0.57365
0.59148
0.62205
0.68573
0.78507
0.8997
1.0118
1.1111
1.1697
1.213
1.2079
1.1799
1.1417
1.0806
1.0169
0.96083
0.90479
0.8462
0.79526
0.75196
0.70611
0.67044
0.63733
0.61695
0.58638
0.55836
0.55072
0.53799
0.52016
0.51506
0.51506
0.50487
0.50487
0.52016
0.5227
0.51761
0.52016
0.51761
0.52525
0.5278
0.53799
0.53289
0.55072
0.57365
0.62714
0.73413
0.87932
1.0245
1.1621
1.2767
1.3531
1.4041
1.4066
1.3811
1.3353
1.2716
1.1926
1.1162
1.0271
0.95574
0.88187
0.82073
0.7545
0.69337
0.64242
0.59148
0.55836
0.51761
0.49214
0.47176
0.44629
0.4361
0.431
0.41572
0.41062
0.41827
0.41827
0.41062
0.42591
0.42336
0.42591
0.42591
0.43355
0.44883
0.46412
0.48195
0.55072
0.6628
0.81819
0.97357
1.129
1.2716
1.3684
1.4346
1.4677
1.4423
1.4041
1.3276
1.2334
1.1519
1.0551
0.95574
0.86658
0.78252
0.70865
0.64497
0.57874
0.5278
0.48704
0.44883
0.42081
0.3877
0.36732
0.34439
0.34185
0.33166
0.32147
0.31892
0.32656
0.32911
0.3393
0.34694
0.35713
0.36732
0.37751
0.3826
0.39025
0.41827
0.46921
0.55072
0.68318
0.84111
1.0016
1.129
1.2538
1.3327
1.3735
1.376
1.3353
1.2767
1.2003
1.1086
1.0271
0.93791
0.85894
0.77998
0.7112
0.64242
0.58638
0.55072
0.50487
0.46666
0.4361
0.42081
0.40298
0.3877
0.38006
0.37751
0.36732
0.36477
0.36732
0.36732
0.36732
0.36732
0.36987
0.36477
0.37751
0.38006
0.39025
0.40298
0.42591
0.45902
0.56091
0.68318
0.83347
0.96847
1.0882
1.1697
1.2308
1.2512
1.2385
1.1977
1.1315
1.0627
0.9863
0.92262
0.85894
0.78507
0.72903
0.67809
0.62205
0.5762
0.54308
0.51761
0.48959
0.46157
0.44883
0.4361
0.41827
0.41062
0.41062
0.40808
0.40808
0.40808
0.40808
0.40808
0.41827
0.42336
0.42336
0.431
0.44374
0.44629
0.45902
0.48449
0.5278
0.59403
0.7112
0.83347
0.94555
1.0398
1.0907
1.1188
1.106
1.0729
1.0322
0.98376
0.92772
0.85894
0.81819
0.76469
0.72648
0.67809
0.65771
0.63224
0.59912
0.57874
0.56091
0.54053
0.53034
0.51251
0.51251
0.49978
0.50997
0.50232
0.50487
0.50742
0.50487
0.51251
0.51251
0.5278
0.52525
0.5278
0.5278
0.54818
0.55072
0.58129
0.61186
0.69082
0.79271
0.90224
0.99904
1.0907
1.1417
1.1621
1.1442
1.1188
1.0755
1.022
0.96593
0.91243
0.85894
0.81309
0.75705
0.72394
0.68573
0.6628
0.63478
0.60931
0.60167
0.58384
0.57874
0.5711
0.55836
0.55836
0.55327
0.55327
0.55072
0.54053
0.53289
0.53799
0.54053
0.54308
0.54563
0.54308
0.55582
0.56601
0.58638
0.62205
0.69082
0.80545
0.95319
1.1009
1.2257
1.32
1.3811
1.4091
1.4041
1.3557
1.3098
1.2334
1.1544
1.0755
0.99904
0.91498
0.8462
0.79017
0.72903
0.67044
0.63224
0.58893
0.55836
0.51506
0.49468
0.47685
0.45902
0.43355
0.42845
0.42081
0.41572
0.41572
0.41317
0.41572
0.42336
0.42336
0.43355
0.4361
0.44883
0.45393
0.46921
0.49214
0.5762
0.69337
0.85894
1.0169
1.1646
1.2869
1.3862
1.4525
1.4703
1.4474
1.3811
1.3047
1.2207
1.1315
1.0296
0.93281
0.8513
0.76979
0.70865
0.63988
0.57874
0.53289
0.48704
0.45902
0.43355
0.40553
0.37751
0.36732
0.35713
0.34439
0.34439
0.3393
0.34694
0.34694
0.34949
0.36223
0.35458
0.36223
0.37751
0.3877
0.39279
0.41827
0.45902
0.55836
0.68573
0.83602
0.97866
1.1239
1.2334
1.3047
1.3557
1.3531
1.3174
1.264
1.1824
1.1009
1.0143
0.93536
0.85639
0.78252
0.71629
0.65261
0.60676
0.55836
0.52016
0.48959
0.46157
0.43355
0.41062
0.3877
0.3877
0.36477
0.37241
0.36732
0.35968
0.35458
0.36732
0.36477
0.37751
0.36987
0.3826
0.40043
0.40808
0.41827
0.45138
0.50997
0.60676
0.73413
0.89206
1.0194
1.1366
1.2207
1.2589
1.2792
1.264
1.213
1.1417
1.0755
1.0016
0.92262
0.85385
0.78252
0.72903
0.67299
0.62459
0.5762
0.55072
0.51761
0.48959
0.46921
0.44119
0.4361
0.42845
0.42081
0.41317
0.41062
0.41317
0.40808
0.41062
0.40553
0.40298
0.41317
0.42081
0.42081
0.4361
0.44883
0.46412
0.48704
0.53034
0.6144
0.72648
0.84366
0.95319
1.0271
1.078
1.0933
1.0831
1.05
0.99904
0.93791
0.88696
0.83347
0.78507
0.74431
0.70101
0.6628
0.63224
0.61186
0.57874
0.56855
0.54563
0.54053
0.5278
0.53289
0.5278
0.51761
0.52016
0.51761
0.50997
0.5227
0.53034
0.53799
0.53544
0.53034
0.53544
0.54308
0.55327
0.56091
0.55582
0.57365
0.60676
0.67044
0.76215
0.87422
0.97102
1.0602
1.1239
1.1519
1.1391
1.1188
1.0704
1.022
0.96847
0.92008
0.86404
0.82073
0.77998
0.73158
0.70356
0.67044
0.65007
0.62714
0.60676
0.59148
0.57874
0.56855
0.56346
0.54818
0.54818
0.55072
0.54308
0.54563
0.54818
0.54818
0.54563
0.55072
0.54818
0.56601
0.55582
0.5762
0.58129
0.60422
0.65516
0.76215
0.88951
1.0271
1.1646
1.2716
1.3455
1.3862
1.3913
1.3709
1.3124
1.241
1.1646
1.0856
1.0041
0.93536
0.86913
0.80035
0.74431
0.70101
0.65007
0.61186
0.5711
0.54818
0.5278
0.50997
0.48959
0.4794
0.46921
0.45647
0.44629
0.44629
0.44883
0.45138
0.44374
0.44883
0.46157
0.46157
0.46921
0.4794
0.48449
0.50232
0.54563
0.64497
0.78507
0.92517
1.0806
1.2207
1.3276
1.4066
1.427
1.427
1.376
1.3149
1.2385
1.1442
1.0449
0.95319
0.87422
0.79271
0.73413
0.67044
0.61186
0.56346
0.5278
0.48704
0.45647
0.42591
0.40553
0.39534
0.37241
0.36477
0.36223
0.34694
0.34949
0.35713
0.36477
0.36223
0.35713
0.36732
0.3826
0.3826
0.39279
0.40043
0.42591
0.48959
0.58129
0.72394
0.86404
1.0016
1.1315
1.2207
1.2818
1.3022
1.2945
1.2512
1.1799
1.1111
1.0347
0.95319
0.88187
0.81309
0.7596
0.70865
0.65261
0.60422
0.5711
0.52525
0.49468
0.47685
0.43864
0.42845
0.41317
0.39789
0.3877
0.3877
0.37496
0.37751
0.37496
0.37241
0.37496
0.36732
0.37751
0.37241
0.37751
0.3877
0.40553
0.41572
0.45647
0.54053
0.66026
0.79017
0.8997
1.0067
1.0755
1.1035
1.1162
1.0856
1.05
0.99649
0.94045
0.87932
0.82583
0.76724
0.72394
0.67554
0.64242
0.6144
0.5711
0.54563
0.51506
0.49978
0.47685
0.47176
0.45138
0.44883
0.43864
0.44883
0.44629
0.45647
0.45393
0.46412
0.47176
0.47685
0.48959
0.50742
0.50997
0.5227
0.54053
0.54563
0.55836
0.59403
0.63988
0.72903
0.81564
0.90989
0.9863
1.0398
1.078
1.0729
1.05
1.0347
0.99649
0.9481
0.90224
0.86658
0.81819
0.79017
0.7596
0.72903
0.70101
0.67809
0.65516
0.64242
0.61186
0.61186
0.59148
0.59148
0.57365
0.56601
0.56091
0.55327
0.54563
0.54563
0.54308
0.54053
0.54053
0.54053
0.55072
0.54818
0.55327
0.56346
0.57365
0.59148
0.63988
0.70356
0.80035
0.88696
0.97612
1.0423
1.0729
1.0806
1.0704
1.0398
1.0092
0.96847
0.92772
0.87932
0.83347
0.78252
0.74941
0.71884
0.68318
0.6628
0.63224
0.60422
0.60422
0.58129
0.58384
0.57365
0.5711
0.56855
0.56091
0.56091
0.56855
0.56601
0.56091
0.57365
0.58638
0.58638
0.59912
0.60167
0.60931
0.61695
0.62714
0.6679
0.74686
0.85385
0.98121
1.0984
1.2054
1.2843
1.3251
1.3225
1.2843
1.2308
1.1672
1.0933
1.0169
0.93536
0.87168
0.8029
0.76215
0.70865
0.67554
0.63988
0.61186
0.58893
0.56601
0.55327
0.53034
0.52525
0.51251
0.50232
0.48959
0.48959
0.48195
0.48704
0.48704
0.4794
0.48449
0.48704
0.48704
0.49214
0.49723
0.50742
0.51251
0.55072
0.6144
0.73158
0.86404
0.99904
1.1086
1.1901
1.2436
1.2665
1.2436
1.2105
1.1391
1.0704
0.99649
0.91753
0.85385
0.78762
0.73922
0.68318
0.63988
0.59403
0.56855
0.54053
0.52016
0.50232
0.48959
0.4794
0.46412
0.45902
0.46157
0.44883
0.44883
0.45647
0.45647
0.46412
0.46921
0.46412
0.47685
0.46921
0.47431
0.49468
0.50232
0.52525
0.58129
0.67554
0.79526
0.93026
1.0474
1.1417
1.2054
1.2308
1.2207
1.1824
1.1213
1.0551
0.9914
0.91753
0.84875
0.79526
0.74177
0.68827
0.64242
0.61695
0.57874
0.55072
0.52525
0.50997
0.49723
0.48449
0.47685
0.47431
0.46921
0.46157
0.45393
0.45902
0.45393
0.45393
0.46666
0.46666
0.47685
0.46921
0.49214
0.48959
0.50997
0.52525
0.5711
0.65007
0.7545
0.86913
0.97866
1.0551
1.1137
1.129
1.1213
1.0856
1.0398
0.9863
0.93536
0.87677
0.82583
0.77233
0.73413
0.69082
0.6679
0.64752
0.6144
0.59912
0.58638
0.5711
0.55327
0.53799
0.53034
0.50997
0.50997
0.50232
0.50997
0.51251
0.51761
0.51251
0.51761
0.51506
0.5278
0.5278
0.53544
0.55072
0.56601
0.59403
0.67809
0.78762
0.90734
1.0271
1.1162
1.1773
1.2003
1.1977
1.1748
1.134
1.0704
1.0118
0.95064
0.88951
0.84111
0.79017
0.74431
0.70611
0.6628
0.64497
0.61186
0.59403
0.57365
0.55582
0.54308
0.53034
0.53034
0.51761
0.50487
0.50487
0.51761
0.50997
0.51761
0.52016
0.50997
0.51251
0.53034
0.52016
0.53289
0.55327
0.59148
0.69592
0.82837
0.97866
1.1264
1.2385
1.3251
1.3709
1.3888
1.3684
1.32
1.2512
1.1672
1.0856
1.0067
0.93026
0.85894
0.79271
0.74177
0.68318
0.63733
0.61186
0.5711
0.54563
0.50742
0.49723
0.46666
0.46157
0.44374
0.43864
0.431
0.42845
0.42591
0.42845
0.42591
0.42081
0.4361
0.43355
0.43864
0.44883
0.46157
0.49214
0.55072
0.6679
0.8029
0.96847
1.1188
1.2538
1.3531
1.4117
1.4423
1.4295
1.3811
1.2971
1.2079
1.106
1.0092
0.92008
0.83347
0.75705
0.69337
0.62459
0.58129
0.52525
0.49214
0.45647
0.42591
0.39279
0.37751
0.35458
0.35204
0.3393
0.33675
0.32402
0.32911
0.33675
0.33166
0.33675
0.34694
0.35204
0.35204
0.36732
0.39025
0.41062
0.44883
0.55327
0.67554
0.82073
0.96338
1.0704
1.1595
1.2105
1.2257
1.213
1.1621
1.0984
1.0372
0.95828
0.88441
0.82583
0.7596
0.70611
0.65516
0.61695
0.56855
0.54308
0.5227
0.49214
0.46921
0.44883
0.44119
0.431
0.42336
0.41827
0.41827
0.41062
0.40298
0.41827
0.41572
0.41827
0.42845
0.431
0.43864
0.44119
0.45647
0.47176
0.49723
0.55836
0.66026
0.78762
0.92517
1.0296
1.1162
1.1799
1.1926
1.1799
1.1391
1.0907
1.0118
0.95319
0.87422
0.81819
0.74941
0.69592
0.66026
0.62205
0.58638
0.56346
0.53799
0.50997
0.50487
0.49468
0.48449
0.48449
0.48704
0.47176
0.4794
0.47431
0.48704
0.47685
0.48449
0.49214
0.49723
0.49978
0.51251
0.52016
0.52525
0.54818
0.56091
0.59148
0.65516
0.74686
0.83602
0.9481
1.0143
1.0678
1.078
1.0704
1.0449
1.0143
0.96083
0.90734
0.85894
0.82073
0.77488
0.74941
0.70611
0.67044
0.65007
0.62205
0.60422
0.58129
0.56855
0.54563
0.54053
0.52525
0.51761
0.5227
0.51761
0.52016
0.50997
0.52016
0.51251
0.51761
0.5278
0.53289
0.53799
0.54053
0.56091
0.55836
0.58129
0.61695
0.68827
0.78252
0.88951
0.99649
1.0806
1.1417
1.1595
1.1595
1.1188
1.0856
1.0372
0.98121
0.92772
0.88187
0.82837
0.78762
0.73922
0.70101
0.67044
0.64242
0.61695
0.60422
0.58384
0.56346
0.55072
0.55072
0.54053
0.54818
0.54053
0.53289
0.52016
0.52525
0.53034
0.5227
0.53034
0.51761
0.5278
0.53034
0.53799
0.54563
0.56346
0.58384
0.65007
0.75196
0.88951
1.0143
1.1366
1.2257
1.2792
1.2971
1.2741
1.2359
1.1748
1.0984
1.0296
0.95828
0.88696
0.81819
0.7596
0.70101
0.65516
0.62459
0.59657
0.56091
0.54563
0.5278
0.50742
0.49723
0.48704
0.48195
0.47176
0.4794
0.4794
0.48195
0.48449
0.4794
0.49723
0.50232
0.49978
0.50742
0.51506
0.52525
0.53034
0.54563
0.58129
0.66535
0.77233
0.90224
1.0372
1.1519
1.2232
1.2792
1.2869
1.2614
1.2079
1.1391
1.0755
0.99395
0.92772
0.86149
0.81564
0.75705
0.71629
0.67044
0.63224
0.59912
0.56346
0.54818
0.52525
0.51251
0.48704
0.4794
0.45902
0.45902
0.44119
0.43864
0.4361
0.44374
0.44374
0.44629
0.44883
0.45138
0.45393
0.46157
0.46921
0.4794
0.49468
0.51761
0.58893
0.67809
0.79781
0.90224
1.0016
1.0704
1.1009
1.1111
1.0933
1.05
1.0041
0.95319
0.89715
0.82837
0.77233
0.72648
0.6628
0.62969
0.58384
0.54818
0.52525
0.51506
0.50232
0.49214
0.48195
0.48959
0.49214
0.48704
0.49468
0.48959
0.49978
0.49978
0.50997
0.50742
0.51761
0.52016
0.53034
0.54053
0.54563
0.55072
0.56346
0.57365
0.60167
0.63733
0.70865
0.79526
0.88441
0.96083
1.0169
1.0449
1.0474
1.0322
1.0016
0.96083
0.92008
0.88187
0.83347
0.79526
0.77233
0.72903
0.70356
0.68318
0.65261
0.63478
0.61695
0.60422
0.59912
0.57874
0.56855
0.56855
0.56091
0.56091
0.55072
0.54308
0.54308
0.54308
0.53799
0.53799
0.53799
0.54818
0.54818
0.54818
0.56855
0.57365
0.59403
0.62205
0.65771
0.71629
0.76215
0.81309
0.8513
0.86913
0.87422
0.86913
0.85639
0.83856
0.81309
0.79526
0.77233
0.75705
0.72903
0.71629
0.70101
0.69337
0.67809
0.6628
0.6679
0.65771
0.65516
0.64497
0.63224
0.63224
0.62205
0.62714
0.62459
0.61695
0.62969
0.62205
0.62205
0.62714
0.62714
0.6195
0.62205
0.63988
0.63733
0.65261
0.69082
0.76469
0.84875
0.95828
1.0755
1.157
1.2181
1.2512
1.2436
1.2156
1.1697
1.1162
1.0576
0.98885
0.93536
0.88441
0.82583
0.78252
0.74431
0.70865
0.67044
0.63988
0.6144
0.59912
0.58638
0.5711
0.55582
0.55327
0.54053
0.54053
0.54053
0.53034
0.5227
0.5227
0.52016
0.53034
0.52525
0.5278
0.53034
0.53544
0.54308
0.55836
0.62205
0.72139
0.83347
0.97612
1.1035
1.2003
1.2665
1.3047
1.2869
1.264
1.2028
1.134
1.0576
0.9863
0.91243
0.85639
0.79526
0.74177
0.68573
0.65261
0.61186
0.58638
0.55836
0.53544
0.51506
0.50487
0.48704
0.4794
0.46666
0.46412
0.47685
0.46412
0.47176
0.46921
0.47685
0.48449
0.48449
0.48959
0.48959
0.49978
0.50997
0.5227
0.57365
0.66026
0.78507
0.91753
1.0372
1.1493
1.213
1.2512
1.2512
1.2283
1.1723
1.106
1.0398
0.96847
0.88696
0.83602
0.76469
0.71884
0.67299
0.63478
0.59403
0.55582
0.54818
0.52016
0.50487
0.49468
0.4794
0.46921
0.46412
0.45647
0.45393
0.44629
0.45902
0.44883
0.45647
0.46666
0.46921
0.46921
0.47431
0.4794
0.49723
0.52016
0.55072
0.62714
0.74177
0.86913
0.98885
1.0933
1.1723
1.213
1.2054
1.1824
1.1315
1.0576
0.99395
0.92008
0.86149
0.80545
0.74431
0.69082
0.65516
0.62205
0.58384
0.55836
0.53544
0.5278
0.49978
0.50232
0.4794
0.47685
0.46412
0.45902
0.46412
0.46666
0.45902
0.45902
0.46412
0.46666
0.46157
0.46412
0.46921
0.48195
0.48704
0.49723
0.51251
0.56091
0.62205
0.73158
0.8462
0.93281
1.0143
1.0576
1.0755
1.0653
1.0423
1.0016
0.96083
0.91243
0.85639
0.80545
0.7596
0.71629
0.68573
0.63988
0.61695
0.59912
0.57365
0.56346
0.54053
0.53034
0.5227
0.53034
0.51251
0.51251
0.52016
0.51251
0.51761
0.51251
0.50997
0.52525
0.5278
0.52016
0.54053
0.54308
0.54818
0.56855
0.59403
0.65516
0.72394
0.82583
0.90479
0.98121
1.0271
1.0398
1.0372
1.022
0.98376
0.93791
0.90224
0.86658
0.81309
0.78252
0.74431
0.70865
0.68827
0.65516
0.63478
0.62205
0.60422
0.59148
0.58129
0.57874
0.56601
0.56091
0.56091
0.56091
0.55072
0.55327
0.55327
0.56091
0.56601
0.56091
0.55836
0.5762
0.5762
0.58384
0.59148
0.63733
0.71629
0.82837
0.95828
1.0627
1.1646
1.2385
1.2563
1.2538
1.2257
1.1697
1.106
1.0423
0.96847
0.90224
0.84875
0.78762
0.73667
0.69337
0.64752
0.62205
0.59403
0.5711
0.56091
0.54053
0.53289
0.51506
0.50487
0.49978
0.48959
0.48959
0.48704
0.48449
0.4794
0.4794
0.48195
0.4794
0.49214
0.49978
0.50487
0.50997
0.53799
0.59912
0.71884
0.86404
0.99649
1.1239
1.2334
1.3073
1.3327
1.3327
1.2945
1.2334
1.1519
1.0729
0.9863
0.91243
0.8513
0.77743
0.71884
0.6679
0.62459
0.58129
0.55836
0.5278
0.50232
0.48449
0.47176
0.46412
0.45138
0.45138
0.45393
0.45138
0.44629
0.44374
0.44629
0.45138
0.46921
0.46921
0.46412
0.47685
0.48704
0.50997
0.52525
0.60167
0.71884
0.86149
0.99904
1.1315
1.2232
1.2869
1.32
1.3124
1.2716
1.2003
1.1417
1.0576
0.9863
0.91753
0.84366
0.78252
0.73413
0.67809
0.63224
0.59657
0.55072
0.5227
0.49723
0.47685
0.46666
0.44629
0.43864
0.4361
0.42336
0.42081
0.41827
0.41827
0.41827
0.41572
0.431
0.42591
0.43355
0.44629
0.45138
0.46412
0.4794
0.50742
0.58129
0.70101
0.82583
0.95319
1.0653
1.1391
1.185
1.1901
1.1723
1.1315
1.0653
0.99649
0.93026
0.86404
0.8029
0.7545
0.70356
0.6628
0.61186
0.58384
0.54818
0.53799
0.50997
0.48704
0.48704
0.46412
0.46921
0.45647
0.44629
0.45138
0.45393
0.45647
0.45393
0.46921
0.46412
0.47685
0.48195
0.47431
0.48704
0.49214
0.50232
0.51761
0.54563
0.60422
0.70611
0.81564
0.92772
1.0041
1.0602
1.0806
1.0831
1.0551
1.0245
0.97102
0.91753
0.87422
0.82583
0.78252
0.74431
0.69592
0.67044
0.63988
0.6195
0.58384
0.56855
0.56091
0.54053
0.53034
0.52016
0.53034
0.51506
0.52016
0.50997
0.50997
0.52525
0.52525
0.51251
0.5227
0.5278
0.52525
0.53544
0.53544
0.53799
0.55836
0.58893
0.63478
0.73413
0.83092
0.93791
1.022
1.0704
1.1009
1.1009
1.0806
1.0398
1.0092
0.96083
0.90224
0.86913
0.81819
0.77743
0.74177
0.7112
0.68318
0.65007
0.63224
0.6144
0.59912
0.58384
0.56601
0.56855
0.55327
0.54818
0.55072
0.54053
0.54053
0.53544
0.53544
0.53289
0.53544
0.53544
0.53034
0.53544
0.55327
0.55327
0.57874
0.6195
0.71375
0.82837
0.96593
1.0729
1.1773
1.2512
1.269
1.2716
1.2359
1.1799
1.1111
1.05
0.97866
0.91243
0.84366
0.78507
0.74177
0.69337
0.66026
0.62714
0.59148
0.56091
0.53799
0.5278
0.51761
0.50487
0.48959
0.48959
0.48449
0.4794
0.4794
0.48195
0.48449
0.49214
0.48704
0.49978
0.49978
0.49978
0.50487
0.52016
0.53544
0.56855
0.63988
0.75196
0.87932
1.0092
1.1264
1.2105
1.264
1.2741
1.2512
1.2105
1.1417
1.0704
0.98885
0.91753
0.85894
0.78507
0.74431
0.69337
0.65007
0.60676
0.58129
0.55836
0.53034
0.51251
0.50997
0.48704
0.47685
0.47685
0.46666
0.47176
0.46412
0.46412
0.46157
0.47431
0.46921
0.48449
0.48959
0.48704
0.49723
0.50997
0.51251
0.52016
0.55072
0.60676
0.70611
0.82073
0.9481
1.0551
1.129
1.1824
1.1901
1.1748
1.129
1.078
1.0092
0.95064
0.88696
0.82837
0.77488
0.72648
0.67299
0.63988
0.60676
0.58638
0.55836
0.54053
0.52525
0.50997
0.49214
0.48959
0.4794
0.47176
0.47431
0.46666
0.47685
0.47685
0.47431
0.46921
0.46412
0.46412
0.4794
0.48959
0.48959
0.50232
0.50997
0.54053
0.5762
0.65261
0.76215
0.86149
0.95828
1.0296
1.0729
1.0882
1.0806
1.0602
1.0194
0.97102
0.91498
0.86913
0.81564
0.76215
0.72139
0.68827
0.65261
0.63224
0.59148
0.5762
0.55072
0.54563
0.53544
0.52525
0.51506
0.51506
0.50742
0.50742
0.50742
0.52016
0.51506
0.52525
0.53034
0.53544
0.54308
0.55582
0.56091
0.55582
0.57365
0.58384
0.60167
0.64242
0.7112
0.80545
0.88441
0.96593
1.0118
1.0372
1.0474
1.0271
1.0067
0.96847
0.93281
0.87677
0.84111
0.808
0.77233
0.74941
0.72139
0.70101
0.68063
0.65261
0.63478
0.62205
0.60167
0.59912
0.58129
0.57365
0.5762
0.5711
0.56601
0.56091
0.56855
0.56346
0.56601
0.55327
0.56855
0.55836
0.56601
0.56601
0.57874
0.59403
0.61186
0.66535
0.75705
0.86658
0.98376
1.0958
1.1697
1.2207
1.2436
1.2181
1.185
1.1315
1.0755
1.0092
0.9481
0.88951
0.83602
0.77998
0.73158
0.69592
0.6628
0.62714
0.60422
0.57365
0.55072
0.53289
0.51761
0.50997
0.50997
0.49214
0.50232
0.49468
0.49723
0.49468
0.49978
0.49978
0.49468
0.49978
0.50742
0.50997
0.5227
0.53799
0.55072
0.57365
0.62714
0.72139
0.84366
0.96338
1.078
1.1773
1.2283
1.2614
1.2563
1.213
1.1493
1.1009
1.0296
0.95064
0.88441
0.83092
0.76724
0.71629
0.67299
0.63224
0.6144
0.58129
0.55836
0.54563
0.52525
0.50487
0.50232
0.49468
0.48449
0.49214
0.48449
0.48959
0.48704
0.48959
0.48959
0.47431
0.48449
0.48704
0.48959
0.49723
0.50742
0.51761
0.53544
0.57365
0.65007
0.76215
0.87932
0.98885
1.0755
1.134
1.1621
1.1544
1.1213
1.0704
1.0092
0.9481
0.87932
0.82583
0.7596
0.71375
0.6679
0.6195
0.59148
0.55072
0.53799
0.52016
0.50742
0.50232
0.48704
0.48195
0.47685
0.48195
0.47685
0.47685
0.4794
0.48959
0.48704
0.49214
0.48195
0.48449
0.49723
0.50232
0.50997
0.50997
0.52525
0.5278
0.54818
0.58129
0.64752
0.73667
0.83092
0.90224
0.96593
1.0067
1.0194
1.0271
1.0016
0.97102
0.93536
0.8946
0.86149
0.81564
0.77998
0.7545
0.72648
0.69846
0.67809
0.65771
0.63224
0.62205
0.60167
0.58638
0.58638
0.56855
0.55836
0.55327
0.55327
0.55072
0.55327
0.55327
0.54818
0.55072
0.55327
0.56346
0.55327
0.56855
0.56855
0.58893
0.58893
0.6144
0.65516
0.73413
0.83602
0.93791
1.0143
1.0806
1.1086
1.1111
1.106
1.078
1.0347
0.99904
0.95064
0.90479
0.86149
0.81819
0.78252
0.73922
0.7112
0.68827
0.67044
0.64497
0.62714
0.61186
0.59148
0.57874
0.56855
0.56091
0.56091
0.55327
0.55836
0.55582
0.55327
0.55072
0.55582
0.55582
0.54818
0.54308
0.55072
0.55327
0.5711
0.58893
0.65261
0.7596
0.88696
1.0271
1.1417
1.2359
1.2971
1.3149
1.3174
1.2792
1.213
1.1493
1.0627
0.99649
0.93536
0.86658
0.80545
0.7545
0.70101
0.65261
0.6195
0.59148
0.56091
0.5278
0.50232
0.48959
0.47685
0.46412
0.45902
0.45647
0.46412
0.46666
0.45647
0.46157
0.45902
0.45902
0.46666
0.46921
0.48959
0.49468
0.50742
0.52016
0.55582
0.61186
0.73158
0.86913
1.0067
1.1315
1.2334
1.2869
1.3149
1.3124
1.2741
1.2181
1.1391
1.0602
0.98121
0.8997
0.83092
0.76469
0.71375
0.66535
0.6144
0.58384
0.55836
0.53034
0.49978
0.47685
0.47431
0.45902
0.44883
0.44374
0.43864
0.42845
0.431
0.4361
0.42845
0.43864
0.44119
0.44374
0.44374
0.44629
0.45647
0.47176
0.4794
0.50742
0.5711
0.6679
0.79526
0.92517
1.0449
1.1442
1.2105
1.2359
1.213
1.1824
1.134
1.0627
0.99395
0.92517
0.85894
0.79781
0.74941
0.69082
0.64242
0.60931
0.5711
0.54308
0.52016
0.50742
0.48704
0.47176
0.46412
0.45138
0.45902
0.45138
0.44883
0.44374
0.45138
0.45393
0.45902
0.45902
0.46157
0.46666
0.48195
0.47685
0.49214
0.50232
0.53034
0.5762
0.67299
0.77488
0.88441
0.98121
1.0551
1.106
1.1086
1.1009
1.0678
1.0194
0.96847
0.91498
0.85894
0.81564
0.76724
0.72648
0.69337
0.65771
0.62714
0.60931
0.5762
0.55582
0.55582
0.53544
0.53289
0.51251
0.50487
0.50487
0.50742
0.50487
0.50742
0.49978
0.50232
0.50742
0.50232
0.51761
0.52016
0.53289
0.53799
0.55327
0.56855
0.6144
0.70101
0.8029
0.92517
1.0271
1.1086
1.157
1.1748
1.1595
1.1239
1.0704
1.0271
0.96338
0.90479
0.85385
0.8029
0.75705
0.72139
0.68063
0.6628
0.62969
0.60676
0.58638
0.58129
0.55836
0.54818
0.53799
0.53544
0.54053
0.53034
0.52016
0.5227
0.52525
0.52525
0.52016
0.53034
0.53289
0.54053
0.54053
0.56091
0.58129
0.64497
0.74941
0.89715
1.0474
1.1824
1.2945
1.376
1.427
1.4193
1.3913
1.3429
1.2741
1.185
1.0984
1.0194
0.93281
0.86404
0.79526
0.74177
0.68318
0.64752
0.59403
0.56091
0.53544
0.50742
0.48449
0.46666
0.44883
0.43355
0.41827
0.41572
0.40553
0.40808
0.40808
0.41062
0.41827
0.41572
0.42336
0.42591
0.44883
0.46157
0.49723
0.58129
0.69846
0.86149
1.022
1.1926
1.32
1.4244
1.4856
1.5059
1.483
1.4244
1.3455
1.2563
1.1544
1.0474
0.9481
0.85639
0.77233
0.70101
0.62714
0.56091
0.50742
0.46412
0.431
0.40808
0.37496
0.35204
0.3393
0.32656
0.31128
0.30873
0.30109
0.30109
0.296
0.29854
0.31638
0.31892
0.32911
0.34185
0.35713
0.37241
0.40298
0.47431
0.59657
0.74431
0.90224
1.05
1.1697
1.2741
1.3429
1.3709
1.3633
1.3149
1.2461
1.1672
1.0831
0.98885
0.8946
0.81054
0.73922
0.67299
0.59912
0.55582
0.49723
0.46157
0.42845
0.39279
0.3826
0.35713
0.34949
0.33675
0.32911
0.32147
0.31638
0.31638
0.32147
0.32402
0.32147
0.3393
0.34185
0.35458
0.35458
0.37241
0.3826
0.43355
0.51761
0.65261
0.78252
0.92008
1.0296
1.1213
1.1748
1.1926
1.1621
1.129
1.0729
1.0143
0.95064
0.87932
0.82073
0.7545
0.70356
0.66535
0.62714
0.58638
0.56091
0.54053
0.50487
0.48704
0.47176
0.46412
0.43864
0.42845
0.42591
0.42845
0.41827
0.42336
0.42591
0.42336
0.43355
0.44119
0.44883
0.45393
0.4794
0.48449
0.5278
0.59403
0.69846
0.82583
0.95828
1.0551
1.134
1.185
1.1977
1.1875
1.1315
1.0831
1.0271
0.96593
0.8997
0.83602
0.78762
0.74431
0.68827
0.66026
0.6195
0.58893
0.56601
0.54563
0.53034
0.51761
0.50487
0.50487
0.49978
0.49468
0.49978
0.50487
0.50487
0.50997
0.49978
0.50997
0.50997
0.51761
0.52525
0.54053
0.56091
0.61186
0.71629
0.87677
1.0347
1.1799
1.3149
1.4295
1.5059
1.5467
1.5365
1.5009
1.4142
1.3276
1.241
1.134
1.0372
0.943
0.86404
0.78507
0.71375
0.63988
0.59148
0.54563
0.49214
0.45902
0.43355
0.40808
0.38006
0.36223
0.35458
0.34949
0.34185
0.32911
0.34439
0.34439
0.34949
0.35458
0.35968
0.36987
0.37496
0.38006
0.42845
0.52016
0.6628
0.83092
1.0041
1.1799
1.3353
1.455
1.534
1.5671
1.5442
1.4881
1.4091
1.3098
1.2003
1.0806
0.97357
0.86913
0.77488
0.68318
0.61186
0.55327
0.48959
0.44629
0.41062
0.37241
0.35204
0.32911
0.30364
0.296
0.28581
0.27562
0.26798
0.27307
0.27052
0.27307
0.28071
0.2909
0.30364
0.31383
0.32402
0.3393
0.37751
0.45647
0.58129
0.73667
0.91498
1.0831
1.2334
1.3531
1.4295
1.4448
1.4372
1.3862
1.3124
1.2283
1.1213
1.0271
0.93536
0.84111
0.74941
0.68573
0.60422
0.54563
0.49468
0.45647
0.41572
0.37751
0.35204
0.33675
0.32656
0.31383
0.31638
0.30364
0.30619
0.30619
0.31128
0.31383
0.30619
0.31128
0.32147
0.32911
0.34694
0.36477
0.39534
0.46157
0.5762
0.71629
0.87168
1.0067
1.1493
1.2436
1.3098
1.3225
1.3022
1.2563
1.1926
1.1111
1.0245
0.93536
0.86149
0.79271
0.71884
0.66026
0.59912
0.56091
0.51251
0.48959
0.45393
0.42591
0.41317
0.39279
0.38006
0.36732
0.36223
0.36477
0.35713
0.34694
0.34949
0.36223
0.36223
0.37751
0.38006
0.39534
0.40553
0.42591
0.44629
0.49468
0.57874
0.68827
0.80545
0.91753
0.99904
1.0551
1.078
1.0704
1.0449
0.99395
0.95319
0.90734
0.84875
0.79781
0.75196
0.70865
0.66535
0.63988
0.60931
0.58638
0.5711
0.54818
0.54053
0.52016
0.51506
0.49723
0.49978
0.50232
0.49978
0.49468
0.50487
0.50997
0.50742
0.5227
0.5278
0.53799
0.53799
0.55327
0.57365
0.58129
0.63224
0.73158
0.85894
0.98885
1.0984
1.1926
1.241
1.2767
1.2665
1.2334
1.1799
1.1239
1.05
0.99395
0.93536
0.86404
0.81564
0.7596
0.71629
0.68063
0.64497
0.62459
0.59912
0.58129
0.56091
0.54818
0.54053
0.53034
0.51761
0.51761
0.51761
0.51761
0.50997
0.50487
0.50742
0.51506
0.52016
0.50997
0.51761
0.53799
0.57365
0.65771
0.79271
0.95574
1.129
1.2894
1.427
1.5391
1.6129
1.6359
1.6078
1.5467
1.4626
1.3684
1.2563
1.1493
1.0372
0.94555
0.84366
0.75705
0.67044
0.58893
0.52525
0.46921
0.42336
0.3877
0.36223
0.34439
0.32656
0.30364
0.296
0.28836
0.27307
0.27307
0.26798
0.27052
0.28581
0.29854
0.30619
0.31892
0.34694
0.3877
0.46921
0.60422
0.76469
0.93536
1.1264
1.2741
1.4041
1.4881
1.5212
1.5212
1.4652
1.376
1.2894
1.1799
1.0653
0.95828
0.86404
0.76724
0.68573
0.6144
0.55582
0.50487
0.45393
0.42336
0.39025
0.36732
0.34694
0.32656
0.32656
0.31383
0.30619
0.30619
0.30619
0.30109
0.30364
0.32147
0.32656
0.32911
0.3393
0.35458
0.36477
0.41317
0.50742
0.65261
0.81309
0.97866
1.1391
1.2767
1.3582
1.4219
1.4219
1.3786
1.3251
1.2359
1.1468
1.0525
0.9481
0.87168
0.78507
0.70611
0.63224
0.58384
0.52525
0.4794
0.43355
0.41317
0.3877
0.36477
0.34694
0.33675
0.31638
0.31638
0.31128
0.30619
0.30364
0.31383
0.31383
0.32656
0.32656
0.34185
0.35204
0.35713
0.37751
0.44374
0.54053
0.68573
0.83347
0.95574
1.078
1.1697
1.2232
1.2359
1.2257
1.1824
1.1213
1.0423
0.97612
0.90479
0.83347
0.76724
0.70865
0.66026
0.6144
0.57365
0.53799
0.50742
0.48449
0.46666
0.44629
0.42081
0.41317
0.39534
0.39789
0.39534
0.39025
0.38515
0.39279
0.40043
0.39789
0.40808
0.40808
0.431
0.431
0.45647
0.49468
0.58129
0.69846
0.82583
0.93791
1.0398
1.1086
1.1264
1.129
1.1035
1.0474
0.99395
0.943
0.88187
0.82583
0.77488
0.72139
0.68827
0.65261
0.62969
0.59403
0.5762
0.54818
0.53289
0.52525
0.51251
0.50232
0.50232
0.50487
0.50487
0.50742
0.50487
0.50997
0.51761
0.5227
0.52016
0.53544
0.54563
0.54818
0.56091
0.58384
0.65261
0.74941
0.89206
1.0449
1.1697
1.269
1.3429
1.3888
1.4015
1.376
1.3174
1.2512
1.185
1.1035
1.0194
0.95319
0.88951
0.82073
0.7545
0.70356
0.65771
0.62205
0.58893
0.55836
0.53034
0.50742
0.49214
0.46921
0.45902
0.45138
0.4361
0.42845
0.41827
0.42336
0.42845
0.42591
0.42081
0.43355
0.44119
0.45138
0.46921
0.54053
0.6628
0.8029
0.97612
1.1442
1.2971
1.4168
1.5034
1.5518
1.5442
1.5059
1.4372
1.3327
1.2359
1.1315
1.0372
0.93281
0.8462
0.76215
0.68318
0.6144
0.56091
0.52016
0.47431
0.431
0.40043
0.38006
0.35204
0.33675
0.32402
0.31638
0.31638
0.30873
0.30364
0.31892
0.32147
0.32656
0.32656
0.34185
0.35204
0.36732
0.4361
0.53544
0.67809
0.8513
1.0449
1.2181
1.348
1.4601
1.5263
1.5263
1.4881
1.4091
1.3225
1.2105
1.106
0.98885
0.89715
0.80035
0.7112
0.62969
0.56601
0.50232
0.44629
0.40298
0.37241
0.34694
0.32402
0.31383
0.30109
0.28581
0.28071
0.26798
0.26543
0.27562
0.28326
0.28071
0.29345
0.30364
0.30619
0.33166
0.34439
0.3826
0.46666
0.58638
0.74686
0.8997
1.0653
1.1977
1.3124
1.3735
1.3837
1.348
1.3047
1.2181
1.1213
1.0322
0.93281
0.8513
0.77233
0.70356
0.63224
0.57365
0.51506
0.47685
0.44119
0.40298
0.38515
0.35713
0.34439
0.31892
0.31638
0.31638
0.30873
0.30873
0.30873
0.31128
0.30873
0.31383
0.32147
0.33675
0.34439
0.35713
0.3877
0.40808
0.48704
0.60422
0.72903
0.8462
0.94045
1.0169
1.0602
1.0755
1.0653
1.0347
0.9863
0.93536
0.87677
0.82837
0.77488
0.72648
0.68827
0.64752
0.62205
0.60167
0.58129
0.55836
0.54563
0.53034
0.52525
0.50997
0.50997
0.50997
0.49978
0.48959
0.48959
0.49468
0.50232
0.49723
0.50997
0.50997
0.52016
0.5278
0.54308
0.55072
0.58893
0.65261
0.7596
0.88696
1.0194
1.1213
1.185
1.2308
1.2334
1.2156
1.1621
1.1086
1.0372
0.97866
0.91753
0.86404
0.81819
0.75705
0.72648
0.69337
0.65261
0.62714
0.59657
0.58638
0.56091
0.54818
0.53544
0.5278
0.52525
0.5278
0.5278
0.52525
0.52016
0.53034
0.53289
0.54053
0.54563
0.55072
0.55072
0.56346
0.59148
0.65771
0.77998
0.93791
1.1035
1.2487
1.376
1.483
1.5442
1.5696
1.5467
1.4856
1.4142
1.3225
1.2257
1.1264
1.0322
0.9481
0.86404
0.78762
0.7112
0.65516
0.59403
0.55072
0.51506
0.47685
0.44374
0.41827
0.39534
0.37496
0.37241
0.35204
0.35713
0.35204
0.35204
0.35204
0.35713
0.35458
0.36223
0.36987
0.38515
0.41572
0.49468
0.61695
0.78252
0.9481
1.1086
1.264
1.376
1.455
1.4703
1.4601
1.4066
1.3251
1.2308
1.1239
1.0143
0.92008
0.81819
0.74941
0.67044
0.60422
0.54563
0.48704
0.45393
0.41827
0.39025
0.35458
0.33421
0.31383
0.30364
0.28581
0.27307
0.27307
0.26543
0.27562
0.28326
0.29345
0.30619
0.32147
0.34185
0.35458
0.39025
0.46412
0.60676
0.77488
0.96083
1.1468
1.3149
1.4423
1.5365
1.5747
1.562
1.5085
1.4142
1.3174
1.2054
1.0856
0.97102
0.87677
0.78252
0.69592
0.61695
0.55836
0.49978
0.44629
0.41062
0.36987
0.35204
0.32656
0.30619
0.30619
0.296
0.28581
0.28836
0.296
0.30364
0.30619
0.30364
0.31638
0.31128
0.32147
0.34439
0.37241
0.45393
0.5711
0.73413
0.88441
1.0271
1.1544
1.2563
1.3098
1.32
1.2869
1.2257
1.1468
1.0602
0.97612
0.88441
0.81054
0.73413
0.67809
0.62205
0.56601
0.53289
0.48704
0.44629
0.41827
0.40298
0.38515
0.37241
0.36732
0.36223
0.35458
0.35713
0.35968
0.36732
0.35968
0.37241
0.36732
0.36987
0.36732
0.37751
0.40553
0.46412
0.5711
0.7112
0.86913
1.0143
1.1417
1.2308
1.2996
1.3353
1.3073
1.264
1.1926
1.1086
1.0067
0.92262
0.83347
0.75705
0.67809
0.60676
0.54563
0.50997
0.45902
0.44119
0.41572
0.39534
0.39789
0.39534
0.37751
0.37751
0.37751
0.3877
0.38515
0.39025
0.38515
0.39279
0.39534
0.40553
0.41317
0.43355
0.45393
0.54053
0.65516
0.81564
0.98376
1.1442
1.292
1.4066
1.4779
1.511
1.4983
1.4575
1.3862
1.2996
1.2028
1.1111
1.0169
0.92262
0.83347
0.75705
0.69846
0.62969
0.5762
0.54053
0.50997
0.47431
0.45393
0.43355
0.41572
0.39534
0.3826
0.36987
0.36477
0.34949
0.34694
0.34439
0.33675
0.33421
0.33675
0.34694
0.37241
0.44374
0.56855
0.72648
0.88951
1.0551
1.2156
1.348
1.4372
1.4754
1.4677
1.427
1.348
1.2614
1.1519
1.05
0.9481
0.86404
0.78252
0.70101
0.63224
0.5762
0.51506
0.46921
0.42845
0.39789
0.36477
0.33675
0.31128
0.30109
0.27562
0.27562
0.26798
0.26543
0.26798
0.27052
0.28071
0.2909
0.296
0.30873
0.33421
0.39025
0.49978
0.65261
0.80545
0.95064
1.0678
1.1544
1.2156
1.2436
1.2487
1.2028
1.1519
1.0933
1.0092
0.943
0.87422
0.81054
0.7545
0.69592
0.64752
0.60931
0.5711
0.54053
0.50742
0.4794
0.46157
0.45393
0.4361
0.41317
0.39534
0.38515
0.38515
0.3826
0.3826
0.3877
0.39025
0.39534
0.40808
0.41827
0.44119
0.46412
0.50232
0.60422
0.72903
0.85639
0.97357
1.0602
1.1264
1.1468
1.1391
1.1137
1.0729
1.0092
0.96083
0.90479
0.86658
0.81309
0.77488
0.72903
0.68827
0.67044
0.63988
0.61186
0.59912
0.58893
0.5711
0.55836
0.56091
0.54818
0.55582
0.54563
0.53799
0.53289
0.52525
0.51761
0.5227
0.52016
0.53034
0.5278
0.54308
0.56855
0.63988
0.7596
0.90734
1.05
1.1901
1.2843
1.3658
1.3939
1.3862
1.3378
1.2818
1.1926
1.1111
1.0296
0.93791
0.85385
0.79017
0.71375
0.65516
0.61186
0.56346
0.52525
0.49468
0.46921
0.44119
0.42081
0.41317
0.39789
0.40553
0.39025
0.40298
0.39534
0.40808
0.40808
0.40808
0.42591
0.44119
0.45647
0.4794
0.53544
0.65007
0.83856
1.0525
1.2843
1.4881
1.6486
1.7607
1.7989
1.7861
1.7225
1.6155
1.4907
1.3608
1.2232
1.106
0.98376
0.85894
0.7596
0.67044
0.59657
0.5278
0.46921
0.42336
0.37496
0.33166
0.30619
0.28071
0.26288
0.2425
0.23741
0.22467
0.22722
0.21448
0.21448
0.22722
0.22722
0.23232
0.2425
0.25015
0.27052
0.32911
0.43864
0.6144
0.83092
1.05
1.2538
1.4015
1.4881
1.5365
1.5136
1.4575
1.3557
1.264
1.1468
1.0271
0.92262
0.82073
0.71629
0.63988
0.56091
0.50487
0.45902
0.39789
0.36477
0.32147
0.296
0.27052
0.25269
0.22213
0.20684
0.20684
0.2043
0.20175
0.20175
0.20684
0.21448
0.22722
0.22977
0.24505
0.26543
0.27817
0.30619
0.37751
0.49723
0.65516
0.82328
0.99395
1.1366
1.2232
1.2818
1.2716
1.2334
1.1672
1.0958
1.0118
0.94555
0.86149
0.79526
0.73413
0.67299
0.62205
0.57874
0.53544
0.50997
0.49214
0.46921
0.45138
0.44374
0.44119
0.4361
0.431
0.44883
0.44629
0.46921
0.47176
0.4794
0.49468
0.50742
0.51506
0.53034
0.5278
0.53799
0.53544
0.55836
0.6195
0.72394
0.85639
0.98885
1.0984
1.1901
1.2334
1.241
1.2181
1.1697
1.0907
1.022
0.9481
0.88951
0.81819
0.76469
0.69592
0.65261
0.60167
0.5711
0.53799
0.50997
0.48195
0.45902
0.4361
0.42591
0.41062
0.39534
0.40553
0.39534
0.39534
0.40553
0.40808
0.42591
0.44374
0.44883
0.46157
0.47176
0.49214
0.49978
0.52016
0.54308
0.58129
0.64752
0.72903
0.79017
0.8513
0.87422
0.88441
0.85894
0.84111
0.81054
0.78507
0.75196
0.73667
0.70865
0.67299
0.65261
0.64497
0.61695
0.6144
0.60676
0.59912
0.58129
0.58129
0.56855
0.55072
0.54308
0.53799
0.53799
0.53799
0.55072
0.55836
0.56346
0.57874
0.60167
0.60676
0.60931
0.6195
0.62205
0.61186
0.62714
0.66026
0.72903
0.81819
0.92772
1.0092
1.0882
1.1213
1.129
1.1111
1.078
1.0347
0.9863
0.93281
0.88187
0.84366
0.80545
0.77488
0.73667
0.71629
0.68573
0.64752
0.6144
0.59657
0.56091
0.5278
0.51506
0.50232
0.48959
0.49723
0.50997
0.51761
0.53544
0.54818
0.56601
0.56091
0.5711
0.65007
0.85385
1.2054
1.6359
2.0663
2.4306
2.7388
2.9502
3.1184
3.2101
3.2228
3.1795
3.0725
2.9171
2.721
2.4866
2.2396
2.0001
1.7479
1.4958
1.2665
1.0576
0.85385
0.6679
0.52016
0.3826
0.26543
0.1559
0.074385
0.010704
-0.052978
-0.10138
-0.14468
-0.18289
-0.216
-0.23383
-0.25676
-0.26185
-0.2644
-0.25931
-0.24657
-0.23638
-0.23129
-0.20327
-0.19817
-0.1727
-0.14723
-0.11411
-0.058072
0.0005149
0.048913
0.084574
0.12278
0.14316
0.16099
0.1559
0.17373
0.17118
0.17373
0.18646
0.19665
0.20175
0.21194
0.22467
0.25269
0.28326
0.296
0.33421
0.35713
0.37496
0.39279
0.41062
0.43864
0.45647
0.47176
0.49723
0.51761
0.5278
0.53034
0.53034
0.5227
0.51251
0.50487
0.49723
0.48959
0.49723
0.50742
0.5278
0.59148
0.68063
0.8029
0.92772
1.0372
1.1315
1.1901
1.2054
1.1926
1.1621
1.1188
1.0602
0.99649
0.93791
0.88696
0.84111
0.808
0.77488
0.74431
0.71375
0.70356
0.69082
0.67809
0.66535
0.64752
0.64497
0.62459
0.61186
0.6144
0.60931
0.59912
0.59403
0.58638
0.58129
0.58893
0.5762
0.5762
0.58129
0.57365
0.58129
0.60931
0.6628
0.75705
0.88441
1.0169
1.1519
1.2334
1.2894
1.2971
1.2843
1.2487
1.1977
1.1315
1.0627
0.99904
0.94045
0.86658
0.81564
0.77233
0.72903
0.69082
0.64752
0.62205
0.60422
0.57365
0.56855
0.55836
0.54053
0.54053
0.53289
0.52016
0.50997
0.51761
0.50232
0.50742
0.49723
0.49723
0.49978
0.48449
0.48449
0.47431
0.49978
0.56346
0.66026
0.76469
0.87677
0.95574
1.0118
1.0347
1.0143
0.97612
0.93791
0.88441
0.83602
0.77998
0.72903
0.67809
0.64752
0.62205
0.59912
0.58638
0.57365
0.56601
0.55582
0.55582
0.55836
0.55327
0.56091
0.56601
0.56601
0.5711
0.57365
0.58384
0.5711
0.58129
0.57874
0.58129
0.5711
0.57874
0.58638
0.59657
0.60931
0.6679
0.74431
0.86149
0.97866
1.0806
1.1519
1.2003
1.2079
1.1901
1.1417
1.0907
1.022
0.96338
0.90734
0.84366
0.79781
0.75196
0.72139
0.67809
0.64497
0.6144
0.58129
0.5711
0.54818
0.5278
0.51251
0.49214
0.48449
0.48449
0.46921
0.46666
0.46157
0.45902
0.45902
0.46157
0.46157
0.47176
0.47431
0.49214
0.51761
0.53289
0.58129
0.65261
0.76469
0.87677
0.95828
1.0194
1.0602
1.05
1.022
0.98121
0.93791
0.87932
0.82837
0.78252
0.74431
0.70356
0.67299
0.64242
0.60931
0.59148
0.57874
0.55072
0.54563
0.54053
0.54053
0.5227
0.5278
0.53034
0.53289
0.52525
0.52525
0.5278
0.52525
0.53034
0.52016
0.5278
0.54053
0.55072
0.56601
0.58384
0.63224
0.69846
0.79271
0.88696
0.96083
1.0169
1.0398
1.0347
1.0067
0.96847
0.93281
0.88696
0.8462
0.79781
0.76469
0.73413
0.70101
0.67809
0.65261
0.63224
0.6144
0.60676
0.59148
0.58129
0.57365
0.57365
0.56601
0.55582
0.56346
0.5711
0.56855
0.56601
0.57874
0.58129
0.5762
0.57874
0.59148
0.59657
0.62714
0.70356
0.83092
0.9914
1.1646
1.3149
1.4474
1.5085
1.534
1.5085
1.4677
1.3811
1.2996
1.2079
1.1213
1.0271
0.94555
0.87168
0.79526
0.73158
0.67554
0.61186
0.57365
0.53289
0.49978
0.47431
0.45138
0.42845
0.41062
0.40808
0.40298
0.39789
0.3877
0.3877
0.3877
0.39534
0.39789
0.40553
0.41317
0.44883
0.51251
0.64497
0.8513
1.0729
1.2843
1.4499
1.5594
1.6155
1.6078
1.5518
1.4525
1.3455
1.2181
1.1035
0.98885
0.88441
0.79526
0.70865
0.63478
0.5711
0.52016
0.46666
0.42591
0.39025
0.36223
0.3393
0.32147
0.30619
0.29854
0.2909
0.28581
0.27562
0.27817
0.28071
0.28326
0.28581
0.28836
0.30109
0.31383
0.34949
0.45647
0.62969
0.8513
1.078
1.2665
1.3939
1.4728
1.4932
1.4525
1.376
1.2741
1.1595
1.0602
0.9481
0.8462
0.76979
0.69082
0.6144
0.55327
0.49978
0.45138
0.40553
0.38515
0.35713
0.3393
0.31383
0.30109
0.2909
0.28581
0.28581
0.27817
0.28326
0.28581
0.28581
0.296
0.30873
0.31638
0.33675
0.35204
0.42336
0.56601
0.76979
1.0016
1.2105
1.3862
1.4754
1.5187
1.5034
1.4474
1.3531
1.2359
1.1213
1.0041
0.90734
0.80545
0.71884
0.63478
0.56855
0.5227
0.47431
0.43355
0.39025
0.36732
0.34949
0.32911
0.31892
0.31383
0.32402
0.32147
0.31128
0.31638
0.32147
0.31638
0.31383
0.31638
0.32402
0.33675
0.33675
0.35713
0.4361
0.56091
0.75196
0.96593
1.1672
1.32
1.4041
1.4448
1.4244
1.3582
1.2792
1.1799
1.0831
0.9914
0.89715
0.81309
0.74177
0.67044
0.6195
0.56601
0.5227
0.48959
0.45902
0.4361
0.41317
0.39279
0.37496
0.37751
0.35713
0.35458
0.35968
0.35713
0.35204
0.34949
0.35458
0.35968
0.36732
0.37751
0.38515
0.40808
0.45393
0.55582
0.72394
0.92772
1.1188
1.2792
1.3786
1.427
1.4193
1.3658
1.2894
1.2028
1.1213
1.0271
0.9481
0.86913
0.79781
0.73158
0.67554
0.62459
0.58129
0.55327
0.51506
0.48959
0.46666
0.4361
0.42081
0.40553
0.40043
0.3826
0.3826
0.37751
0.36987
0.36732
0.37751
0.37751
0.39789
0.39279
0.41062
0.431
0.46666
0.55836
0.71884
0.91243
1.1009
1.2741
1.3888
1.4525
1.4601
1.4193
1.3506
1.2665
1.1901
1.0933
1.0143
0.91753
0.8513
0.76979
0.71884
0.65516
0.60676
0.56346
0.5227
0.49978
0.47431
0.44883
0.42591
0.40808
0.39534
0.3877
0.3877
0.3826
0.39025
0.38515
0.39279
0.39279
0.39025
0.3877
0.39789
0.41062
0.41572
0.46666
0.57365
0.73413
0.91753
1.0933
1.2257
1.3276
1.3582
1.3429
1.3073
1.2385
1.1621
1.0755
0.9914
0.90989
0.8513
0.77998
0.71375
0.6628
0.60167
0.55836
0.5278
0.48195
0.46412
0.42845
0.41827
0.39025
0.39025
0.37751
0.37241
0.36732
0.35968
0.35968
0.36477
0.35968
0.36732
0.37751
0.37496
0.3826
0.39534
0.43355
0.51251
0.63478
0.77743
0.91498
1.0423
1.1264
1.1748
1.1799
1.1621
1.1086
1.0576
0.99649
0.94045
0.89206
0.83602
0.79017
0.73158
0.69592
0.65771
0.62205
0.59148
0.5711
0.54053
0.52016
0.50487
0.49468
0.48704
0.4794
0.46921
0.47431
0.47431
0.46921
0.46412
0.47431
0.47431
0.47685
0.48449
0.50742
0.5278
0.60167
0.74431
0.94045
1.1773
1.4066
1.5951
1.7097
1.7861
1.7785
1.7403
1.6537
1.5518
1.4219
1.292
1.1799
1.0551
0.95064
0.85385
0.76469
0.69082
0.62459
0.56601
0.50487
0.46412
0.42081
0.37751
0.35713
0.33421
0.31383
0.30364
0.296
0.27817
0.28581
0.27307
0.28581
0.28836
0.28071
0.28836
0.31383
0.32911
0.41827
0.56601
0.81819
1.0882
1.3276
1.5289
1.6766
1.7454
1.753
1.7021
1.6257
1.4958
1.3735
1.2385
1.1035
0.97357
0.86658
0.7545
0.6679
0.57365
0.51506
0.44629
0.39789
0.34694
0.31638
0.28581
0.25269
0.23232
0.21958
0.1992
0.19665
0.19156
0.19156
0.18392
0.20175
0.20175
0.21194
0.22213
0.23996
0.25269
0.30873
0.42591
0.63733
0.90734
1.1748
1.4117
1.5747
1.6792
1.7225
1.7072
1.6282
1.5212
1.3939
1.269
1.1239
0.99649
0.87677
0.76979
0.67299
0.59912
0.51506
0.45647
0.39534
0.35458
0.31638
0.29345
0.26543
0.2425
0.22722
0.20684
0.21194
0.1992
0.18646
0.18901
0.18901
0.19665
0.19411
0.21448
0.22467
0.23486
0.25779
0.31383
0.45647
0.69082
0.95574
1.2105
1.4219
1.5747
1.6639
1.6715
1.6359
1.5569
1.4372
1.2996
1.1646
1.0398
0.90734
0.80545
0.70611
0.62205
0.54563
0.47685
0.431
0.3877
0.33421
0.31383
0.27562
0.25779
0.2425
0.22722
0.21703
0.20939
0.20175
0.20175
0.21194
0.22213
0.22467
0.23996
0.23741
0.25779
0.28071
0.29345
0.35204
0.47176
0.67809
0.92517
1.1824
1.3888
1.5518
1.6435
1.669
1.6308
1.5569
1.455
1.3327
1.2054
1.078
0.97357
0.85639
0.76724
0.6628
0.58893
0.51761
0.46412
0.41062
0.36732
0.33675
0.30109
0.28581
0.26543
0.25269
0.2476
0.23486
0.2425
0.23232
0.25269
0.2476
0.26798
0.27562
0.28326
0.29345
0.30619
0.32911
0.36477
0.47431
0.65516
0.87677
1.106
1.3022
1.4575
1.5492
1.5747
1.5518
1.4856
1.3913
1.2843
1.1723
1.0576
0.95319
0.86404
0.76979
0.68063
0.60931
0.54563
0.48959
0.44629
0.40298
0.36987
0.34185
0.32911
0.31383
0.28581
0.28836
0.28836
0.27562
0.28581
0.2909
0.296
0.296
0.30873
0.31383
0.31383
0.33421
0.34949
0.40043
0.50487
0.6679
0.8462
1.022
1.1621
1.2614
1.3149
1.32
1.2741
1.2181
1.1264
1.0551
0.96338
0.87932
0.8029
0.72903
0.6628
0.60931
0.56601
0.53289
0.48959
0.46921
0.44883
0.43355
0.41572
0.39789
0.39534
0.39789
0.40553
0.41317
0.41062
0.41572
0.41572
0.42591
0.43355
0.4361
0.45393
0.47176
0.49723
0.56091
0.70101
0.90989
1.1468
1.3888
1.6027
1.7556
1.8447
1.8626
1.8371
1.7632
1.6384
1.511
1.3811
1.2538
1.134
1.0092
0.8997
0.8029
0.71375
0.63224
0.56091
0.49978
0.43864
0.39789
0.34949
0.31383
0.29345
0.26543
0.25015
0.24505
0.23486
0.23741
0.22467
0.22722
0.23741
0.23996
0.25779
0.27052
0.28836
0.33675
0.45647
0.6628
0.92772
1.2054
1.455
1.6588
1.781
1.8371
1.8345
1.7887
1.6893
1.5594
1.4142
1.269
1.1366
0.9914
0.87677
0.75705
0.6628
0.5711
0.49468
0.43355
0.36477
0.32656
0.28071
0.24505
0.21448
0.19411
0.18137
0.16099
0.1508
0.14571
0.14316
0.1508
0.14571
0.16099
0.16099
0.17373
0.1992
0.22467
0.28326
0.41827
0.64752
0.90734
1.1824
1.4142
1.5824
1.6893
1.7377
1.7097
1.6537
1.5492
1.4066
1.2767
1.1391
0.99649
0.88441
0.76979
0.67299
0.5762
0.51506
0.43864
0.3877
0.3393
0.296
0.25269
0.23996
0.21703
0.19156
0.17373
0.16354
0.15844
0.16099
0.16099
0.16354
0.17118
0.18392
0.18646
0.2043
0.21194
0.25524
0.32402
0.48704
0.73413
0.99904
1.2614
1.4779
1.6206
1.7072
1.7276
1.6893
1.6078
1.4932
1.3608
1.2308
1.0882
0.96593
0.8513
0.74941
0.65007
0.57365
0.49214
0.4361
0.3826
0.32911
0.296
0.26798
0.24505
0.21703
0.2043
0.19156
0.19665
0.20175
0.20175
0.1992
0.21703
0.22722
0.23232
0.2425
0.25524
0.26798
0.29854
0.35458
0.50487
0.72139
0.9914
1.2436
1.4423
1.5926
1.6919
1.7046
1.6664
1.59
1.4805
1.3429
1.2028
1.0678
0.9481
0.83347
0.73413
0.63224
0.54818
0.48449
0.41572
0.36732
0.31638
0.28326
0.24505
0.21958
0.1992
0.18646
0.17118
0.16609
0.16609
0.15844
0.15844
0.17118
0.17628
0.17628
0.2043
0.21194
0.22213
0.23996
0.30109
0.39025
0.56346
0.76979
0.97866
1.1773
1.3327
1.427
1.4575
1.455
1.3913
1.3225
1.213
1.1162
1.0194
0.92262
0.83092
0.75196
0.67044
0.60167
0.54053
0.47685
0.44374
0.40808
0.37496
0.36987
0.35458
0.34694
0.33675
0.34185
0.33421
0.3393
0.33675
0.34185
0.33675
0.34185
0.35713
0.35968
0.36987
0.39025
0.42845
0.50487
0.63478
0.81564
1.022
1.2207
1.399
1.5263
1.5849
1.6002
1.5696
1.4907
1.4015
1.2996
1.1824
1.0755
0.97357
0.87422
0.8029
0.71884
0.65261
0.60167
0.54053
0.50997
0.47431
0.431
0.41317
0.38515
0.38006
0.35204
0.34694
0.33675
0.33166
0.33675
0.33421
0.3393
0.34694
0.35458
0.38006
0.39025
0.431
0.55072
0.74941
1.0347
1.3378
1.5951
1.8142
1.9492
2.0332
2.0383
1.9899
1.8957
1.7658
1.6027
1.4372
1.2818
1.1111
0.97612
0.8462
0.72394
0.6195
0.5227
0.44883
0.38006
0.31383
0.26543
0.22977
0.1992
0.16863
0.1508
0.13043
0.12024
0.11005
0.10241
0.11259
0.11514
0.11769
0.13552
0.14826
0.16609
0.19665
0.27817
0.45138
0.72903
1.0423
1.3327
1.5671
1.7505
1.8626
1.9059
1.888
1.8116
1.6944
1.5467
1.3862
1.2257
1.0653
0.91753
0.77998
0.66535
0.56346
0.46412
0.39789
0.32656
0.26543
0.22977
0.18646
0.15844
0.13043
0.10495
0.099858
0.084574
0.07948
0.074385
0.074385
0.066744
0.071838
0.082027
0.094763
0.11514
0.13043
0.17118
0.27817
0.48195
0.7596
1.0627
1.3429
1.5594
1.7174
1.8091
1.8371
1.7963
1.7123
1.5875
1.4321
1.2792
1.1188
0.96083
0.82583
0.70611
0.60422
0.51761
0.431
0.36987
0.30619
0.25524
0.21958
0.17373
0.14316
0.12788
0.1075
0.11005
0.10241
0.10241
0.10495
0.11769
0.11769
0.12278
0.12533
0.14061
0.14316
0.17118
0.21703
0.33166
0.54563
0.81054
1.1009
1.3557
1.5543
1.7021
1.7734
1.7709
1.7123
1.6206
1.4958
1.3557
1.2028
1.0602
0.93536
0.8029
0.70101
0.60167
0.51761
0.43864
0.36987
0.31638
0.27562
0.23486
0.1992
0.17373
0.1559
0.13807
0.13552
0.12788
0.13043
0.12788
0.13807
0.1508
0.15844
0.17118
0.18392
0.21194
0.22213
0.27052
0.35204
0.5278
0.77233
1.0423
1.2869
1.4805
1.6231
1.6868
1.7021
1.6435
1.5671
1.4474
1.32
1.1901
1.0525
0.93281
0.81819
0.70865
0.62205
0.54563
0.47431
0.41062
0.36223
0.32147
0.30109
0.27307
0.24505
0.22977
0.22213
0.20939
0.20684
0.2043
0.21958
0.21194
0.23232
0.22722
0.2425
0.26034
0.28326
0.30364
0.35204
0.44374
0.59912
0.79526
1.0118
1.2028
1.3506
1.455
1.4983
1.4881
1.4295
1.3429
1.2436
1.1315
1.0271
0.93281
0.83602
0.74686
0.67554
0.59912
0.54563
0.49723
0.44883
0.41572
0.39025
0.36987
0.36223
0.3393
0.34694
0.33675
0.33421
0.34694
0.34949
0.36477
0.36987
0.37496
0.37496
0.38515
0.40043
0.41827
0.46921
0.57365
0.75705
1.0016
1.2741
1.5238
1.7225
1.8651
1.9441
1.9517
1.9135
1.8116
1.6919
1.5543
1.4015
1.2487
1.1162
0.98121
0.85639
0.75196
0.65261
0.57365
0.49214
0.42845
0.37496
0.32656
0.28836
0.25524
0.22722
0.20939
0.19156
0.18901
0.16863
0.16609
0.17373
0.17628
0.17882
0.19411
0.20684
0.22467
0.26034
0.32911
0.49214
0.73158
1.0322
1.3149
1.562
1.7505
1.8702
1.9364
1.9313
1.8549
1.7607
1.6104
1.4499
1.2971
1.1442
0.99395
0.86404
0.73413
0.62205
0.53799
0.46412
0.38515
0.33166
0.26798
0.22977
0.18901
0.15844
0.13297
0.11769
0.094763
0.094763
0.094763
0.084574
0.092216
0.10241
0.11005
0.12278
0.14061
0.16354
0.19411
0.26543
0.40808
0.63733
0.92772
1.2079
1.4525
1.6333
1.7556
1.8193
1.8142
1.753
1.6511
1.5136
1.3557
1.2003
1.0602
0.91498
0.78762
0.67299
0.58129
0.49723
0.42081
0.35204
0.30364
0.26288
0.21958
0.18901
0.16609
0.15335
0.12533
0.12533
0.11514
0.10495
0.11514
0.12533
0.13043
0.13552
0.15335
0.16863
0.18646
0.21194
0.27052
0.3877
0.59403
0.85385
1.1468
1.3888
1.5849
1.7148
1.776
1.7861
1.7403
1.6308
1.511
1.376
1.2207
1.0882
0.96083
0.82583
0.71884
0.62969
0.54053
0.46921
0.3877
0.33421
0.29854
0.2476
0.22722
0.20175
0.19156
0.17882
0.15844
0.1559
0.16099
0.1559
0.15335
0.1508
0.16609
0.17373
0.18137
0.19665
0.21448
0.25524
0.32656
0.47176
0.69082
0.96593
1.2257
1.4626
1.6257
1.7301
1.7683
1.7276
1.6639
1.5518
1.4168
1.2792
1.129
0.99904
0.88696
0.77743
0.6679
0.58638
0.50997
0.44883
0.3877
0.34185
0.30109
0.26034
0.23232
0.21194
0.20175
0.19156
0.19156
0.18392
0.18646
0.17628
0.18137
0.19156
0.20684
0.21448
0.22722
0.2425
0.28071
0.34185
0.44119
0.60422
0.77998
0.97866
1.1442
1.2665
1.3429
1.3633
1.3225
1.2665
1.1901
1.0831
0.99904
0.90224
0.81309
0.73922
0.6628
0.59403
0.55072
0.50487
0.46921
0.43864
0.41827
0.39025
0.37241
0.36223
0.35713
0.35204
0.34694
0.34185
0.35458
0.35458
0.36732
0.37751
0.3877
0.39789
0.41317
0.431
0.45138
0.48959
0.60167
0.75705
0.96338
1.2028
1.4066
1.59
1.7021
1.7785
1.7734
1.7276
1.6409
1.5212
1.4041
1.2741
1.1442
1.0296
0.90734
0.80545
0.72139
0.63478
0.57365
0.50232
0.45902
0.41827
0.3826
0.36223
0.34439
0.32911
0.32656
0.31383
0.31383
0.32147
0.31638
0.32656
0.32656
0.32402
0.33675
0.35204
0.35458
0.36477
0.4361
0.56091
0.77998
1.0551
1.3353
1.6002
1.7861
1.9313
2.0001
2.0027
1.9441
1.8473
1.7225
1.5594
1.4066
1.2538
1.0958
0.9481
0.83092
0.70611
0.59657
0.50997
0.42845
0.36223
0.29854
0.25269
0.22213
0.19156
0.16099
0.13552
0.12533
0.11769
0.11259
0.10495
0.11514
0.12024
0.13297
0.13552
0.15844
0.16863
0.19156
0.25269
0.3826
0.58638
0.85639
1.1519
1.4015
1.6104
1.7607
1.832
1.8498
1.8065
1.7072
1.5875
1.4346
1.2843
1.1391
0.98376
0.85385
0.73667
0.62714
0.53034
0.44629
0.37496
0.30619
0.25779
0.21194
0.17628
0.15335
0.13297
0.11005
0.092216
0.089669
0.092216
0.092216
0.10241
0.10495
0.11514
0.12278
0.14061
0.16099
0.18901
0.23741
0.34185
0.53289
0.79526
1.0806
1.3327
1.5416
1.6893
1.7785
1.7836
1.7479
1.6588
1.5365
1.3964
1.2512
1.1137
0.96593
0.83856
0.73667
0.62205
0.54308
0.46157
0.3877
0.33421
0.2909
0.25269
0.21448
0.19411
0.17882
0.16354
0.14826
0.13807
0.14316
0.14061
0.14571
0.16863
0.16609
0.18137
0.19156
0.21703
0.22722
0.26543
0.35968
0.5278
0.77233
1.0525
1.3047
1.5212
1.6817
1.7581
1.7938
1.7556
1.6715
1.5492
1.4193
1.2767
1.1417
1.0016
0.86913
0.76469
0.65261
0.56091
0.48195
0.41827
0.34439
0.296
0.25779
0.22467
0.19665
0.16863
0.16354
0.14316
0.14316
0.14316
0.14061
0.1508
0.15844
0.16609
0.18137
0.18392
0.20684
0.21958
0.2425
0.28581
0.3877
0.54818
0.77233
0.99904
1.2156
1.3862
1.4907
1.5467
1.5365
1.4779
1.3939
1.2945
1.1748
1.0602
0.943
0.84366
0.74431
0.65261
0.58129
0.52016
0.45902
0.40553
0.36477
0.33675
0.31892
0.29345
0.28836
0.28071
0.27562
0.26543
0.27307
0.27562
0.27052
0.27562
0.29345
0.296
0.31638
0.32656
0.34949
0.36987
0.431
0.54308
0.71884
0.92772
1.1595
1.3582
1.5136
1.6282
1.6639
1.6486
1.5926
1.5034
1.3811
1.264
1.1366
1.0194
0.91498
0.81564
0.71884
0.65007
0.5762
0.52525
0.4794
0.431
0.39534
0.37496
0.34439
0.31638
0.30873
0.2909
0.28836
0.27817
0.27562
0.28581
0.28836
0.29345
0.296
0.31383
0.32402
0.34439
0.41062
0.54053
0.74941
1.0194
1.32
1.5875
1.7989
1.9517
2.0256
2.0485
2.0078
1.9135
1.7785
1.6333
1.4728
1.3047
1.157
1.0092
0.87422
0.76215
0.65261
0.56091
0.48449
0.41062
0.34185
0.30109
0.2425
0.21448
0.19156
0.16354
0.15335
0.13552
0.13043
0.13043
0.13297
0.13807
0.13807
0.16099
0.17118
0.19156
0.21703
0.28326
0.43864
0.67809
0.9863
1.2792
1.5238
1.7225
1.8498
1.9237
1.9262
1.8702
1.7632
1.6257
1.4652
1.3047
1.1391
0.98121
0.83856
0.70356
0.58893
0.48704
0.41062
0.32911
0.26288
0.22213
0.17882
0.14061
0.10241
0.092216
0.069291
0.069291
0.056555
0.059102
0.066744
0.07948
0.087122
0.097311
0.10241
0.11769
0.13807
0.1508
0.1992
0.32147
0.53034
0.81054
1.0984
1.348
1.5569
1.7046
1.781
1.8014
1.7556
1.6715
1.5543
1.4091
1.2538
1.1111
0.96593
0.84111
0.71884
0.60931
0.52525
0.4361
0.36477
0.30109
0.26034
0.21448
0.19411
0.17628
0.1508
0.14571
0.14061
0.14061
0.14316
0.13807
0.14571
0.1508
0.16354
0.16354
0.18137
0.19411
0.21448
0.24505
0.33421
0.49978
0.74431
1.0169
1.264
1.4856
1.6308
1.7276
1.7403
1.7174
1.6333
1.5238
1.3837
1.2487
1.1111
0.97866
0.84875
0.73667
0.63988
0.54053
0.46666
0.40553
0.33675
0.29345
0.26288
0.23232
0.2043
0.19156
0.16609
0.16609
0.16354
0.16354
0.17118
0.16354
0.17882
0.19411
0.21194
0.22213
0.22977
0.25269
0.28071
0.31383
0.41827
0.58384
0.77998
0.9914
1.1926
1.3582
1.4601
1.5238
1.5085
1.4652
1.3913
1.2894
1.1773
1.0755
0.96338
0.85894
0.76979
0.69592
0.61695
0.56091
0.51506
0.46412
0.42591
0.38515
0.36732
0.34694
0.32656
0.32147
0.31128
0.31638
0.30873
0.30619
0.31892
0.32402
0.32402
0.34439
0.34694
0.35713
0.36732
0.39534
0.46921
0.60676
0.80035
1.0602
1.3073
1.5263
1.6893
1.8014
1.8549
1.8345
1.7683
1.6537
1.5289
1.399
1.2614
1.1213
0.99904
0.88441
0.77488
0.68063
0.58893
0.5227
0.45902
0.40553
0.36477
0.32656
0.296
0.26543
0.25015
0.2425
0.23232
0.22977
0.23486
0.23232
0.22977
0.24505
0.25269
0.26034
0.26798
0.27817
0.30109
0.38515
0.54818
0.81564
1.106
1.3964
1.6384
1.8269
1.9543
2.0001
2.0001
1.9339
1.8167
1.6766
1.5136
1.3429
1.1901
1.0347
0.89206
0.75705
0.63988
0.54308
0.46412
0.3826
0.31638
0.25269
0.21194
0.18137
0.14316
0.11259
0.099858
0.082027
0.082027
0.084574
0.084574
0.089669
0.10241
0.11514
0.11259
0.13297
0.1559
0.18137
0.21958
0.3393
0.54563
0.80545
1.1086
1.3684
1.5875
1.7479
1.8244
1.8651
1.8269
1.7403
1.6104
1.4754
1.3124
1.1621
1.0092
0.88187
0.75705
0.64497
0.55327
0.46157
0.3877
0.32402
0.27562
0.22467
0.19411
0.16099
0.13807
0.12024
0.11259
0.10495
0.094763
0.10241
0.1075
0.1075
0.11769
0.14061
0.14826
0.1559
0.18646
0.2043
0.26543
0.39534
0.6144
0.88951
1.1672
1.4219
1.6053
1.7428
1.8065
1.8142
1.753
1.6511
1.5187
1.3684
1.213
1.0729
0.93791
0.81564
0.70356
0.59912
0.50997
0.42336
0.36223
0.296
0.23996
0.2043
0.16099
0.12788
0.11769
0.097311
0.084574
0.092216
0.082027
0.10241
0.10241
0.11259
0.12024
0.13297
0.14316
0.15335
0.17628
0.19156
0.22722
0.31383
0.44119
0.61186
0.79781
0.98376
1.1417
1.2538
1.32
1.3327
1.3047
1.2512
1.1748
1.0806
0.98885
0.89715
0.81819
0.74941
0.68063
0.63224
0.58129
0.53544
0.48449
0.45902
0.43864
0.42081
0.39789
0.38006
0.37496
0.38006
0.36732
0.36732
0.36223
0.37241
0.37496
0.37496
0.39025
0.39789
0.40808
0.41062
0.42591
0.45138
0.49978
0.59403
0.72394
0.86404
0.99904
1.106
1.1926
1.2487
1.2512
1.2257
1.1672
1.1086
1.0474
0.97866
0.91498
0.8513
0.8029
0.75705
0.71375
0.67299
0.64242
0.62714
0.60676
0.58638
0.56855
0.54818
0.54308
0.54053
0.53799
0.5278
0.53289
0.5227
0.5278
0.52525
0.53544
0.54053
0.55072
0.55327
0.56091
0.56855
0.60422
0.67809
0.808
0.99395
1.1875
1.4066
1.5875
1.7174
1.7912
1.8244
1.7887
1.7021
1.5976
1.4754
1.3404
1.2003
1.0729
0.9481
0.83856
0.74431
0.67044
0.59403
0.53799
0.4794
0.43355
0.39279
0.35204
0.32402
0.30364
0.29345
0.27562
0.27562
0.27307
0.27817
0.27307
0.28581
0.27562
0.2909
0.30109
0.30873
0.32656
0.36477
0.44883
0.60931
0.82583
1.0678
1.3149
1.5289
1.6919
1.7989
1.8422
1.8244
1.7505
1.646
1.5085
1.3735
1.2181
1.0907
0.95064
0.83092
0.72139
0.63224
0.54563
0.4794
0.40808
0.35458
0.30873
0.27307
0.26034
0.22977
0.20939
0.2043
0.19665
0.18901
0.19156
0.19411
0.19665
0.20939
0.21703
0.21448
0.23486
0.26034
0.27817
0.36223
0.50997
0.71629
0.9863
1.2436
1.4779
1.6511
1.7632
1.804
1.7912
1.7225
1.618
1.483
1.3404
1.2003
1.0525
0.93026
0.81309
0.70101
0.60931
0.51506
0.43355
0.37751
0.32656
0.28071
0.2425
0.21448
0.19156
0.17882
0.16609
0.16609
0.15844
0.1559
0.16354
0.16609
0.16609
0.17882
0.20175
0.21194
0.23486
0.25015
0.296
0.40553
0.5762
0.81054
1.0678
1.3073
1.511
1.6409
1.7199
1.7352
1.6893
1.6053
1.4881
1.3557
1.2105
1.0806
0.95319
0.84366
0.72903
0.63733
0.54563
0.46921
0.40808
0.35204
0.30619
0.27562
0.23486
0.20684
0.19411
0.18392
0.16863
0.15844
0.17118
0.17118
0.18137
0.18392
0.19156
0.2043
0.21194
0.22977
0.25015
0.27052
0.34439
0.45902
0.64497
0.87932
1.1188
1.3353
1.5034
1.6002
1.646
1.6282
1.5696
1.4652
1.3455
1.2257
1.106
0.97866
0.86404
0.7545
0.6679
0.59148
0.51251
0.44119
0.39279
0.34694
0.30873
0.27052
0.25524
0.23486
0.22722
0.22722
0.21448
0.22213
0.22467
0.22213
0.23232
0.2425
0.25269
0.27052
0.27562
0.28836
0.30364
0.33421
0.40298
0.52525
0.69082
0.88441
1.0678
1.2207
1.3276
1.3862
1.3811
1.3455
1.2767
1.185
1.0958
1.0067
0.90224
0.83092
0.74941
0.67044
0.6195
0.56601
0.51761
0.47431
0.44374
0.42336
0.39534
0.3877
0.37241
0.35968
0.36223
0.35458
0.35713
0.36223
0.37751
0.37751
0.3877
0.39789
0.41317
0.42336
0.42591
0.44374
0.47176
0.55836
0.68827
0.87932
1.0984
1.3149
1.5009
1.6333
1.6944
1.7199
1.6715
1.59
1.4754
1.3658
1.241
1.1188
1.0041
0.89715
0.80035
0.70865
0.64752
0.57874
0.5227
0.46921
0.43864
0.40808
0.37751
0.36732
0.34949
0.33166
0.32911
0.32656
0.32402
0.32911
0.32147
0.32656
0.33421
0.34439
0.34694
0.35713
0.37241
0.40808
0.48959
0.65007
0.89206
1.1824
1.455
1.6868
1.8677
1.9772
2.0179
2.0027
1.9135
1.7989
1.6588
1.5009
1.3455
1.1926
1.0347
0.90734
0.78252
0.68063
0.57874
0.50232
0.42845
0.36732
0.31383
0.27562
0.22467
0.20684
0.17882
0.15844
0.14826
0.13552
0.14316
0.13043
0.14316
0.14316
0.14061
0.16099
0.16099
0.18392
0.21448
0.26798
0.39025
0.61695
0.88951
1.1773
1.4244
1.6129
1.753
1.8294
1.8294
1.7683
1.6715
1.5518
1.3964
1.241
1.0958
0.95064
0.81819
0.7112
0.61186
0.51761
0.43355
0.37241
0.31638
0.26288
0.22213
0.19411
0.16863
0.15844
0.13297
0.13043
0.12533
0.12024
0.11514
0.12024
0.12533
0.12278
0.13297
0.1508
0.16609
0.18392
0.20684
0.28581
0.43864
0.68063
0.95064
1.2308
1.4575
1.6308
1.7377
1.7785
1.7658
1.6893
1.5722
1.4448
1.292
1.1595
1.0169
0.88951
0.78507
0.68318
0.58384
0.50742
0.42845
0.37496
0.32911
0.28071
0.2425
0.21448
0.17882
0.16609
0.14061
0.13297
0.12278
0.13043
0.12278
0.13552
0.14061
0.14826
0.16354
0.18137
0.20175
0.22722
0.26288
0.34439
0.50997
0.73667
1.0041
1.2614
1.4601
1.618
1.7021
1.7199
1.6843
1.5951
1.4779
1.3429
1.213
1.0882
0.95828
0.84111
0.73667
0.64497
0.55327
0.48959
0.42081
0.36477
0.32147
0.28071
0.2476
0.22467
0.20175
0.18392
0.17118
0.17628
0.16609
0.17373
0.18646
0.18646
0.19665
0.2043
0.21703
0.24505
0.25524
0.27562
0.30619
0.36732
0.48449
0.64752
0.83602
1.0322
1.2028
1.3251
1.3888
1.4066
1.376
1.3073
1.2207
1.1213
1.0169
0.92262
0.83602
0.76469
0.68318
0.63224
0.56601
0.52016
0.48449
0.44883
0.42591
0.39534
0.39025
0.36477
0.36477
0.35968
0.36477
0.36223
0.36477
0.36477
0.37241
0.38515
0.39534
0.41062
0.42081
0.42845
0.44883
0.45647
0.50997
0.60676
0.73667
0.92772
1.134
1.3251
1.4805
1.5926
1.6333
1.6257
1.5671
1.483
1.3939
1.2716
1.1697
1.0678
0.95319
0.86658
0.79017
0.7112
0.64497
0.59912
0.54308
0.51506
0.46921
0.44374
0.42845
0.40808
0.40043
0.39279
0.38515
0.38006
0.37241
0.37241
0.36732
0.36223
0.37241
0.37751
0.37751
0.38515
0.39789
0.4361
0.53034
0.68573
0.91753
1.1952
1.4474
1.6741
1.832
1.9288
1.9695
1.939
1.8626
1.7377
1.6002
1.455
1.3022
1.1442
1.0041
0.88441
0.76724
0.67044
0.57365
0.49723
0.4361
0.36732
0.32402
0.28071
0.25015
0.21194
0.19156
0.18137
0.17118
0.1508
0.16099
0.1559
0.1559
0.16354
0.17373
0.18137
0.2043
0.22467
0.24505
0.30109
0.40808
0.60422
0.85385
1.1417
1.3964
1.6027
1.7454
1.8142
1.8345
1.781
1.6893
1.562
1.4244
1.2716
1.1264
0.99649
0.87168
0.76215
0.65261
0.55327
0.47685
0.40808
0.34694
0.28581
0.2476
0.20939
0.18137
0.15335
0.14316
0.14061
0.13297
